*RAS_DATA_START
*RAS_HEADER_START
*CORR_POS_DB_NAME "Angle Correction ASC6 SC WITH Mono_04082019"
*CORR_POS_GONIO_RADIUS ""
*CORR_POS_NODE_INDEX01 ""
*CORR_POS_NODE_INDEX02 ""
*CORR_POS_NODE_INDEX03 ""
*CORR_POS_NODE_INDEX04 ""
*CORR_POS_NODE_INDEX05 ""
*CORR_POS_NODE_INDEX06 ""
*CORR_POS_NODE_INDEX07 ""
*CORR_POS_NODE_INDEX08 ""
*CORR_POS_NODE_INDEX09 ""
*CORR_POS_NODE_INDEX10 ""
*CORR_POS_NODE_INDEX11 ""
*CORR_POS_NODE_LABEL01 "Si(111)"
*CORR_POS_NODE_LABEL02 "Si(220)"
*CORR_POS_NODE_LABEL03 "Si(311)"
*CORR_POS_NODE_LABEL04 "Si(400)"
*CORR_POS_NODE_LABEL05 "Si(331)"
*CORR_POS_NODE_LABEL06 "Si(422)"
*CORR_POS_NODE_LABEL07 "Si(511)"
*CORR_POS_NODE_LABEL08 "Si(440)"
*CORR_POS_NODE_LABEL09 "Si(531)"
*CORR_POS_NODE_LABEL10 "Si(620)"
*CORR_POS_NODE_LABEL11 "Si(533)"
*CORR_POS_NODE_POS_CALC01 "28.377"
*CORR_POS_NODE_POS_CALC02 "47.2506"
*CORR_POS_NODE_POS_CALC03 "56.0725"
*CORR_POS_NODE_POS_CALC04 "69.0822"
*CORR_POS_NODE_POS_CALC05 "76.3294"
*CORR_POS_NODE_POS_CALC06 "87.9853"
*CORR_POS_NODE_POS_CALC07 "94.9091"
*CORR_POS_NODE_POS_CALC08 "106.668"
*CORR_POS_NODE_POS_CALC09 "114.054"
*CORR_POS_NODE_POS_CALC10 "127.511"
*CORR_POS_NODE_POS_CALC11 "136.864"
*CORR_POS_NODE_POS_MEAS01 "28.5058"
*CORR_POS_NODE_POS_MEAS02 "47.345"
*CORR_POS_NODE_POS_MEAS03 "56.1421"
*CORR_POS_NODE_POS_MEAS04 "69.1304"
*CORR_POS_NODE_POS_MEAS05 "76.366"
*CORR_POS_NODE_POS_MEAS06 "88.0213"
*CORR_POS_NODE_POS_MEAS07 "94.9406"
*CORR_POS_NODE_POS_MEAS08 "106.689"
*CORR_POS_NODE_POS_MEAS09 "114.065"
*CORR_POS_NODE_POS_MEAS10 "127.518"
*CORR_POS_NODE_POS_MEAS11 "136.869"
*CORR_POS_OPT_ATTR "集中法"
*CORR_POS_PARAM_MU ""
*CORR_POS_PARAM_PL ""
*CORR_POS_SEMODEL_TYPE "0"
*CORR_POS_STANDARD_TYPE ""
*CORR_POS_VALUE_ANALYZER "None"
*CORR_POS_VALUE_CMONO "None"
*CORR_POS_VALUE_IMONO "None"
*CORR_POS_VALUE_IS "1.250deg"
*CORR_POS_VALUE_ISL "10.0mm"
*CORR_POS_VALUE_ISOLLER "5.0deg"
*CORR_POS_VALUE_RS1 "1.250deg"
*CORR_POS_VALUE_RS2 "0.3mm"
*CORR_POS_VALUE_RSOLLER "5.0deg"
*CORR_POS_XG_FOCUS_L ""
*CORR_POS_XG_WAVE_TYPE ""
*CORR_POS_XG_WAVE_VALUE ""
*DISP_FMT_X "%.2f"
*DISP_FMT_Y "%.0f"
*DISP_FULLSCALE "6205.8000000000"
*DISP_LINE_COLOR "255.0000000000"
*DISP_LINE_STYLE "0.0000000000"
*DISP_LINE_WIDTH "0.2500000000"
*DISP_NOTE "Collected Data-5"
*DISP_OFFSET_Y "0.0000000000"
*DISP_PEAKSEARCH_UNIT_Y "CPS"
*DISP_RANGE_BOTTOM "0.0000000000"
*DISP_RANGE_LEFT "5.0000000000"
*DISP_RANGE_LOGCUTOFF "0.0100000000"
*DISP_RANGE_RIGHT "65.0000000000"
*DISP_RANGE_TOP "6205.8000000000"
*DISP_SCALE_MODE_Y "0.0000000000"
*DISP_TAB_NAME "Theta/2-Theta"
*DISP_TITLE_Y "Intensity"
*DISP_UNIT_Y "CPS"
*DISP_WINDOW_NAME "MSG_MACROENGINE"
*FILE_COMMENT " "
*FILE_MD5 ""
*FILE_MEMO " "
*FILE_OPERATOR "Administrator"
*FILE_PART_ID "MEAS_PBEA_00223"
*FILE_SAMPLE " "
*FILE_TYPE "RAS_RAW"
*FILE_USERGROUP "System Manager"
*FILE_VERSION "1.0000000000"
*HW_ATTACHMENT_ID "ATT1031"
*HW_ATTACHMENT_NAME "6サンプルチェンジャ|ASC-6"
*HW_COUNTER_ID-0 "CUT0021"
*HW_COUNTER_ID-1 "CUT0020"
*HW_COUNTER_ID-2 "CUT0020"
*HW_COUNTER_ID-3 "CMC0021"
*HW_COUNTER_NAME-0 "SC-70|SC-70"
*HW_COUNTER_NAME-1 "None|None"
*HW_COUNTER_NAME-2 "None|None"
*HW_COUNTER_NAME-3 "検出器モノクロメータ|Detector monochromator"
*HW_COUNTER_SELECT_NAME "SC-70|SC-70"
*HW_ECP_HV "671.5000000000"
*HW_ECP_HV_UNIT "V"
*HW_GONIOMETER_ID "GON0070"
*HW_GONIOMETER_NAME "MiniFlex 300/600|MiniFlex 300/600"
*HW_GONIOMETER_RADIUS-0 "79.0"
*HW_GONIOMETER_RADIUS-1 "91.5"
*HW_GONIOMETER_RADIUS-2 "150.0"
*HW_GONIOMETER_RADIUS-3 "0"
*HW_GONIOMETER_RADIUS-4 "103.4"
*HW_GONIOMETER_RADIUS-5 "150.0"
*HW_GONIOMETER_RADIUS-6 "46.6"
*HW_GONIOMETER_RADIUS-7 "160.0"
*HW_I_OPT_ID-0 "ISL0021"
*HW_I_OPT_ID-1 "ISO0021"
*HW_I_OPT_NAME-0 "発散スリット|Divergence slit"
*HW_I_OPT_NAME-1 "入射平行スリット|Incident parallel slit"
*HW_R_ATTENUATER_AUTOMODE "0"
*HW_R_OPT_ID-0 "RSS0021"
*HW_R_OPT_ID-1 "RSO0021"
*HW_R_OPT_ID-2 "RRS0021"
*HW_R_OPT_NAME-0 "散乱スリット|Scattering slit"
*HW_R_OPT_NAME-1 "受光平行スリット|Receiving soller slit"
*HW_R_OPT_NAME-2 "受光スリット|Receiving slit"
*HW_SAMPLE_HOLDER_ID "SMP0000"
*HW_SAMPLE_HOLDER_NAME "無し|None"
*HW_XG_CURRENT_MAX "15"
*HW_XG_CURRENT_MIN "2"
*HW_XG_CURRENT_RESOLUTION "1"
*HW_XG_CURRENT_UNIT "mA"
*HW_XG_FOCUS "1mm x 10mm"
*HW_XG_FOCUS_TYPE "Normal"
*HW_XG_ID "1060"
*HW_XG_NAME "300W/600W 封入管-B|300W/600W Sealed tube-B"
*HW_XG_TARGET_ATOMIC_NUMBER "29.0000000000"
*HW_XG_TARGET_NAME "Cu"
*HW_XG_TYPE "Hermetic"
*HW_XG_VOLTAGE_MAX "40"
*HW_XG_VOLTAGE_MIN "20"
*HW_XG_VOLTAGE_RESOLUTION "1"
*HW_XG_VOLTAGE_UNIT "kV"
*HW_XG_WATT_MAX "0.600"
*HW_XG_WATT_UNIT "kW"
*HW_XG_WAVE_LENGTH_ALPHA1 "1.540593"
*HW_XG_WAVE_LENGTH_ALPHA2 "1.544414"
*HW_XG_WAVE_LENGTH_BETA "1.392250"
*MEAS_COND_AXIS_NAME-0 "Theta/2-Theta"
*MEAS_COND_AXIS_NAME-1 "Spin"
*MEAS_COND_AXIS_NAME-2 "Change"
*MEAS_COND_AXIS_NAME-3 "Soller(inc.)"
*MEAS_COND_AXIS_NAME-4 "IHS"
*MEAS_COND_AXIS_NAME-5 "DS"
*MEAS_COND_AXIS_NAME-6 "SS"
*MEAS_COND_AXIS_NAME-7 "Soller(rec.)"
*MEAS_COND_AXIS_NAME-8 "RS"
*MEAS_COND_AXIS_NAME-9 "Filter"
*MEAS_COND_AXIS_NAME-10 "Monochromator"
*MEAS_COND_AXIS_NAME-11 "HV"
*MEAS_COND_AXIS_NAME-12 "PHA"
*MEAS_COND_AXIS_NAME_INTERNAL-0 "TwoThetaTheta"
*MEAS_COND_AXIS_NAME_INTERNAL-1 "Spin"
*MEAS_COND_AXIS_NAME_INTERNAL-2 "Change"
*MEAS_COND_AXIS_NAME_INTERNAL-3 "IncidentSollerSlit"
*MEAS_COND_AXIS_NAME_INTERNAL-4 "IncidentAxdSlit"
*MEAS_COND_AXIS_NAME_INTERNAL-5 "IncidentSlitBox"
*MEAS_COND_AXIS_NAME_INTERNAL-6 "ReceivingSlitBox1"
*MEAS_COND_AXIS_NAME_INTERNAL-7 "ReceivingSollerSlit"
*MEAS_COND_AXIS_NAME_INTERNAL-8 "ReceivingSlitBox2"
*MEAS_COND_AXIS_NAME_INTERNAL-9 "Filter"
*MEAS_COND_AXIS_NAME_INTERNAL-10 "CounterMonochromator"
*MEAS_COND_AXIS_NAME_INTERNAL-11 "HV"
*MEAS_COND_AXIS_NAME_INTERNAL-12 "PHA"
*MEAS_COND_AXIS_NAME_MAGICNO-0 "268632064.0000000000"
*MEAS_COND_AXIS_NAME_MAGICNO-1 "16842752.0000000000"
*MEAS_COND_AXIS_NAME_MAGICNO-2 "16842752.0000000000"
*MEAS_COND_AXIS_NAME_MAGICNO-3 "20971521.0000000000"
*MEAS_COND_AXIS_NAME_MAGICNO-4 "22020097.0000000000"
*MEAS_COND_AXIS_NAME_MAGICNO-5 "22020097.0000000000"
*MEAS_COND_AXIS_NAME_MAGICNO-6 "23068673.0000000000"
*MEAS_COND_AXIS_NAME_MAGICNO-7 "20971521.0000000000"
*MEAS_COND_AXIS_NAME_MAGICNO-8 "23068673.0000000000"
*MEAS_COND_AXIS_NAME_MAGICNO-9 "20971521.0000000000"
*MEAS_COND_AXIS_NAME_MAGICNO-10 "20971521.0000000000"
*MEAS_COND_AXIS_NAME_MAGICNO-11 "0.0000000000"
*MEAS_COND_AXIS_NAME_MAGICNO-12 "0.0000000000"
*MEAS_COND_AXIS_OFFSET-0 "0.0000000000"
*MEAS_COND_AXIS_OFFSET-1 "-"
*MEAS_COND_AXIS_OFFSET-2 "-"
*MEAS_COND_AXIS_OFFSET-3 "-"
*MEAS_COND_AXIS_OFFSET-4 "-"
*MEAS_COND_AXIS_OFFSET-5 "-"
*MEAS_COND_AXIS_OFFSET-6 "-"
*MEAS_COND_AXIS_OFFSET-7 "-"
*MEAS_COND_AXIS_OFFSET-8 "-"
*MEAS_COND_AXIS_OFFSET-9 "-"
*MEAS_COND_AXIS_OFFSET-10 "-"
*MEAS_COND_AXIS_OFFSET-11 "-"
*MEAS_COND_AXIS_OFFSET-12 "-"
*MEAS_COND_AXIS_POSITION-0 "65.0000000000"
*MEAS_COND_AXIS_POSITION-1 "0.0000000000"
*MEAS_COND_AXIS_POSITION-2 "5.0000000000"
*MEAS_COND_AXIS_POSITION-3 "5.0deg"
*MEAS_COND_AXIS_POSITION-4 "10.0mm"
*MEAS_COND_AXIS_POSITION-5 "1.250deg"
*MEAS_COND_AXIS_POSITION-6 "1.250deg"
*MEAS_COND_AXIS_POSITION-7 "5.0deg"
*MEAS_COND_AXIS_POSITION-8 "0.3mm"
*MEAS_COND_AXIS_POSITION-9 "None"
*MEAS_COND_AXIS_POSITION-10 "Bent"
*MEAS_COND_AXIS_POSITION-11 "671.5000000000"
*MEAS_COND_AXIS_POSITION-12 "551.2500000000"
*MEAS_COND_AXIS_UNIT-0 "deg"
*MEAS_COND_AXIS_UNIT-1 ""
*MEAS_COND_AXIS_UNIT-2 ""
*MEAS_COND_AXIS_UNIT-3 ""
*MEAS_COND_AXIS_UNIT-4 ""
*MEAS_COND_AXIS_UNIT-5 ""
*MEAS_COND_AXIS_UNIT-6 ""
*MEAS_COND_AXIS_UNIT-7 ""
*MEAS_COND_AXIS_UNIT-8 ""
*MEAS_COND_AXIS_UNIT-9 ""
*MEAS_COND_AXIS_UNIT-10 ""
*MEAS_COND_AXIS_UNIT-11 "V"
*MEAS_COND_AXIS_UNIT-12 "mV"
*MEAS_COND_CORRECTION_SLIT_COUNTERMONO "None"
*MEAS_COND_CORRECTION_SLIT_DS "1.250deg"
*MEAS_COND_CORRECTION_SLIT_FILTER "None"
*MEAS_COND_CORRECTION_SLIT_IHS "10.0mm"
*MEAS_COND_CORRECTION_SLIT_RS "0.3mm"
*MEAS_COND_CORRECTION_SLIT_SOLLER_INC "5.0deg"
*MEAS_COND_CORRECTION_SLIT_SOLLER_REC "5.0deg"
*MEAS_COND_CORRECTION_SLIT_SS "1.250deg"
*MEAS_COND_COUNTER_CNTLOSS_CORR "0.0000000000"
*MEAS_COND_COUNTER_PHABASE "551.2500000000"
*MEAS_COND_COUNTER_PHAWINDOW "926.2500000000"
*MEAS_COND_COUNTER_PHA_UNIT "mV"
*MEAS_COND_COUNTER_TAUDIFF "0.2500000000"
*MEAS_COND_COUNTER_TAUINT "0.7500000000"
*MEAS_COND_IRRADIATION_MODE "OFF"
*MEAS_COND_IRRADIATION_WIDTH ""
*MEAS_COND_OPT_ATTR " "
*MEAS_COND_OPT_NAME ""
*MEAS_COND_UNSYMMETRIC_MODE "OFF"
*MEAS_COND_XG_CURRENT "15.0000000000"
*MEAS_COND_XG_VOLTAGE "40.0000000000"
*MEAS_COND_XG_WAVE_TYPE "Ka"
*MEAS_DATA_COUNT "3001.0000000000"
*MEAS_SCAN_AXIS_X "Theta/2-Theta"
*MEAS_SCAN_AXIS_X_INTERNAL "TwoThetaTheta"
*MEAS_SCAN_END_TIME "03/01/25 03:34:20"
*MEAS_SCAN_MODE "STEP"
*MEAS_SCAN_MONITOR "0"
*MEAS_SCAN_RESOLUTION_X "0.0025"
*MEAS_SCAN_SPEED "2.00"
*MEAS_SCAN_SPEED_UNIT "sec."
*MEAS_SCAN_SPEED_USER "2.00"
*MEAS_SCAN_START "5.0000000000"
*MEAS_SCAN_START_TIME "03/01/25 01:49:04"
*MEAS_SCAN_STEP "0.0200000000"
*MEAS_SCAN_STOP "65.0000000000"
*MEAS_SCAN_UNIT_X "deg"
*MEAS_SCAN_UNIT_Y "counts"
*SLIT_SYSTEM "0"
*RAS_HEADER_END
*RAS_INT_START
5.0000 1027.0000 1.0000
5.0200 989.0000 1.0000
5.0400 926.0000 1.0000
5.0600 945.0000 1.0000
5.0800 930.0000 1.0000
5.1000 827.0000 1.0000
5.1200 890.0000 1.0000
5.1400 985.0000 1.0000
5.1600 992.0000 1.0000
5.1800 963.0000 1.0000
5.2000 862.0000 1.0000
5.2200 923.0000 1.0000
5.2400 862.0000 1.0000
5.2600 877.0000 1.0000
5.2800 810.0000 1.0000
5.3000 874.0000 1.0000
5.3200 790.0000 1.0000
5.3400 759.0000 1.0000
5.3600 878.0000 1.0000
5.3800 819.0000 1.0000
5.4000 833.0000 1.0000
5.4200 834.0000 1.0000
5.4400 834.0000 1.0000
5.4600 869.0000 1.0000
5.4800 893.0000 1.0000
5.5000 808.0000 1.0000
5.5200 788.0000 1.0000
5.5400 772.0000 1.0000
5.5600 715.0000 1.0000
5.5800 743.0000 1.0000
5.6000 737.0000 1.0000
5.6200 841.0000 1.0000
5.6400 795.0000 1.0000
5.6600 775.0000 1.0000
5.6800 759.0000 1.0000
5.7000 754.0000 1.0000
5.7200 793.0000 1.0000
5.7400 768.0000 1.0000
5.7600 739.0000 1.0000
5.7800 830.0000 1.0000
5.8000 827.0000 1.0000
5.8200 841.0000 1.0000
5.8400 758.0000 1.0000
5.8600 765.0000 1.0000
5.8800 784.0000 1.0000
5.9000 801.0000 1.0000
5.9200 811.0000 1.0000
5.9400 821.0000 1.0000
5.9600 802.0000 1.0000
5.9800 740.0000 1.0000
6.0000 741.0000 1.0000
6.0200 754.0000 1.0000
6.0400 736.0000 1.0000
6.0600 746.0000 1.0000
6.0800 796.0000 1.0000
6.1000 772.0000 1.0000
6.1200 754.0000 1.0000
6.1400 730.0000 1.0000
6.1600 755.0000 1.0000
6.1800 792.0000 1.0000
6.2000 762.0000 1.0000
6.2200 775.0000 1.0000
6.2400 724.0000 1.0000
6.2600 713.0000 1.0000
6.2800 684.0000 1.0000
6.3000 700.0000 1.0000
6.3200 709.0000 1.0000
6.3400 686.0000 1.0000
6.3600 646.0000 1.0000
6.3800 659.0000 1.0000
6.4000 645.0000 1.0000
6.4200 614.0000 1.0000
6.4400 624.0000 1.0000
6.4600 645.0000 1.0000
6.4800 646.0000 1.0000
6.5000 592.0000 1.0000
6.5200 610.0000 1.0000
6.5400 634.0000 1.0000
6.5600 675.0000 1.0000
6.5800 627.0000 1.0000
6.6000 603.0000 1.0000
6.6200 612.0000 1.0000
6.6400 596.0000 1.0000
6.6600 617.0000 1.0000
6.6800 604.0000 1.0000
6.7000 563.0000 1.0000
6.7200 564.0000 1.0000
6.7400 587.0000 1.0000
6.7600 577.0000 1.0000
6.7800 579.0000 1.0000
6.8000 599.0000 1.0000
6.8200 624.0000 1.0000
6.8400 603.0000 1.0000
6.8600 542.0000 1.0000
6.8800 554.0000 1.0000
6.9000 555.0000 1.0000
6.9200 572.0000 1.0000
6.9400 608.0000 1.0000
6.9600 574.0000 1.0000
6.9800 543.0000 1.0000
7.0000 531.0000 1.0000
7.0200 529.0000 1.0000
7.0400 515.0000 1.0000
7.0600 511.0000 1.0000
7.0800 538.0000 1.0000
7.1000 539.0000 1.0000
7.1200 504.0000 1.0000
7.1400 515.0000 1.0000
7.1600 530.0000 1.0000
7.1800 528.0000 1.0000
7.2000 503.0000 1.0000
7.2200 515.0000 1.0000
7.2400 526.0000 1.0000
7.2600 484.0000 1.0000
7.2800 493.0000 1.0000
7.3000 484.0000 1.0000
7.3200 472.0000 1.0000
7.3400 481.0000 1.0000
7.3600 503.0000 1.0000
7.3800 496.0000 1.0000
7.4000 464.0000 1.0000
7.4200 476.0000 1.0000
7.4400 507.0000 1.0000
7.4600 468.0000 1.0000
7.4800 467.0000 1.0000
7.5000 516.0000 1.0000
7.5200 502.0000 1.0000
7.5400 496.0000 1.0000
7.5600 514.0000 1.0000
7.5800 542.0000 1.0000
7.6000 521.0000 1.0000
7.6200 490.0000 1.0000
7.6400 501.0000 1.0000
7.6600 458.0000 1.0000
7.6800 467.0000 1.0000
7.7000 529.0000 1.0000
7.7200 508.0000 1.0000
7.7400 485.0000 1.0000
7.7600 496.0000 1.0000
7.7800 463.0000 1.0000
7.8000 460.0000 1.0000
7.8200 468.0000 1.0000
7.8400 493.0000 1.0000
7.8600 547.0000 1.0000
7.8800 488.0000 1.0000
7.9000 492.0000 1.0000
7.9200 533.0000 1.0000
7.9400 501.0000 1.0000
7.9600 516.0000 1.0000
7.9800 543.0000 1.0000
8.0000 514.0000 1.0000
8.0200 524.0000 1.0000
8.0400 521.0000 1.0000
8.0600 542.0000 1.0000
8.0800 546.0000 1.0000
8.1000 519.0000 1.0000
8.1200 529.0000 1.0000
8.1400 572.0000 1.0000
8.1600 561.0000 1.0000
8.1800 562.0000 1.0000
8.2000 565.0000 1.0000
8.2200 570.0000 1.0000
8.2400 578.0000 1.0000
8.2600 575.0000 1.0000
8.2800 593.0000 1.0000
8.3000 594.0000 1.0000
8.3200 620.0000 1.0000
8.3400 614.0000 1.0000
8.3600 630.0000 1.0000
8.3800 671.0000 1.0000
8.4000 647.0000 1.0000
8.4200 663.0000 1.0000
8.4400 739.0000 1.0000
8.4600 680.0000 1.0000
8.4800 692.0000 1.0000
8.5000 725.0000 1.0000
8.5200 702.0000 1.0000
8.5400 729.0000 1.0000
8.5600 790.0000 1.0000
8.5800 801.0000 1.0000
8.6000 819.0000 1.0000
8.6200 817.0000 1.0000
8.6400 787.0000 1.0000
8.6600 820.0000 1.0000
8.6800 842.0000 1.0000
8.7000 799.0000 1.0000
8.7200 797.0000 1.0000
8.7400 774.0000 1.0000
8.7600 685.0000 1.0000
8.7800 645.0000 1.0000
8.8000 601.0000 1.0000
8.8200 587.0000 1.0000
8.8400 516.0000 1.0000
8.8600 502.0000 1.0000
8.8800 503.0000 1.0000
8.9000 493.0000 1.0000
8.9200 494.0000 1.0000
8.9400 489.0000 1.0000
8.9600 503.0000 1.0000
8.9800 458.0000 1.0000
9.0000 488.0000 1.0000
9.0200 501.0000 1.0000
9.0400 486.0000 1.0000
9.0600 565.0000 1.0000
9.0800 521.0000 1.0000
9.1000 575.0000 1.0000
9.1200 652.0000 1.0000
9.1400 673.0000 1.0000
9.1600 728.0000 1.0000
9.1800 879.0000 1.0000
9.2000 877.0000 1.0000
9.2200 896.0000 1.0000
9.2400 793.0000 1.0000
9.2600 763.0000 1.0000
9.2800 568.0000 1.0000
9.3000 464.0000 1.0000
9.3200 381.0000 1.0000
9.3400 346.0000 1.0000
9.3600 317.0000 1.0000
9.3800 277.0000 1.0000
9.4000 274.0000 1.0000
9.4200 256.0000 1.0000
9.4400 295.0000 1.0000
9.4600 288.0000 1.0000
9.4800 284.0000 1.0000
9.5000 248.0000 1.0000
9.5200 263.0000 1.0000
9.5400 231.0000 1.0000
9.5600 278.0000 1.0000
9.5800 234.0000 1.0000
9.6000 271.0000 1.0000
9.6200 258.0000 1.0000
9.6400 277.0000 1.0000
9.6600 279.0000 1.0000
9.6800 270.0000 1.0000
9.7000 270.0000 1.0000
9.7200 250.0000 1.0000
9.7400 246.0000 1.0000
9.7600 255.0000 1.0000
9.7800 226.0000 1.0000
9.8000 250.0000 1.0000
9.8200 246.0000 1.0000
9.8400 260.0000 1.0000
9.8600 252.0000 1.0000
9.8800 212.0000 1.0000
9.9000 219.0000 1.0000
9.9200 222.0000 1.0000
9.9400 239.0000 1.0000
9.9600 180.0000 1.0000
9.9800 227.0000 1.0000
10.0000 219.0000 1.0000
10.0200 226.0000 1.0000
10.0400 227.0000 1.0000
10.0600 184.0000 1.0000
10.0800 247.0000 1.0000
10.1000 254.0000 1.0000
10.1200 229.0000 1.0000
10.1400 214.0000 1.0000
10.1600 204.0000 1.0000
10.1800 231.0000 1.0000
10.2000 224.0000 1.0000
10.2200 252.0000 1.0000
10.2400 210.0000 1.0000
10.2600 295.0000 1.0000
10.2800 204.0000 1.0000
10.3000 221.0000 1.0000
10.3200 208.0000 1.0000
10.3400 193.0000 1.0000
10.3600 227.0000 1.0000
10.3800 238.0000 1.0000
10.4000 230.0000 1.0000
10.4200 208.0000 1.0000
10.4400 199.0000 1.0000
10.4600 181.0000 1.0000
10.4800 198.0000 1.0000
10.5000 182.0000 1.0000
10.5200 176.0000 1.0000
10.5400 216.0000 1.0000
10.5600 214.0000 1.0000
10.5800 203.0000 1.0000
10.6000 152.0000 1.0000
10.6200 218.0000 1.0000
10.6400 209.0000 1.0000
10.6600 195.0000 1.0000
10.6800 203.0000 1.0000
10.7000 255.0000 1.0000
10.7200 220.0000 1.0000
10.7400 172.0000 1.0000
10.7600 214.0000 1.0000
10.7800 206.0000 1.0000
10.8000 187.0000 1.0000
10.8200 183.0000 1.0000
10.8400 167.0000 1.0000
10.8600 205.0000 1.0000
10.8800 196.0000 1.0000
10.9000 175.0000 1.0000
10.9200 185.0000 1.0000
10.9400 157.0000 1.0000
10.9600 200.0000 1.0000
10.9800 186.0000 1.0000
11.0000 192.0000 1.0000
11.0200 188.0000 1.0000
11.0400 171.0000 1.0000
11.0600 181.0000 1.0000
11.0800 187.0000 1.0000
11.1000 189.0000 1.0000
11.1200 208.0000 1.0000
11.1400 163.0000 1.0000
11.1600 168.0000 1.0000
11.1800 187.0000 1.0000
11.2000 202.0000 1.0000
11.2200 217.0000 1.0000
11.2400 185.0000 1.0000
11.2600 166.0000 1.0000
11.2800 162.0000 1.0000
11.3000 172.0000 1.0000
11.3200 188.0000 1.0000
11.3400 160.0000 1.0000
11.3600 181.0000 1.0000
11.3800 169.0000 1.0000
11.4000 194.0000 1.0000
11.4200 183.0000 1.0000
11.4400 199.0000 1.0000
11.4600 193.0000 1.0000
11.4800 184.0000 1.0000
11.5000 177.0000 1.0000
11.5200 193.0000 1.0000
11.5400 165.0000 1.0000
11.5600 183.0000 1.0000
11.5800 171.0000 1.0000
11.6000 150.0000 1.0000
11.6200 169.0000 1.0000
11.6400 188.0000 1.0000
11.6600 173.0000 1.0000
11.6800 192.0000 1.0000
11.7000 163.0000 1.0000
11.7200 158.0000 1.0000
11.7400 170.0000 1.0000
11.7600 189.0000 1.0000
11.7800 205.0000 1.0000
11.8000 217.0000 1.0000
11.8200 176.0000 1.0000
11.8400 199.0000 1.0000
11.8600 197.0000 1.0000
11.8800 211.0000 1.0000
11.9000 215.0000 1.0000
11.9200 193.0000 1.0000
11.9400 210.0000 1.0000
11.9600 244.0000 1.0000
11.9800 209.0000 1.0000
12.0000 206.0000 1.0000
12.0200 219.0000 1.0000
12.0400 242.0000 1.0000
12.0600 236.0000 1.0000
12.0800 262.0000 1.0000
12.1000 263.0000 1.0000
12.1200 255.0000 1.0000
12.1400 287.0000 1.0000
12.1600 278.0000 1.0000
12.1800 293.0000 1.0000
12.2000 300.0000 1.0000
12.2200 337.0000 1.0000
12.2400 377.0000 1.0000
12.2600 384.0000 1.0000
12.2800 396.0000 1.0000
12.3000 427.0000 1.0000
12.3200 475.0000 1.0000
12.3400 474.0000 1.0000
12.3600 480.0000 1.0000
12.3800 483.0000 1.0000
12.4000 457.0000 1.0000
12.4200 417.0000 1.0000
12.4400 395.0000 1.0000
12.4600 389.0000 1.0000
12.4800 346.0000 1.0000
12.5000 287.0000 1.0000
12.5200 244.0000 1.0000
12.5400 260.0000 1.0000
12.5600 264.0000 1.0000
12.5800 257.0000 1.0000
12.6000 238.0000 1.0000
12.6200 249.0000 1.0000
12.6400 234.0000 1.0000
12.6600 239.0000 1.0000
12.6800 224.0000 1.0000
12.7000 253.0000 1.0000
12.7200 281.0000 1.0000
12.7400 298.0000 1.0000
12.7600 325.0000 1.0000
12.7800 326.0000 1.0000
12.8000 354.0000 1.0000
12.8200 352.0000 1.0000
12.8400 354.0000 1.0000
12.8600 335.0000 1.0000
12.8800 292.0000 1.0000
12.9000 254.0000 1.0000
12.9200 230.0000 1.0000
12.9400 191.0000 1.0000
12.9600 192.0000 1.0000
12.9800 193.0000 1.0000
13.0000 171.0000 1.0000
13.0200 172.0000 1.0000
13.0400 169.0000 1.0000
13.0600 188.0000 1.0000
13.0800 177.0000 1.0000
13.1000 193.0000 1.0000
13.1200 177.0000 1.0000
13.1400 172.0000 1.0000
13.1600 176.0000 1.0000
13.1800 168.0000 1.0000
13.2000 173.0000 1.0000
13.2200 178.0000 1.0000
13.2400 181.0000 1.0000
13.2600 181.0000 1.0000
13.2800 185.0000 1.0000
13.3000 207.0000 1.0000
13.3200 195.0000 1.0000
13.3400 196.0000 1.0000
13.3600 193.0000 1.0000
13.3800 194.0000 1.0000
13.4000 218.0000 1.0000
13.4200 212.0000 1.0000
13.4400 242.0000 1.0000
13.4600 238.0000 1.0000
13.4800 251.0000 1.0000
13.5000 272.0000 1.0000
13.5200 256.0000 1.0000
13.5400 250.0000 1.0000
13.5600 247.0000 1.0000
13.5800 255.0000 1.0000
13.6000 252.0000 1.0000
13.6200 234.0000 1.0000
13.6400 239.0000 1.0000
13.6600 266.0000 1.0000
13.6800 308.0000 1.0000
13.7000 298.0000 1.0000
13.7200 307.0000 1.0000
13.7400 311.0000 1.0000
13.7600 303.0000 1.0000
13.7800 281.0000 1.0000
13.8000 252.0000 1.0000
13.8200 229.0000 1.0000
13.8400 218.0000 1.0000
13.8600 204.0000 1.0000
13.8800 173.0000 1.0000
13.9000 158.0000 1.0000
13.9200 160.0000 1.0000
13.9400 160.0000 1.0000
13.9600 158.0000 1.0000
13.9800 159.0000 1.0000
14.0000 144.0000 1.0000
14.0200 132.0000 1.0000
14.0400 148.0000 1.0000
14.0600 156.0000 1.0000
14.0800 144.0000 1.0000
14.1000 149.0000 1.0000
14.1200 150.0000 1.0000
14.1400 163.0000 1.0000
14.1600 168.0000 1.0000
14.1800 161.0000 1.0000
14.2000 165.0000 1.0000
14.2200 166.0000 1.0000
14.2400 143.0000 1.0000
14.2600 126.0000 1.0000
14.2800 115.0000 1.0000
14.3000 126.0000 1.0000
14.3200 129.0000 1.0000
14.3400 133.0000 1.0000
14.3600 139.0000 1.0000
14.3800 122.0000 1.0000
14.4000 117.0000 1.0000
14.4200 109.0000 1.0000
14.4400 119.0000 1.0000
14.4600 139.0000 1.0000
14.4800 131.0000 1.0000
14.5000 129.0000 1.0000
14.5200 137.0000 1.0000
14.5400 130.0000 1.0000
14.5600 136.0000 1.0000
14.5800 141.0000 1.0000
14.6000 128.0000 1.0000
14.6200 119.0000 1.0000
14.6400 134.0000 1.0000
14.6600 158.0000 1.0000
14.6800 142.0000 1.0000
14.7000 120.0000 1.0000
14.7200 135.0000 1.0000
14.7400 131.0000 1.0000
14.7600 128.0000 1.0000
14.7800 149.0000 1.0000
14.8000 161.0000 1.0000
14.8200 163.0000 1.0000
14.8400 172.0000 1.0000
14.8600 173.0000 1.0000
14.8800 174.0000 1.0000
14.9000 175.0000 1.0000
14.9200 173.0000 1.0000
14.9400 183.0000 1.0000
14.9600 161.0000 1.0000
14.9800 150.0000 1.0000
15.0000 160.0000 1.0000
15.0200 153.0000 1.0000
15.0400 159.0000 1.0000
15.0600 150.0000 1.0000
15.0800 123.0000 1.0000
15.1000 123.0000 1.0000
15.1200 134.0000 1.0000
15.1400 132.0000 1.0000
15.1600 124.0000 1.0000
15.1800 113.0000 1.0000
15.2000 116.0000 1.0000
15.2200 132.0000 1.0000
15.2400 135.0000 1.0000
15.2600 124.0000 1.0000
15.2800 113.0000 1.0000
15.3000 117.0000 1.0000
15.3200 128.0000 1.0000
15.3400 135.0000 1.0000
15.3600 129.0000 1.0000
15.3800 123.0000 1.0000
15.4000 125.0000 1.0000
15.4200 126.0000 1.0000
15.4400 127.0000 1.0000
15.4600 117.0000 1.0000
15.4800 115.0000 1.0000
15.5000 126.0000 1.0000
15.5200 132.0000 1.0000
15.5400 134.0000 1.0000
15.5600 125.0000 1.0000
15.5800 107.0000 1.0000
15.6000 115.0000 1.0000
15.6200 123.0000 1.0000
15.6400 116.0000 1.0000
15.6600 114.0000 1.0000
15.6800 123.0000 1.0000
15.7000 132.0000 1.0000
15.7200 131.0000 1.0000
15.7400 131.0000 1.0000
15.7600 137.0000 1.0000
15.7800 142.0000 1.0000
15.8000 153.0000 1.0000
15.8200 148.0000 1.0000
15.8400 132.0000 1.0000
15.8600 126.0000 1.0000
15.8800 124.0000 1.0000
15.9000 113.0000 1.0000
15.9200 112.0000 1.0000
15.9400 119.0000 1.0000
15.9600 120.0000 1.0000
15.9800 120.0000 1.0000
16.0000 124.0000 1.0000
16.0200 132.0000 1.0000
16.0400 127.0000 1.0000
16.0600 125.0000 1.0000
16.0800 129.0000 1.0000
16.1000 112.0000 1.0000
16.1200 103.0000 1.0000
16.1400 102.0000 1.0000
16.1600 108.0000 1.0000
16.1800 115.0000 1.0000
16.2000 124.0000 1.0000
16.2200 120.0000 1.0000
16.2400 118.0000 1.0000
16.2600 123.0000 1.0000
16.2800 115.0000 1.0000
16.3000 111.0000 1.0000
16.3200 119.0000 1.0000
16.3400 117.0000 1.0000
16.3600 109.0000 1.0000
16.3800 122.0000 1.0000
16.4000 133.0000 1.0000
16.4200 130.0000 1.0000
16.4400 116.0000 1.0000
16.4600 114.0000 1.0000
16.4800 123.0000 1.0000
16.5000 129.0000 1.0000
16.5200 126.0000 1.0000
16.5400 125.0000 1.0000
16.5600 121.0000 1.0000
16.5800 129.0000 1.0000
16.6000 121.0000 1.0000
16.6200 113.0000 1.0000
16.6400 111.0000 1.0000
16.6600 111.0000 1.0000
16.6800 118.0000 1.0000
16.7000 128.0000 1.0000
16.7200 138.0000 1.0000
16.7400 116.0000 1.0000
16.7600 112.0000 1.0000
16.7800 119.0000 1.0000
16.8000 117.0000 1.0000
16.8200 120.0000 1.0000
16.8400 117.0000 1.0000
16.8600 112.0000 1.0000
16.8800 118.0000 1.0000
16.9000 131.0000 1.0000
16.9200 126.0000 1.0000
16.9400 127.0000 1.0000
16.9600 129.0000 1.0000
16.9800 124.0000 1.0000
17.0000 109.0000 1.0000
17.0200 118.0000 1.0000
17.0400 124.0000 1.0000
17.0600 136.0000 1.0000
17.0800 139.0000 1.0000
17.1000 139.0000 1.0000
17.1200 132.0000 1.0000
17.1400 122.0000 1.0000
17.1600 128.0000 1.0000
17.1800 132.0000 1.0000
17.2000 134.0000 1.0000
17.2200 144.0000 1.0000
17.2400 151.0000 1.0000
17.2600 155.0000 1.0000
17.2800 165.0000 1.0000
17.3000 158.0000 1.0000
17.3200 181.0000 1.0000
17.3400 189.0000 1.0000
17.3600 187.0000 1.0000
17.3800 175.0000 1.0000
17.4000 182.0000 1.0000
17.4200 205.0000 1.0000
17.4400 214.0000 1.0000
17.4600 220.0000 1.0000
17.4800 210.0000 1.0000
17.5000 221.0000 1.0000
17.5200 221.0000 1.0000
17.5400 203.0000 1.0000
17.5600 213.0000 1.0000
17.5800 196.0000 1.0000
17.6000 197.0000 1.0000
17.6200 195.0000 1.0000
17.6400 182.0000 1.0000
17.6600 201.0000 1.0000
17.6800 188.0000 1.0000
17.7000 185.0000 1.0000
17.7200 186.0000 1.0000
17.7400 202.0000 1.0000
17.7600 163.0000 1.0000
17.7800 157.0000 1.0000
17.8000 158.0000 1.0000
17.8200 151.0000 1.0000
17.8400 175.0000 1.0000
17.8600 159.0000 1.0000
17.8800 162.0000 1.0000
17.9000 156.0000 1.0000
17.9200 157.0000 1.0000
17.9400 137.0000 1.0000
17.9600 160.0000 1.0000
17.9800 161.0000 1.0000
18.0000 148.0000 1.0000
18.0200 139.0000 1.0000
18.0400 141.0000 1.0000
18.0600 134.0000 1.0000
18.0800 123.0000 1.0000
18.1000 135.0000 1.0000
18.1200 126.0000 1.0000
18.1400 126.0000 1.0000
18.1600 122.0000 1.0000
18.1800 134.0000 1.0000
18.2000 137.0000 1.0000
18.2200 126.0000 1.0000
18.2400 130.0000 1.0000
18.2600 139.0000 1.0000
18.2800 133.0000 1.0000
18.3000 122.0000 1.0000
18.3200 135.0000 1.0000
18.3400 147.0000 1.0000
18.3600 138.0000 1.0000
18.3800 145.0000 1.0000
18.4000 124.0000 1.0000
18.4200 146.0000 1.0000
18.4400 132.0000 1.0000
18.4600 132.0000 1.0000
18.4800 126.0000 1.0000
18.5000 151.0000 1.0000
18.5200 160.0000 1.0000
18.5400 141.0000 1.0000
18.5600 163.0000 1.0000
18.5800 161.0000 1.0000
18.6000 186.0000 1.0000
18.6200 192.0000 1.0000
18.6400 203.0000 1.0000
18.6600 194.0000 1.0000
18.6800 197.0000 1.0000
18.7000 222.0000 1.0000
18.7200 199.0000 1.0000
18.7400 203.0000 1.0000
18.7600 200.0000 1.0000
18.7800 205.0000 1.0000
18.8000 187.0000 1.0000
18.8200 194.0000 1.0000
18.8400 198.0000 1.0000
18.8600 168.0000 1.0000
18.8800 178.0000 1.0000
18.9000 178.0000 1.0000
18.9200 153.0000 1.0000
18.9400 164.0000 1.0000
18.9600 189.0000 1.0000
18.9800 189.0000 1.0000
19.0000 163.0000 1.0000
19.0200 183.0000 1.0000
19.0400 165.0000 1.0000
19.0600 173.0000 1.0000
19.0800 184.0000 1.0000
19.1000 194.0000 1.0000
19.1200 178.0000 1.0000
19.1400 205.0000 1.0000
19.1600 161.0000 1.0000
19.1800 190.0000 1.0000
19.2000 166.0000 1.0000
19.2200 175.0000 1.0000
19.2400 182.0000 1.0000
19.2600 191.0000 1.0000
19.2800 163.0000 1.0000
19.3000 179.0000 1.0000
19.3200 173.0000 1.0000
19.3400 159.0000 1.0000
19.3600 173.0000 1.0000
19.3800 203.0000 1.0000
19.4000 191.0000 1.0000
19.4200 196.0000 1.0000
19.4400 200.0000 1.0000
19.4600 215.0000 1.0000
19.4800 230.0000 1.0000
19.5000 253.0000 1.0000
19.5200 293.0000 1.0000
19.5400 308.0000 1.0000
19.5600 329.0000 1.0000
19.5800 357.0000 1.0000
19.6000 389.0000 1.0000
19.6200 388.0000 1.0000
19.6400 418.0000 1.0000
19.6600 402.0000 1.0000
19.6800 393.0000 1.0000
19.7000 379.0000 1.0000
19.7200 352.0000 1.0000
19.7400 323.0000 1.0000
19.7600 302.0000 1.0000
19.7800 289.0000 1.0000
19.8000 294.0000 1.0000
19.8200 278.0000 1.0000
19.8400 254.0000 1.0000
19.8600 238.0000 1.0000
19.8800 248.0000 1.0000
19.9000 233.0000 1.0000
19.9200 223.0000 1.0000
19.9400 206.0000 1.0000
19.9600 241.0000 1.0000
19.9800 244.0000 1.0000
20.0000 205.0000 1.0000
20.0200 180.0000 1.0000
20.0400 210.0000 1.0000
20.0600 206.0000 1.0000
20.0800 185.0000 1.0000
20.1000 227.0000 1.0000
20.1200 217.0000 1.0000
20.1400 205.0000 1.0000
20.1600 191.0000 1.0000
20.1800 218.0000 1.0000
20.2000 225.0000 1.0000
20.2200 222.0000 1.0000
20.2400 235.0000 1.0000
20.2600 217.0000 1.0000
20.2800 235.0000 1.0000
20.3000 232.0000 1.0000
20.3200 247.0000 1.0000
20.3400 250.0000 1.0000
20.3600 255.0000 1.0000
20.3800 239.0000 1.0000
20.4000 285.0000 1.0000
20.4200 301.0000 1.0000
20.4400 318.0000 1.0000
20.4600 321.0000 1.0000
20.4800 347.0000 1.0000
20.5000 368.0000 1.0000
20.5200 405.0000 1.0000
20.5400 443.0000 1.0000
20.5600 479.0000 1.0000
20.5800 637.0000 1.0000
20.6000 725.0000 1.0000
20.6200 861.0000 1.0000
20.6400 1007.0000 1.0000
20.6600 1283.0000 1.0000
20.6800 1521.0000 1.0000
20.7000 1931.0000 1.0000
20.7200 2167.0000 1.0000
20.7400 2344.0000 1.0000
20.7600 2396.0000 1.0000
20.7800 2118.0000 1.0000
20.8000 1719.0000 1.0000
20.8200 1452.0000 1.0000
20.8400 1100.0000 1.0000
20.8600 726.0000 1.0000
20.8800 606.0000 1.0000
20.9000 495.0000 1.0000
20.9200 411.0000 1.0000
20.9400 389.0000 1.0000
20.9600 356.0000 1.0000
20.9800 360.0000 1.0000
21.0000 319.0000 1.0000
21.0200 284.0000 1.0000
21.0400 329.0000 1.0000
21.0600 289.0000 1.0000
21.0800 284.0000 1.0000
21.1000 324.0000 1.0000
21.1200 356.0000 1.0000
21.1400 331.0000 1.0000
21.1600 390.0000 1.0000
21.1800 377.0000 1.0000
21.2000 392.0000 1.0000
21.2200 428.0000 1.0000
21.2400 381.0000 1.0000
21.2600 373.0000 1.0000
21.2800 406.0000 1.0000
21.3000 365.0000 1.0000
21.3200 377.0000 1.0000
21.3400 316.0000 1.0000
21.3600 270.0000 1.0000
21.3800 248.0000 1.0000
21.4000 224.0000 1.0000
21.4200 195.0000 1.0000
21.4400 212.0000 1.0000
21.4600 199.0000 1.0000
21.4800 206.0000 1.0000
21.5000 230.0000 1.0000
21.5200 208.0000 1.0000
21.5400 198.0000 1.0000
21.5600 223.0000 1.0000
21.5800 231.0000 1.0000
21.6000 223.0000 1.0000
21.6200 238.0000 1.0000
21.6400 256.0000 1.0000
21.6600 252.0000 1.0000
21.6800 258.0000 1.0000
21.7000 264.0000 1.0000
21.7200 297.0000 1.0000
21.7400 313.0000 1.0000
21.7600 374.0000 1.0000
21.7800 426.0000 1.0000
21.8000 505.0000 1.0000
21.8200 587.0000 1.0000
21.8400 605.0000 1.0000
21.8600 636.0000 1.0000
21.8800 694.0000 1.0000
21.9000 730.0000 1.0000
21.9200 724.0000 1.0000
21.9400 641.0000 1.0000
21.9600 546.0000 1.0000
21.9800 479.0000 1.0000
22.0000 398.0000 1.0000
22.0200 336.0000 1.0000
22.0400 282.0000 1.0000
22.0600 216.0000 1.0000
22.0800 229.0000 1.0000
22.1000 216.0000 1.0000
22.1200 221.0000 1.0000
22.1400 193.0000 1.0000
22.1600 212.0000 1.0000
22.1800 207.0000 1.0000
22.2000 196.0000 1.0000
22.2200 183.0000 1.0000
22.2400 197.0000 1.0000
22.2600 177.0000 1.0000
22.2800 171.0000 1.0000
22.3000 195.0000 1.0000
22.3200 212.0000 1.0000
22.3400 197.0000 1.0000
22.3600 209.0000 1.0000
22.3800 212.0000 1.0000
22.4000 216.0000 1.0000
22.4200 224.0000 1.0000
22.4400 215.0000 1.0000
22.4600 210.0000 1.0000
22.4800 193.0000 1.0000
22.5000 187.0000 1.0000
22.5200 201.0000 1.0000
22.5400 202.0000 1.0000
22.5600 190.0000 1.0000
22.5800 196.0000 1.0000
22.6000 204.0000 1.0000
22.6200 208.0000 1.0000
22.6400 203.0000 1.0000
22.6600 211.0000 1.0000
22.6800 217.0000 1.0000
22.7000 215.0000 1.0000
22.7200 219.0000 1.0000
22.7400 228.0000 1.0000
22.7600 237.0000 1.0000
22.7800 238.0000 1.0000
22.8000 225.0000 1.0000
22.8200 239.0000 1.0000
22.8400 254.0000 1.0000
22.8600 266.0000 1.0000
22.8800 262.0000 1.0000
22.9000 277.0000 1.0000
22.9200 264.0000 1.0000
22.9400 277.0000 1.0000
22.9600 269.0000 1.0000
22.9800 273.0000 1.0000
23.0000 246.0000 1.0000
23.0200 211.0000 1.0000
23.0400 234.0000 1.0000
23.0600 216.0000 1.0000
23.0800 241.0000 1.0000
23.1000 216.0000 1.0000
23.1200 221.0000 1.0000
23.1400 228.0000 1.0000
23.1600 220.0000 1.0000
23.1800 240.0000 1.0000
23.2000 242.0000 1.0000
23.2200 254.0000 1.0000
23.2400 275.0000 1.0000
23.2600 313.0000 1.0000
23.2800 308.0000 1.0000
23.3000 350.0000 1.0000
23.3200 402.0000 1.0000
23.3400 440.0000 1.0000
23.3600 502.0000 1.0000
23.3800 559.0000 1.0000
23.4000 625.0000 1.0000
23.4200 653.0000 1.0000
23.4400 671.0000 1.0000
23.4600 688.0000 1.0000
23.4800 689.0000 1.0000
23.5000 689.0000 1.0000
23.5200 664.0000 1.0000
23.5400 574.0000 1.0000
23.5600 525.0000 1.0000
23.5800 474.0000 1.0000
23.6000 427.0000 1.0000
23.6200 406.0000 1.0000
23.6400 355.0000 1.0000
23.6600 330.0000 1.0000
23.6800 329.0000 1.0000
23.7000 282.0000 1.0000
23.7200 285.0000 1.0000
23.7400 287.0000 1.0000
23.7600 275.0000 1.0000
23.7800 253.0000 1.0000
23.8000 264.0000 1.0000
23.8200 274.0000 1.0000
23.8400 282.0000 1.0000
23.8600 271.0000 1.0000
23.8800 256.0000 1.0000
23.9000 279.0000 1.0000
23.9200 311.0000 1.0000
23.9400 296.0000 1.0000
23.9600 310.0000 1.0000
23.9800 372.0000 1.0000
24.0000 412.0000 1.0000
24.0200 448.0000 1.0000
24.0400 480.0000 1.0000
24.0600 496.0000 1.0000
24.0800 540.0000 1.0000
24.1000 547.0000 1.0000
24.1200 585.0000 1.0000
24.1400 634.0000 1.0000
24.1600 645.0000 1.0000
24.1800 616.0000 1.0000
24.2000 594.0000 1.0000
24.2200 561.0000 1.0000
24.2400 516.0000 1.0000
24.2600 508.0000 1.0000
24.2800 478.0000 1.0000
24.3000 429.0000 1.0000
24.3200 419.0000 1.0000
24.3400 397.0000 1.0000
24.3600 354.0000 1.0000
24.3800 359.0000 1.0000
24.4000 333.0000 1.0000
24.4200 331.0000 1.0000
24.4400 328.0000 1.0000
24.4600 299.0000 1.0000
24.4800 264.0000 1.0000
24.5000 281.0000 1.0000
24.5200 271.0000 1.0000
24.5400 255.0000 1.0000
24.5600 233.0000 1.0000
24.5800 243.0000 1.0000
24.6000 240.0000 1.0000
24.6200 210.0000 1.0000
24.6400 209.0000 1.0000
24.6600 215.0000 1.0000
24.6800 214.0000 1.0000
24.7000 198.0000 1.0000
24.7200 199.0000 1.0000
24.7400 223.0000 1.0000
24.7600 210.0000 1.0000
24.7800 215.0000 1.0000
24.8000 223.0000 1.0000
24.8200 227.0000 1.0000
24.8400 218.0000 1.0000
24.8600 244.0000 1.0000
24.8800 248.0000 1.0000
24.9000 266.0000 1.0000
24.9200 281.0000 1.0000
24.9400 289.0000 1.0000
24.9600 325.0000 1.0000
24.9800 320.0000 1.0000
25.0000 320.0000 1.0000
25.0200 332.0000 1.0000
25.0400 382.0000 1.0000
25.0600 413.0000 1.0000
25.0800 380.0000 1.0000
25.1000 386.0000 1.0000
25.1200 432.0000 1.0000
25.1400 434.0000 1.0000
25.1600 430.0000 1.0000
25.1800 453.0000 1.0000
25.2000 511.0000 1.0000
25.2200 518.0000 1.0000
25.2400 572.0000 1.0000
25.2600 589.0000 1.0000
25.2800 641.0000 1.0000
25.3000 712.0000 1.0000
25.3200 774.0000 1.0000
25.3400 851.0000 1.0000
25.3600 961.0000 1.0000
25.3800 1053.0000 1.0000
25.4000 1186.0000 1.0000
25.4200 1369.0000 1.0000
25.4400 1513.0000 1.0000
25.4600 1533.0000 1.0000
25.4800 1513.0000 1.0000
25.5000 1422.0000 1.0000
25.5200 1259.0000 1.0000
25.5400 1076.0000 1.0000
25.5600 902.0000 1.0000
25.5800 748.0000 1.0000
25.6000 606.0000 1.0000
25.6200 501.0000 1.0000
25.6400 448.0000 1.0000
25.6600 390.0000 1.0000
25.6800 364.0000 1.0000
25.7000 340.0000 1.0000
25.7200 321.0000 1.0000
25.7400 288.0000 1.0000
25.7600 285.0000 1.0000
25.7800 299.0000 1.0000
25.8000 321.0000 1.0000
25.8200 331.0000 1.0000
25.8400 322.0000 1.0000
25.8600 304.0000 1.0000
25.8800 292.0000 1.0000
25.9000 309.0000 1.0000
25.9200 336.0000 1.0000
25.9400 337.0000 1.0000
25.9600 348.0000 1.0000
25.9800 365.0000 1.0000
26.0000 386.0000 1.0000
26.0200 411.0000 1.0000
26.0400 406.0000 1.0000
26.0600 419.0000 1.0000
26.0800 473.0000 1.0000
26.1000 498.0000 1.0000
26.1200 534.0000 1.0000
26.1400 573.0000 1.0000
26.1600 612.0000 1.0000
26.1800 661.0000 1.0000
26.2000 685.0000 1.0000
26.2200 786.0000 1.0000
26.2400 915.0000 1.0000
26.2600 1015.0000 1.0000
26.2800 1176.0000 1.0000
26.3000 1334.0000 1.0000
26.3200 1559.0000 1.0000
26.3400 1862.0000 1.0000
26.3600 2211.0000 1.0000
26.3800 2712.0000 1.0000
26.4000 3378.0000 1.0000
26.4200 4311.0000 1.0000
26.4400 5538.0000 1.0000
26.4600 6852.0000 1.0000
26.4800 8266.0000 1.0000
26.5000 9621.0000 1.0000
26.5200 10343.0000 1.0000
26.5400 10192.0000 1.0000
26.5600 9378.0000 1.0000
26.5800 8024.0000 1.0000
26.6000 6396.0000 1.0000
26.6200 4800.0000 1.0000
26.6400 3475.0000 1.0000
26.6600 2417.0000 1.0000
26.6800 1751.0000 1.0000
26.7000 1404.0000 1.0000
26.7200 1147.0000 1.0000
26.7400 994.0000 1.0000
26.7600 945.0000 1.0000
26.7800 880.0000 1.0000
26.8000 832.0000 1.0000
26.8200 790.0000 1.0000
26.8400 753.0000 1.0000
26.8600 727.0000 1.0000
26.8800 690.0000 1.0000
26.9000 669.0000 1.0000
26.9200 660.0000 1.0000
26.9400 648.0000 1.0000
26.9600 629.0000 1.0000
26.9800 580.0000 1.0000
27.0000 563.0000 1.0000
27.0200 522.0000 1.0000
27.0400 502.0000 1.0000
27.0600 513.0000 1.0000
27.0800 494.0000 1.0000
27.1000 491.0000 1.0000
27.1200 483.0000 1.0000
27.1400 520.0000 1.0000
27.1600 527.0000 1.0000
27.1800 522.0000 1.0000
27.2000 517.0000 1.0000
27.2200 521.0000 1.0000
27.2400 528.0000 1.0000
27.2600 561.0000 1.0000
27.2800 618.0000 1.0000
27.3000 652.0000 1.0000
27.3200 720.0000 1.0000
27.3400 793.0000 1.0000
27.3600 860.0000 1.0000
27.3800 886.0000 1.0000
27.4000 902.0000 1.0000
27.4200 954.0000 1.0000
27.4400 965.0000 1.0000
27.4600 945.0000 1.0000
27.4800 948.0000 1.0000
27.5000 959.0000 1.0000
27.5200 980.0000 1.0000
27.5400 1000.0000 1.0000
27.5600 1036.0000 1.0000
27.5800 1099.0000 1.0000
27.6000 1163.0000 1.0000
27.6200 1246.0000 1.0000
27.6400 1310.0000 1.0000
27.6600 1361.0000 1.0000
27.6800 1434.0000 1.0000
27.7000 1468.0000 1.0000
27.7200 1504.0000 1.0000
27.7400 1557.0000 1.0000
27.7600 1610.0000 1.0000
27.7800 1726.0000 1.0000
27.8000 1797.0000 1.0000
27.8200 1838.0000 1.0000
27.8400 1882.0000 1.0000
27.8600 1838.0000 1.0000
27.8800 1766.0000 1.0000
27.9000 1646.0000 1.0000
27.9200 1519.0000 1.0000
27.9400 1390.0000 1.0000
27.9600 1262.0000 1.0000
27.9800 1096.0000 1.0000
28.0000 912.0000 1.0000
28.0200 794.0000 1.0000
28.0400 750.0000 1.0000
28.0600 687.0000 1.0000
28.0800 587.0000 1.0000
28.1000 578.0000 1.0000
28.1200 573.0000 1.0000
28.1400 551.0000 1.0000
28.1600 537.0000 1.0000
28.1800 511.0000 1.0000
28.2000 471.0000 1.0000
28.2200 454.0000 1.0000
28.2400 458.0000 1.0000
28.2600 424.0000 1.0000
28.2800 398.0000 1.0000
28.3000 372.0000 1.0000
28.3200 371.0000 1.0000
28.3400 346.0000 1.0000
28.3600 318.0000 1.0000
28.3800 304.0000 1.0000
28.4000 289.0000 1.0000
28.4200 278.0000 1.0000
28.4400 245.0000 1.0000
28.4600 238.0000 1.0000
28.4800 237.0000 1.0000
28.5000 216.0000 1.0000
28.5200 211.0000 1.0000
28.5400 195.0000 1.0000
28.5600 166.0000 1.0000
28.5800 180.0000 1.0000
28.6000 187.0000 1.0000
28.6200 180.0000 1.0000
28.6400 184.0000 1.0000
28.6600 198.0000 1.0000
28.6800 209.0000 1.0000
28.7000 212.0000 1.0000
28.7200 200.0000 1.0000
28.7400 195.0000 1.0000
28.7600 198.0000 1.0000
28.7800 201.0000 1.0000
28.8000 207.0000 1.0000
28.8200 216.0000 1.0000
28.8400 209.0000 1.0000
28.8600 213.0000 1.0000
28.8800 215.0000 1.0000
28.9000 222.0000 1.0000
28.9200 216.0000 1.0000
28.9400 217.0000 1.0000
28.9600 223.0000 1.0000
28.9800 221.0000 1.0000
29.0000 207.0000 1.0000
29.0200 197.0000 1.0000
29.0400 205.0000 1.0000
29.0600 213.0000 1.0000
29.0800 238.0000 1.0000
29.1000 241.0000 1.0000
29.1200 230.0000 1.0000
29.1400 241.0000 1.0000
29.1600 257.0000 1.0000
29.1800 272.0000 1.0000
29.2000 280.0000 1.0000
29.2200 306.0000 1.0000
29.2400 319.0000 1.0000
29.2600 336.0000 1.0000
29.2800 339.0000 1.0000
29.3000 367.0000 1.0000
29.3200 367.0000 1.0000
29.3400 377.0000 1.0000
29.3600 405.0000 1.0000
29.3800 417.0000 1.0000
29.4000 418.0000 1.0000
29.4200 414.0000 1.0000
29.4400 401.0000 1.0000
29.4600 387.0000 1.0000
29.4800 384.0000 1.0000
29.5000 398.0000 1.0000
29.5200 432.0000 1.0000
29.5400 416.0000 1.0000
29.5600 408.0000 1.0000
29.5800 462.0000 1.0000
29.6000 502.0000 1.0000
29.6200 523.0000 1.0000
29.6400 541.0000 1.0000
29.6600 558.0000 1.0000
29.6800 571.0000 1.0000
29.7000 586.0000 1.0000
29.7200 574.0000 1.0000
29.7400 555.0000 1.0000
29.7600 555.0000 1.0000
29.7800 520.0000 1.0000
29.8000 475.0000 1.0000
29.8200 454.0000 1.0000
29.8400 465.0000 1.0000
29.8600 427.0000 1.0000
29.8800 411.0000 1.0000
29.9000 396.0000 1.0000
29.9200 433.0000 1.0000
29.9400 461.0000 1.0000
29.9600 425.0000 1.0000
29.9800 444.0000 1.0000
30.0000 449.0000 1.0000
30.0200 433.0000 1.0000
30.0400 432.0000 1.0000
30.0600 440.0000 1.0000
30.0800 457.0000 1.0000
30.1000 470.0000 1.0000
30.1200 463.0000 1.0000
30.1400 475.0000 1.0000
30.1600 487.0000 1.0000
30.1800 463.0000 1.0000
30.2000 458.0000 1.0000
30.2200 454.0000 1.0000
30.2400 440.0000 1.0000
30.2600 463.0000 1.0000
30.2800 461.0000 1.0000
30.3000 446.0000 1.0000
30.3200 480.0000 1.0000
30.3400 497.0000 1.0000
30.3600 534.0000 1.0000
30.3800 549.0000 1.0000
30.4000 497.0000 1.0000
30.4200 459.0000 1.0000
30.4400 443.0000 1.0000
30.4600 402.0000 1.0000
30.4800 376.0000 1.0000
30.5000 354.0000 1.0000
30.5200 317.0000 1.0000
30.5400 331.0000 1.0000
30.5600 342.0000 1.0000
30.5800 353.0000 1.0000
30.6000 341.0000 1.0000
30.6200 368.0000 1.0000
30.6400 383.0000 1.0000
30.6600 389.0000 1.0000
30.6800 408.0000 1.0000
30.7000 425.0000 1.0000
30.7200 427.0000 1.0000
30.7400 432.0000 1.0000
30.7600 408.0000 1.0000
30.7800 387.0000 1.0000
30.8000 339.0000 1.0000
30.8200 326.0000 1.0000
30.8400 310.0000 1.0000
30.8600 287.0000 1.0000
30.8800 278.0000 1.0000
30.9000 284.0000 1.0000
30.9200 270.0000 1.0000
30.9400 264.0000 1.0000
30.9600 272.0000 1.0000
30.9800 288.0000 1.0000
31.0000 263.0000 1.0000
31.0200 267.0000 1.0000
31.0400 295.0000 1.0000
31.0600 270.0000 1.0000
31.0800 255.0000 1.0000
31.1000 266.0000 1.0000
31.1200 282.0000 1.0000
31.1400 291.0000 1.0000
31.1600 256.0000 1.0000
31.1800 247.0000 1.0000
31.2000 260.0000 1.0000
31.2200 231.0000 1.0000
31.2400 247.0000 1.0000
31.2600 229.0000 1.0000
31.2800 233.0000 1.0000
31.3000 254.0000 1.0000
31.3200 251.0000 1.0000
31.3400 236.0000 1.0000
31.3600 241.0000 1.0000
31.3800 232.0000 1.0000
31.4000 253.0000 1.0000
31.4200 260.0000 1.0000
31.4400 241.0000 1.0000
31.4600 220.0000 1.0000
31.4800 238.0000 1.0000
31.5000 216.0000 1.0000
31.5200 190.0000 1.0000
31.5400 183.0000 1.0000
31.5600 186.0000 1.0000
31.5800 165.0000 1.0000
31.6000 158.0000 1.0000
31.6200 176.0000 1.0000
31.6400 172.0000 1.0000
31.6600 172.0000 1.0000
31.6800 165.0000 1.0000
31.7000 174.0000 1.0000
31.7200 179.0000 1.0000
31.7400 189.0000 1.0000
31.7600 184.0000 1.0000
31.7800 187.0000 1.0000
31.8000 178.0000 1.0000
31.8200 184.0000 1.0000
31.8400 190.0000 1.0000
31.8600 178.0000 1.0000
31.8800 181.0000 1.0000
31.9000 185.0000 1.0000
31.9200 204.0000 1.0000
31.9400 193.0000 1.0000
31.9600 171.0000 1.0000
31.9800 178.0000 1.0000
32.0000 151.0000 1.0000
32.0200 171.0000 1.0000
32.0400 164.0000 1.0000
32.0600 148.0000 1.0000
32.0800 149.0000 1.0000
32.1000 175.0000 1.0000
32.1200 162.0000 1.0000
32.1400 173.0000 1.0000
32.1600 166.0000 1.0000
32.1800 190.0000 1.0000
32.2000 191.0000 1.0000
32.2200 167.0000 1.0000
32.2400 181.0000 1.0000
32.2600 172.0000 1.0000
32.2800 164.0000 1.0000
32.3000 148.0000 1.0000
32.3200 158.0000 1.0000
32.3400 141.0000 1.0000
32.3600 169.0000 1.0000
32.3800 137.0000 1.0000
32.4000 122.0000 1.0000
32.4200 133.0000 1.0000
32.4400 145.0000 1.0000
32.4600 134.0000 1.0000
32.4800 133.0000 1.0000
32.5000 138.0000 1.0000
32.5200 138.0000 1.0000
32.5400 128.0000 1.0000
32.5600 146.0000 1.0000
32.5800 135.0000 1.0000
32.6000 130.0000 1.0000
32.6200 126.0000 1.0000
32.6400 115.0000 1.0000
32.6600 122.0000 1.0000
32.6800 111.0000 1.0000
32.7000 119.0000 1.0000
32.7200 122.0000 1.0000
32.7400 155.0000 1.0000
32.7600 141.0000 1.0000
32.7800 125.0000 1.0000
32.8000 116.0000 1.0000
32.8200 131.0000 1.0000
32.8400 123.0000 1.0000
32.8600 141.0000 1.0000
32.8800 134.0000 1.0000
32.9000 137.0000 1.0000
32.9200 141.0000 1.0000
32.9400 124.0000 1.0000
32.9600 132.0000 1.0000
32.9800 119.0000 1.0000
33.0000 130.0000 1.0000
33.0200 155.0000 1.0000
33.0400 144.0000 1.0000
33.0600 137.0000 1.0000
33.0800 121.0000 1.0000
33.1000 149.0000 1.0000
33.1200 134.0000 1.0000
33.1400 153.0000 1.0000
33.1600 167.0000 1.0000
33.1800 129.0000 1.0000
33.2000 132.0000 1.0000
33.2200 122.0000 1.0000
33.2400 158.0000 1.0000
33.2600 160.0000 1.0000
33.2800 156.0000 1.0000
33.3000 183.0000 1.0000
33.3200 138.0000 1.0000
33.3400 171.0000 1.0000
33.3600 135.0000 1.0000
33.3800 152.0000 1.0000
33.4000 152.0000 1.0000
33.4200 151.0000 1.0000
33.4400 143.0000 1.0000
33.4600 172.0000 1.0000
33.4800 158.0000 1.0000
33.5000 151.0000 1.0000
33.5200 148.0000 1.0000
33.5400 174.0000 1.0000
33.5600 159.0000 1.0000
33.5800 193.0000 1.0000
33.6000 186.0000 1.0000
33.6200 188.0000 1.0000
33.6400 182.0000 1.0000
33.6600 193.0000 1.0000
33.6800 191.0000 1.0000
33.7000 171.0000 1.0000
33.7200 188.0000 1.0000
33.7400 199.0000 1.0000
33.7600 210.0000 1.0000
33.7800 191.0000 1.0000
33.8000 195.0000 1.0000
33.8200 200.0000 1.0000
33.8400 187.0000 1.0000
33.8600 190.0000 1.0000
33.8800 198.0000 1.0000
33.9000 200.0000 1.0000
33.9200 183.0000 1.0000
33.9400 191.0000 1.0000
33.9600 176.0000 1.0000
33.9800 186.0000 1.0000
34.0000 183.0000 1.0000
34.0200 162.0000 1.0000
34.0400 173.0000 1.0000
34.0600 180.0000 1.0000
34.0800 167.0000 1.0000
34.1000 180.0000 1.0000
34.1200 186.0000 1.0000
34.1400 191.0000 1.0000
34.1600 192.0000 1.0000
34.1800 222.0000 1.0000
34.2000 229.0000 1.0000
34.2200 237.0000 1.0000
34.2400 227.0000 1.0000
34.2600 253.0000 1.0000
34.2800 248.0000 1.0000
34.3000 270.0000 1.0000
34.3200 275.0000 1.0000
34.3400 272.0000 1.0000
34.3600 272.0000 1.0000
34.3800 290.0000 1.0000
34.4000 278.0000 1.0000
34.4200 291.0000 1.0000
34.4400 274.0000 1.0000
34.4600 344.0000 1.0000
34.4800 311.0000 1.0000
34.5000 361.0000 1.0000
34.5200 359.0000 1.0000
34.5400 360.0000 1.0000
34.5600 348.0000 1.0000
34.5800 405.0000 1.0000
34.6000 414.0000 1.0000
34.6200 390.0000 1.0000
34.6400 449.0000 1.0000
34.6600 495.0000 1.0000
34.6800 511.0000 1.0000
34.7000 511.0000 1.0000
34.7200 545.0000 1.0000
34.7400 554.0000 1.0000
34.7600 556.0000 1.0000
34.7800 597.0000 1.0000
34.8000 602.0000 1.0000
34.8200 598.0000 1.0000
34.8400 622.0000 1.0000
34.8600 693.0000 1.0000
34.8800 744.0000 1.0000
34.9000 769.0000 1.0000
34.9200 879.0000 1.0000
34.9400 1007.0000 1.0000
34.9600 1251.0000 1.0000
34.9800 1492.0000 1.0000
35.0000 1724.0000 1.0000
35.0200 1839.0000 1.0000
35.0400 1998.0000 1.0000
35.0600 1859.0000 1.0000
35.0800 1817.0000 1.0000
35.1000 1672.0000 1.0000
35.1200 1468.0000 1.0000
35.1400 1253.0000 1.0000
35.1600 1093.0000 1.0000
35.1800 850.0000 1.0000
35.2000 695.0000 1.0000
35.2200 624.0000 1.0000
35.2400 467.0000 1.0000
35.2600 451.0000 1.0000
35.2800 393.0000 1.0000
35.3000 439.0000 1.0000
35.3200 444.0000 1.0000
35.3400 411.0000 1.0000
35.3600 424.0000 1.0000
35.3800 404.0000 1.0000
35.4000 455.0000 1.0000
35.4200 437.0000 1.0000
35.4400 516.0000 1.0000
35.4600 446.0000 1.0000
35.4800 450.0000 1.0000
35.5000 452.0000 1.0000
35.5200 478.0000 1.0000
35.5400 468.0000 1.0000
35.5600 418.0000 1.0000
35.5800 450.0000 1.0000
35.6000 424.0000 1.0000
35.6200 402.0000 1.0000
35.6400 381.0000 1.0000
35.6600 352.0000 1.0000
35.6800 366.0000 1.0000
35.7000 342.0000 1.0000
35.7200 328.0000 1.0000
35.7400 326.0000 1.0000
35.7600 317.0000 1.0000
35.7800 289.0000 1.0000
35.8000 284.0000 1.0000
35.8200 242.0000 1.0000
35.8400 260.0000 1.0000
35.8600 237.0000 1.0000
35.8800 247.0000 1.0000
35.9000 223.0000 1.0000
35.9200 230.0000 1.0000
35.9400 235.0000 1.0000
35.9600 242.0000 1.0000
35.9800 242.0000 1.0000
36.0000 249.0000 1.0000
36.0200 230.0000 1.0000
36.0400 254.0000 1.0000
36.0600 240.0000 1.0000
36.0800 221.0000 1.0000
36.1000 231.0000 1.0000
36.1200 260.0000 1.0000
36.1400 230.0000 1.0000
36.1600 236.0000 1.0000
36.1800 258.0000 1.0000
36.2000 285.0000 1.0000
36.2200 268.0000 1.0000
36.2400 298.0000 1.0000
36.2600 286.0000 1.0000
36.2800 306.0000 1.0000
36.3000 372.0000 1.0000
36.3200 433.0000 1.0000
36.3400 519.0000 1.0000
36.3600 607.0000 1.0000
36.3800 686.0000 1.0000
36.4000 804.0000 1.0000
36.4200 851.0000 1.0000
36.4400 894.0000 1.0000
36.4600 910.0000 1.0000
36.4800 932.0000 1.0000
36.5000 787.0000 1.0000
36.5200 732.0000 1.0000
36.5400 635.0000 1.0000
36.5600 542.0000 1.0000
36.5800 493.0000 1.0000
36.6000 446.0000 1.0000
36.6200 366.0000 1.0000
36.6400 344.0000 1.0000
36.6600 364.0000 1.0000
36.6800 310.0000 1.0000
36.7000 303.0000 1.0000
36.7200 300.0000 1.0000
36.7400 301.0000 1.0000
36.7600 312.0000 1.0000
36.7800 274.0000 1.0000
36.8000 275.0000 1.0000
36.8200 264.0000 1.0000
36.8400 266.0000 1.0000
36.8600 264.0000 1.0000
36.8800 243.0000 1.0000
36.9000 251.0000 1.0000
36.9200 224.0000 1.0000
36.9400 242.0000 1.0000
36.9600 230.0000 1.0000
36.9800 222.0000 1.0000
37.0000 232.0000 1.0000
37.0200 245.0000 1.0000
37.0400 208.0000 1.0000
37.0600 215.0000 1.0000
37.0800 212.0000 1.0000
37.1000 205.0000 1.0000
37.1200 227.0000 1.0000
37.1400 219.0000 1.0000
37.1600 217.0000 1.0000
37.1800 210.0000 1.0000
37.2000 236.0000 1.0000
37.2200 219.0000 1.0000
37.2400 215.0000 1.0000
37.2600 217.0000 1.0000
37.2800 229.0000 1.0000
37.3000 227.0000 1.0000
37.3200 245.0000 1.0000
37.3400 251.0000 1.0000
37.3600 240.0000 1.0000
37.3800 238.0000 1.0000
37.4000 241.0000 1.0000
37.4200 248.0000 1.0000
37.4400 260.0000 1.0000
37.4600 267.0000 1.0000
37.4800 284.0000 1.0000
37.5000 302.0000 1.0000
37.5200 340.0000 1.0000
37.5400 391.0000 1.0000
37.5600 467.0000 1.0000
37.5800 514.0000 1.0000
37.6000 601.0000 1.0000
37.6200 674.0000 1.0000
37.6400 745.0000 1.0000
37.6600 789.0000 1.0000
37.6800 828.0000 1.0000
37.7000 808.0000 1.0000
37.7200 744.0000 1.0000
37.7400 689.0000 1.0000
37.7600 581.0000 1.0000
37.7800 486.0000 1.0000
37.8000 445.0000 1.0000
37.8200 372.0000 1.0000
37.8400 318.0000 1.0000
37.8600 276.0000 1.0000
37.8800 239.0000 1.0000
37.9000 222.0000 1.0000
37.9200 203.0000 1.0000
37.9400 187.0000 1.0000
37.9600 195.0000 1.0000
37.9800 195.0000 1.0000
38.0000 202.0000 1.0000
38.0200 179.0000 1.0000
38.0400 186.0000 1.0000
38.0600 177.0000 1.0000
38.0800 161.0000 1.0000
38.1000 169.0000 1.0000
38.1200 161.0000 1.0000
38.1400 160.0000 1.0000
38.1600 172.0000 1.0000
38.1800 163.0000 1.0000
38.2000 140.0000 1.0000
38.2200 141.0000 1.0000
38.2400 153.0000 1.0000
38.2600 135.0000 1.0000
38.2800 129.0000 1.0000
38.3000 126.0000 1.0000
38.3200 126.0000 1.0000
38.3400 138.0000 1.0000
38.3600 140.0000 1.0000
38.3800 143.0000 1.0000
38.4000 132.0000 1.0000
38.4200 134.0000 1.0000
38.4400 135.0000 1.0000
38.4600 138.0000 1.0000
38.4800 146.0000 1.0000
38.5000 133.0000 1.0000
38.5200 125.0000 1.0000
38.5400 152.0000 1.0000
38.5600 144.0000 1.0000
38.5800 155.0000 1.0000
38.6000 157.0000 1.0000
38.6200 154.0000 1.0000
38.6400 172.0000 1.0000
38.6600 165.0000 1.0000
38.6800 179.0000 1.0000
38.7000 193.0000 1.0000
38.7200 185.0000 1.0000
38.7400 182.0000 1.0000
38.7600 175.0000 1.0000
38.7800 179.0000 1.0000
38.8000 184.0000 1.0000
38.8200 184.0000 1.0000
38.8400 175.0000 1.0000
38.8600 153.0000 1.0000
38.8800 144.0000 1.0000
38.9000 148.0000 1.0000
38.9200 154.0000 1.0000
38.9400 157.0000 1.0000
38.9600 167.0000 1.0000
38.9800 172.0000 1.0000
39.0000 186.0000 1.0000
39.0200 182.0000 1.0000
39.0400 177.0000 1.0000
39.0600 170.0000 1.0000
39.0800 164.0000 1.0000
39.1000 158.0000 1.0000
39.1200 178.0000 1.0000
39.1400 188.0000 1.0000
39.1600 194.0000 1.0000
39.1800 197.0000 1.0000
39.2000 212.0000 1.0000
39.2200 256.0000 1.0000
39.2400 284.0000 1.0000
39.2600 348.0000 1.0000
39.2800 428.0000 1.0000
39.3000 524.0000 1.0000
39.3200 614.0000 1.0000
39.3400 713.0000 1.0000
39.3600 727.0000 1.0000
39.3800 710.0000 1.0000
39.4000 695.0000 1.0000
39.4200 642.0000 1.0000
39.4400 543.0000 1.0000
39.4600 492.0000 1.0000
39.4800 472.0000 1.0000
39.5000 428.0000 1.0000
39.5200 350.0000 1.0000
39.5400 291.0000 1.0000
39.5600 245.0000 1.0000
39.5800 200.0000 1.0000
39.6000 186.0000 1.0000
39.6200 195.0000 1.0000
39.6400 212.0000 1.0000
39.6600 209.0000 1.0000
39.6800 188.0000 1.0000
39.7000 180.0000 1.0000
39.7200 170.0000 1.0000
39.7400 163.0000 1.0000
39.7600 167.0000 1.0000
39.7800 177.0000 1.0000
39.8000 186.0000 1.0000
39.8200 182.0000 1.0000
39.8400 184.0000 1.0000
39.8600 179.0000 1.0000
39.8800 167.0000 1.0000
39.9000 176.0000 1.0000
39.9200 179.0000 1.0000
39.9400 174.0000 1.0000
39.9600 181.0000 1.0000
39.9800 189.0000 1.0000
40.0000 184.0000 1.0000
40.0200 193.0000 1.0000
40.0400 200.0000 1.0000
40.0600 209.0000 1.0000
40.0800 239.0000 1.0000
40.1000 265.0000 1.0000
40.1200 304.0000 1.0000
40.1400 336.0000 1.0000
40.1600 388.0000 1.0000
40.1800 431.0000 1.0000
40.2000 431.0000 1.0000
40.2200 423.0000 1.0000
40.2400 405.0000 1.0000
40.2600 350.0000 1.0000
40.2800 327.0000 1.0000
40.3000 305.0000 1.0000
40.3200 287.0000 1.0000
40.3400 289.0000 1.0000
40.3600 249.0000 1.0000
40.3800 210.0000 1.0000
40.4000 196.0000 1.0000
40.4200 201.0000 1.0000
40.4400 187.0000 1.0000
40.4600 174.0000 1.0000
40.4800 176.0000 1.0000
40.5000 172.0000 1.0000
40.5200 169.0000 1.0000
40.5400 168.0000 1.0000
40.5600 185.0000 1.0000
40.5800 196.0000 1.0000
40.6000 185.0000 1.0000
40.6200 185.0000 1.0000
40.6400 191.0000 1.0000
40.6600 184.0000 1.0000
40.6800 182.0000 1.0000
40.7000 175.0000 1.0000
40.7200 173.0000 1.0000
40.7400 174.0000 1.0000
40.7600 159.0000 1.0000
40.7800 166.0000 1.0000
40.8000 177.0000 1.0000
40.8200 175.0000 1.0000
40.8400 173.0000 1.0000
40.8600 163.0000 1.0000
40.8800 162.0000 1.0000
40.9000 149.0000 1.0000
40.9200 151.0000 1.0000
40.9400 165.0000 1.0000
40.9600 152.0000 1.0000
40.9800 147.0000 1.0000
41.0000 164.0000 1.0000
41.0200 177.0000 1.0000
41.0400 180.0000 1.0000
41.0600 160.0000 1.0000
41.0800 165.0000 1.0000
41.1000 171.0000 1.0000
41.1200 178.0000 1.0000
41.1400 180.0000 1.0000
41.1600 164.0000 1.0000
41.1800 151.0000 1.0000
41.2000 148.0000 1.0000
41.2200 170.0000 1.0000
41.2400 172.0000 1.0000
41.2600 168.0000 1.0000
41.2800 169.0000 1.0000
41.3000 156.0000 1.0000
41.3200 161.0000 1.0000
41.3400 178.0000 1.0000
41.3600 177.0000 1.0000
41.3800 174.0000 1.0000
41.4000 171.0000 1.0000
41.4200 171.0000 1.0000
41.4400 169.0000 1.0000
41.4600 174.0000 1.0000
41.4800 202.0000 1.0000
41.5000 201.0000 1.0000
41.5200 197.0000 1.0000
41.5400 216.0000 1.0000
41.5600 240.0000 1.0000
41.5800 242.0000 1.0000
41.6000 237.0000 1.0000
41.6200 252.0000 1.0000
41.6400 261.0000 1.0000
41.6600 267.0000 1.0000
41.6800 261.0000 1.0000
41.7000 256.0000 1.0000
41.7200 258.0000 1.0000
41.7400 243.0000 1.0000
41.7600 254.0000 1.0000
41.7800 246.0000 1.0000
41.8000 242.0000 1.0000
41.8200 249.0000 1.0000
41.8400 250.0000 1.0000
41.8600 257.0000 1.0000
41.8800 273.0000 1.0000
41.9000 271.0000 1.0000
41.9200 259.0000 1.0000
41.9400 255.0000 1.0000
41.9600 259.0000 1.0000
41.9800 281.0000 1.0000
42.0000 273.0000 1.0000
42.0200 267.0000 1.0000
42.0400 287.0000 1.0000
42.0600 292.0000 1.0000
42.0800 285.0000 1.0000
42.1000 324.0000 1.0000
42.1200 321.0000 1.0000
42.1400 322.0000 1.0000
42.1600 338.0000 1.0000
42.1800 343.0000 1.0000
42.2000 367.0000 1.0000
42.2200 384.0000 1.0000
42.2400 401.0000 1.0000
42.2600 442.0000 1.0000
42.2800 514.0000 1.0000
42.3000 595.0000 1.0000
42.3200 672.0000 1.0000
42.3400 664.0000 1.0000
42.3600 669.0000 1.0000
42.3800 671.0000 1.0000
42.4000 632.0000 1.0000
42.4200 595.0000 1.0000
42.4400 535.0000 1.0000
42.4600 496.0000 1.0000
42.4800 436.0000 1.0000
42.5000 396.0000 1.0000
42.5200 381.0000 1.0000
42.5400 313.0000 1.0000
42.5600 287.0000 1.0000
42.5800 281.0000 1.0000
42.6000 275.0000 1.0000
42.6200 257.0000 1.0000
42.6400 241.0000 1.0000
42.6600 235.0000 1.0000
42.6800 240.0000 1.0000
42.7000 217.0000 1.0000
42.7200 231.0000 1.0000
42.7400 235.0000 1.0000
42.7600 239.0000 1.0000
42.7800 236.0000 1.0000
42.8000 264.0000 1.0000
42.8200 230.0000 1.0000
42.8400 236.0000 1.0000
42.8600 233.0000 1.0000
42.8800 232.0000 1.0000
42.9000 231.0000 1.0000
42.9200 229.0000 1.0000
42.9400 227.0000 1.0000
42.9600 240.0000 1.0000
42.9800 261.0000 1.0000
43.0000 279.0000 1.0000
43.0200 274.0000 1.0000
43.0400 332.0000 1.0000
43.0600 378.0000 1.0000
43.0800 396.0000 1.0000
43.1000 465.0000 1.0000
43.1200 556.0000 1.0000
43.1400 659.0000 1.0000
43.1600 829.0000 1.0000
43.1800 1083.0000 1.0000
43.2000 1342.0000 1.0000
43.2200 1560.0000 1.0000
43.2400 1691.0000 1.0000
43.2600 1746.0000 1.0000
43.2800 1736.0000 1.0000
43.3000 1637.0000 1.0000
43.3200 1460.0000 1.0000
43.3400 1295.0000 1.0000
43.3600 1160.0000 1.0000
43.3800 1017.0000 1.0000
43.4000 897.0000 1.0000
43.4200 766.0000 1.0000
43.4400 594.0000 1.0000
43.4600 459.0000 1.0000
43.4800 337.0000 1.0000
43.5000 303.0000 1.0000
43.5200 274.0000 1.0000
43.5400 270.0000 1.0000
43.5600 268.0000 1.0000
43.5800 217.0000 1.0000
43.6000 214.0000 1.0000
43.6200 187.0000 1.0000
43.6400 173.0000 1.0000
43.6600 181.0000 1.0000
43.6800 186.0000 1.0000
43.7000 184.0000 1.0000
43.7200 166.0000 1.0000
43.7400 170.0000 1.0000
43.7600 176.0000 1.0000
43.7800 169.0000 1.0000
43.8000 161.0000 1.0000
43.8200 156.0000 1.0000
43.8400 153.0000 1.0000
43.8600 169.0000 1.0000
43.8800 136.0000 1.0000
43.9000 153.0000 1.0000
43.9200 162.0000 1.0000
43.9400 162.0000 1.0000
43.9600 166.0000 1.0000
43.9800 164.0000 1.0000
44.0000 157.0000 1.0000
44.0200 153.0000 1.0000
44.0400 148.0000 1.0000
44.0600 157.0000 1.0000
44.0800 137.0000 1.0000
44.1000 146.0000 1.0000
44.1200 145.0000 1.0000
44.1400 159.0000 1.0000
44.1600 176.0000 1.0000
44.1800 161.0000 1.0000
44.2000 150.0000 1.0000
44.2200 131.0000 1.0000
44.2400 154.0000 1.0000
44.2600 161.0000 1.0000
44.2800 165.0000 1.0000
44.3000 136.0000 1.0000
44.3200 146.0000 1.0000
44.3400 151.0000 1.0000
44.3600 169.0000 1.0000
44.3800 171.0000 1.0000
44.4000 169.0000 1.0000
44.4200 145.0000 1.0000
44.4400 149.0000 1.0000
44.4600 136.0000 1.0000
44.4800 133.0000 1.0000
44.5000 174.0000 1.0000
44.5200 145.0000 1.0000
44.5400 159.0000 1.0000
44.5600 147.0000 1.0000
44.5800 162.0000 1.0000
44.6000 147.0000 1.0000
44.6200 167.0000 1.0000
44.6400 183.0000 1.0000
44.6600 168.0000 1.0000
44.6800 165.0000 1.0000
44.7000 174.0000 1.0000
44.7200 185.0000 1.0000
44.7400 164.0000 1.0000
44.7600 159.0000 1.0000
44.7800 200.0000 1.0000
44.8000 174.0000 1.0000
44.8200 175.0000 1.0000
44.8400 168.0000 1.0000
44.8600 184.0000 1.0000
44.8800 195.0000 1.0000
44.9000 182.0000 1.0000
44.9200 184.0000 1.0000
44.9400 171.0000 1.0000
44.9600 165.0000 1.0000
44.9800 196.0000 1.0000
45.0000 179.0000 1.0000
45.0200 172.0000 1.0000
45.0400 180.0000 1.0000
45.0600 211.0000 1.0000
45.0800 182.0000 1.0000
45.1000 205.0000 1.0000
45.1200 203.0000 1.0000
45.1400 197.0000 1.0000
45.1600 199.0000 1.0000
45.1800 202.0000 1.0000
45.2000 222.0000 1.0000
45.2200 173.0000 1.0000
45.2400 207.0000 1.0000
45.2600 207.0000 1.0000
45.2800 178.0000 1.0000
45.3000 230.0000 1.0000
45.3200 203.0000 1.0000
45.3400 214.0000 1.0000
45.3600 200.0000 1.0000
45.3800 189.0000 1.0000
45.4000 206.0000 1.0000
45.4200 238.0000 1.0000
45.4400 210.0000 1.0000
45.4600 200.0000 1.0000
45.4800 190.0000 1.0000
45.5000 201.0000 1.0000
45.5200 218.0000 1.0000
45.5400 234.0000 1.0000
45.5600 240.0000 1.0000
45.5800 269.0000 1.0000
45.6000 299.0000 1.0000
45.6200 321.0000 1.0000
45.6400 395.0000 1.0000
45.6600 419.0000 1.0000
45.6800 459.0000 1.0000
45.7000 462.0000 1.0000
45.7200 457.0000 1.0000
45.7400 452.0000 1.0000
45.7600 401.0000 1.0000
45.7800 396.0000 1.0000
45.8000 361.0000 1.0000
45.8200 332.0000 1.0000
45.8400 335.0000 1.0000
45.8600 265.0000 1.0000
45.8800 257.0000 1.0000
45.9000 223.0000 1.0000
45.9200 212.0000 1.0000
45.9400 191.0000 1.0000
45.9600 192.0000 1.0000
45.9800 172.0000 1.0000
46.0000 175.0000 1.0000
46.0200 200.0000 1.0000
46.0400 189.0000 1.0000
46.0600 180.0000 1.0000
46.0800 176.0000 1.0000
46.1000 184.0000 1.0000
46.1200 194.0000 1.0000
46.1400 187.0000 1.0000
46.1600 170.0000 1.0000
46.1800 166.0000 1.0000
46.2000 177.0000 1.0000
46.2200 150.0000 1.0000
46.2400 158.0000 1.0000
46.2600 149.0000 1.0000
46.2800 172.0000 1.0000
46.3000 163.0000 1.0000
46.3200 179.0000 1.0000
46.3400 163.0000 1.0000
46.3600 155.0000 1.0000
46.3800 165.0000 1.0000
46.4000 164.0000 1.0000
46.4200 131.0000 1.0000
46.4400 144.0000 1.0000
46.4600 138.0000 1.0000
46.4800 120.0000 1.0000
46.5000 132.0000 1.0000
46.5200 122.0000 1.0000
46.5400 128.0000 1.0000
46.5600 115.0000 1.0000
46.5800 132.0000 1.0000
46.6000 123.0000 1.0000
46.6200 126.0000 1.0000
46.6400 128.0000 1.0000
46.6600 144.0000 1.0000
46.6800 136.0000 1.0000
46.7000 146.0000 1.0000
46.7200 135.0000 1.0000
46.7400 125.0000 1.0000
46.7600 143.0000 1.0000
46.7800 138.0000 1.0000
46.8000 132.0000 1.0000
46.8200 155.0000 1.0000
46.8400 136.0000 1.0000
46.8600 122.0000 1.0000
46.8800 130.0000 1.0000
46.9000 137.0000 1.0000
46.9200 133.0000 1.0000
46.9400 146.0000 1.0000
46.9600 150.0000 1.0000
46.9800 152.0000 1.0000
47.0000 154.0000 1.0000
47.0200 137.0000 1.0000
47.0400 154.0000 1.0000
47.0600 143.0000 1.0000
47.0800 160.0000 1.0000
47.1000 157.0000 1.0000
47.1200 141.0000 1.0000
47.1400 127.0000 1.0000
47.1600 132.0000 1.0000
47.1800 130.0000 1.0000
47.2000 142.0000 1.0000
47.2200 143.0000 1.0000
47.2400 115.0000 1.0000
47.2600 119.0000 1.0000
47.2800 123.0000 1.0000
47.3000 113.0000 1.0000
47.3200 107.0000 1.0000
47.3400 117.0000 1.0000
47.3600 108.0000 1.0000
47.3800 119.0000 1.0000
47.4000 111.0000 1.0000
47.4200 122.0000 1.0000
47.4400 134.0000 1.0000
47.4600 128.0000 1.0000
47.4800 133.0000 1.0000
47.5000 123.0000 1.0000
47.5200 119.0000 1.0000
47.5400 117.0000 1.0000
47.5600 120.0000 1.0000
47.5800 110.0000 1.0000
47.6000 120.0000 1.0000
47.6200 123.0000 1.0000
47.6400 117.0000 1.0000
47.6600 128.0000 1.0000
47.6800 128.0000 1.0000
47.7000 124.0000 1.0000
47.7200 122.0000 1.0000
47.7400 128.0000 1.0000
47.7600 128.0000 1.0000
47.7800 118.0000 1.0000
47.8000 127.0000 1.0000
47.8200 130.0000 1.0000
47.8400 131.0000 1.0000
47.8600 139.0000 1.0000
47.8800 137.0000 1.0000
47.9000 133.0000 1.0000
47.9200 123.0000 1.0000
47.9400 134.0000 1.0000
47.9600 142.0000 1.0000
47.9800 135.0000 1.0000
48.0000 133.0000 1.0000
48.0200 137.0000 1.0000
48.0400 145.0000 1.0000
48.0600 148.0000 1.0000
48.0800 158.0000 1.0000
48.1000 164.0000 1.0000
48.1200 172.0000 1.0000
48.1400 169.0000 1.0000
48.1600 160.0000 1.0000
48.1800 166.0000 1.0000
48.2000 162.0000 1.0000
48.2200 156.0000 1.0000
48.2400 152.0000 1.0000
48.2600 143.0000 1.0000
48.2800 144.0000 1.0000
48.3000 157.0000 1.0000
48.3200 148.0000 1.0000
48.3400 138.0000 1.0000
48.3600 144.0000 1.0000
48.3800 145.0000 1.0000
48.4000 144.0000 1.0000
48.4200 133.0000 1.0000
48.4400 121.0000 1.0000
48.4600 130.0000 1.0000
48.4800 141.0000 1.0000
48.5000 131.0000 1.0000
48.5200 123.0000 1.0000
48.5400 112.0000 1.0000
48.5600 128.0000 1.0000
48.5800 139.0000 1.0000
48.6000 124.0000 1.0000
48.6200 115.0000 1.0000
48.6400 137.0000 1.0000
48.6600 152.0000 1.0000
48.6800 141.0000 1.0000
48.7000 136.0000 1.0000
48.7200 135.0000 1.0000
48.7400 141.0000 1.0000
48.7600 146.0000 1.0000
48.7800 135.0000 1.0000
48.8000 129.0000 1.0000
48.8200 137.0000 1.0000
48.8400 148.0000 1.0000
48.8600 149.0000 1.0000
48.8800 137.0000 1.0000
48.9000 138.0000 1.0000
48.9200 150.0000 1.0000
48.9400 158.0000 1.0000
48.9600 147.0000 1.0000
48.9800 150.0000 1.0000
49.0000 164.0000 1.0000
49.0200 170.0000 1.0000
49.0400 185.0000 1.0000
49.0600 193.0000 1.0000
49.0800 194.0000 1.0000
49.1000 198.0000 1.0000
49.1200 202.0000 1.0000
49.1400 198.0000 1.0000
49.1600 188.0000 1.0000
49.1800 187.0000 1.0000
49.2000 197.0000 1.0000
49.2200 184.0000 1.0000
49.2400 176.0000 1.0000
49.2600 189.0000 1.0000
49.2800 187.0000 1.0000
49.3000 176.0000 1.0000
49.3200 183.0000 1.0000
49.3400 176.0000 1.0000
49.3600 174.0000 1.0000
49.3800 179.0000 1.0000
49.4000 176.0000 1.0000
49.4200 182.0000 1.0000
49.4400 193.0000 1.0000
49.4600 191.0000 1.0000
49.4800 185.0000 1.0000
49.5000 202.0000 1.0000
49.5200 233.0000 1.0000
49.5400 248.0000 1.0000
49.5600 250.0000 1.0000
49.5800 235.0000 1.0000
49.6000 236.0000 1.0000
49.6200 248.0000 1.0000
49.6400 265.0000 1.0000
49.6600 269.0000 1.0000
49.6800 255.0000 1.0000
49.7000 277.0000 1.0000
49.7200 292.0000 1.0000
49.7400 284.0000 1.0000
49.7600 273.0000 1.0000
49.7800 279.0000 1.0000
49.8000 285.0000 1.0000
49.8200 301.0000 1.0000
49.8400 343.0000 1.0000
49.8600 356.0000 1.0000
49.8800 387.0000 1.0000
49.9000 435.0000 1.0000
49.9200 504.0000 1.0000
49.9400 608.0000 1.0000
49.9600 738.0000 1.0000
49.9800 849.0000 1.0000
50.0000 1017.0000 1.0000
50.0200 1160.0000 1.0000
50.0400 1189.0000 1.0000
50.0600 1159.0000 1.0000
50.0800 1126.0000 1.0000
50.1000 1030.0000 1.0000
50.1200 934.0000 1.0000
50.1400 816.0000 1.0000
50.1600 751.0000 1.0000
50.1800 732.0000 1.0000
50.2000 667.0000 1.0000
50.2200 608.0000 1.0000
50.2400 497.0000 1.0000
50.2600 391.0000 1.0000
50.2800 316.0000 1.0000
50.3000 234.0000 1.0000
50.3200 221.0000 1.0000
50.3400 247.0000 1.0000
50.3600 218.0000 1.0000
50.3800 211.0000 1.0000
50.4000 198.0000 1.0000
50.4200 242.0000 1.0000
50.4400 230.0000 1.0000
50.4600 233.0000 1.0000
50.4800 237.0000 1.0000
50.5000 258.0000 1.0000
50.5200 273.0000 1.0000
50.5400 267.0000 1.0000
50.5600 289.0000 1.0000
50.5800 278.0000 1.0000
50.6000 272.0000 1.0000
50.6200 288.0000 1.0000
50.6400 284.0000 1.0000
50.6600 290.0000 1.0000
50.6800 280.0000 1.0000
50.7000 273.0000 1.0000
50.7200 272.0000 1.0000
50.7400 260.0000 1.0000
50.7600 236.0000 1.0000
50.7800 218.0000 1.0000
50.8000 203.0000 1.0000
50.8200 216.0000 1.0000
50.8400 208.0000 1.0000
50.8600 180.0000 1.0000
50.8800 191.0000 1.0000
50.9000 189.0000 1.0000
50.9200 170.0000 1.0000
50.9400 169.0000 1.0000
50.9600 166.0000 1.0000
50.9800 184.0000 1.0000
51.0000 192.0000 1.0000
51.0200 208.0000 1.0000
51.0400 188.0000 1.0000
51.0600 204.0000 1.0000
51.0800 219.0000 1.0000
51.1000 208.0000 1.0000
51.1200 198.0000 1.0000
51.1400 185.0000 1.0000
51.1600 202.0000 1.0000
51.1800 192.0000 1.0000
51.2000 197.0000 1.0000
51.2200 202.0000 1.0000
51.2400 182.0000 1.0000
51.2600 186.0000 1.0000
51.2800 163.0000 1.0000
51.3000 184.0000 1.0000
51.3200 182.0000 1.0000
51.3400 183.0000 1.0000
51.3600 163.0000 1.0000
51.3800 164.0000 1.0000
51.4000 172.0000 1.0000
51.4200 170.0000 1.0000
51.4400 186.0000 1.0000
51.4600 155.0000 1.0000
51.4800 188.0000 1.0000
51.5000 163.0000 1.0000
51.5200 146.0000 1.0000
51.5400 156.0000 1.0000
51.5600 144.0000 1.0000
51.5800 161.0000 1.0000
51.6000 153.0000 1.0000
51.6200 140.0000 1.0000
51.6400 127.0000 1.0000
51.6600 124.0000 1.0000
51.6800 119.0000 1.0000
51.7000 139.0000 1.0000
51.7200 159.0000 1.0000
51.7400 146.0000 1.0000
51.7600 157.0000 1.0000
51.7800 160.0000 1.0000
51.8000 143.0000 1.0000
51.8200 134.0000 1.0000
51.8400 161.0000 1.0000
51.8600 160.0000 1.0000
51.8800 155.0000 1.0000
51.9000 169.0000 1.0000
51.9200 160.0000 1.0000
51.9400 159.0000 1.0000
51.9600 190.0000 1.0000
51.9800 151.0000 1.0000
52.0000 153.0000 1.0000
52.0200 179.0000 1.0000
52.0400 190.0000 1.0000
52.0600 173.0000 1.0000
52.0800 178.0000 1.0000
52.1000 203.0000 1.0000
52.1200 186.0000 1.0000
52.1400 207.0000 1.0000
52.1600 197.0000 1.0000
52.1800 219.0000 1.0000
52.2000 187.0000 1.0000
52.2200 248.0000 1.0000
52.2400 229.0000 1.0000
52.2600 237.0000 1.0000
52.2800 264.0000 1.0000
52.3000 261.0000 1.0000
52.3200 324.0000 1.0000
52.3400 330.0000 1.0000
52.3600 396.0000 1.0000
52.3800 511.0000 1.0000
52.4000 584.0000 1.0000
52.4200 724.0000 1.0000
52.4400 764.0000 1.0000
52.4600 811.0000 1.0000
52.4800 825.0000 1.0000
52.5000 813.0000 1.0000
52.5200 725.0000 1.0000
52.5400 679.0000 1.0000
52.5600 584.0000 1.0000
52.5800 586.0000 1.0000
52.6000 579.0000 1.0000
52.6200 552.0000 1.0000
52.6400 482.0000 1.0000
52.6600 420.0000 1.0000
52.6800 341.0000 1.0000
52.7000 269.0000 1.0000
52.7200 255.0000 1.0000
52.7400 208.0000 1.0000
52.7600 179.0000 1.0000
52.7800 204.0000 1.0000
52.8000 172.0000 1.0000
52.8200 171.0000 1.0000
52.8400 177.0000 1.0000
52.8600 171.0000 1.0000
52.8800 171.0000 1.0000
52.9000 154.0000 1.0000
52.9200 151.0000 1.0000
52.9400 159.0000 1.0000
52.9600 173.0000 1.0000
52.9800 184.0000 1.0000
53.0000 165.0000 1.0000
53.0200 184.0000 1.0000
53.0400 185.0000 1.0000
53.0600 181.0000 1.0000
53.0800 156.0000 1.0000
53.1000 184.0000 1.0000
53.1200 193.0000 1.0000
53.1400 190.0000 1.0000
53.1600 184.0000 1.0000
53.1800 171.0000 1.0000
53.2000 179.0000 1.0000
53.2200 173.0000 1.0000
53.2400 167.0000 1.0000
53.2600 187.0000 1.0000
53.2800 146.0000 1.0000
53.3000 155.0000 1.0000
53.3200 166.0000 1.0000
53.3400 160.0000 1.0000
53.3600 168.0000 1.0000
53.3800 158.0000 1.0000
53.4000 169.0000 1.0000
53.4200 154.0000 1.0000
53.4400 143.0000 1.0000
53.4600 135.0000 1.0000
53.4800 145.0000 1.0000
53.5000 142.0000 1.0000
53.5200 157.0000 1.0000
53.5400 158.0000 1.0000
53.5600 136.0000 1.0000
53.5800 149.0000 1.0000
53.6000 145.0000 1.0000
53.6200 145.0000 1.0000
53.6400 141.0000 1.0000
53.6600 153.0000 1.0000
53.6800 143.0000 1.0000
53.7000 137.0000 1.0000
53.7200 139.0000 1.0000
53.7400 143.0000 1.0000
53.7600 151.0000 1.0000
53.7800 144.0000 1.0000
53.8000 162.0000 1.0000
53.8200 143.0000 1.0000
53.8400 138.0000 1.0000
53.8600 139.0000 1.0000
53.8800 141.0000 1.0000
53.9000 151.0000 1.0000
53.9200 147.0000 1.0000
53.9400 160.0000 1.0000
53.9600 156.0000 1.0000
53.9800 142.0000 1.0000
54.0000 132.0000 1.0000
54.0200 130.0000 1.0000
54.0400 133.0000 1.0000
54.0600 124.0000 1.0000
54.0800 150.0000 1.0000
54.1000 131.0000 1.0000
54.1200 125.0000 1.0000
54.1400 134.0000 1.0000
54.1600 136.0000 1.0000
54.1800 151.0000 1.0000
54.2000 135.0000 1.0000
54.2200 135.0000 1.0000
54.2400 152.0000 1.0000
54.2600 161.0000 1.0000
54.2800 150.0000 1.0000
54.3000 153.0000 1.0000
54.3200 149.0000 1.0000
54.3400 154.0000 1.0000
54.3600 139.0000 1.0000
54.3800 147.0000 1.0000
54.4000 169.0000 1.0000
54.4200 169.0000 1.0000
54.4400 159.0000 1.0000
54.4600 159.0000 1.0000
54.4800 165.0000 1.0000
54.5000 152.0000 1.0000
54.5200 148.0000 1.0000
54.5400 161.0000 1.0000
54.5600 173.0000 1.0000
54.5800 169.0000 1.0000
54.6000 184.0000 1.0000
54.6200 194.0000 1.0000
54.6400 214.0000 1.0000
54.6600 215.0000 1.0000
54.6800 260.0000 1.0000
54.7000 316.0000 1.0000
54.7200 342.0000 1.0000
54.7400 394.0000 1.0000
54.7600 436.0000 1.0000
54.7800 458.0000 1.0000
54.8000 452.0000 1.0000
54.8200 419.0000 1.0000
54.8400 381.0000 1.0000
54.8600 370.0000 1.0000
54.8800 326.0000 1.0000
54.9000 333.0000 1.0000
54.9200 326.0000 1.0000
54.9400 309.0000 1.0000
54.9600 298.0000 1.0000
54.9800 301.0000 1.0000
55.0000 260.0000 1.0000
55.0200 226.0000 1.0000
55.0400 233.0000 1.0000
55.0600 210.0000 1.0000
55.0800 187.0000 1.0000
55.1000 180.0000 1.0000
55.1200 194.0000 1.0000
55.1400 213.0000 1.0000
55.1600 225.0000 1.0000
55.1800 253.0000 1.0000
55.2000 269.0000 1.0000
55.2200 266.0000 1.0000
55.2400 273.0000 1.0000
55.2600 281.0000 1.0000
55.2800 254.0000 1.0000
55.3000 236.0000 1.0000
55.3200 223.0000 1.0000
55.3400 207.0000 1.0000
55.3600 214.0000 1.0000
55.3800 220.0000 1.0000
55.4000 224.0000 1.0000
55.4200 226.0000 1.0000
55.4400 202.0000 1.0000
55.4600 174.0000 1.0000
55.4800 167.0000 1.0000
55.5000 157.0000 1.0000
55.5200 157.0000 1.0000
55.5400 166.0000 1.0000
55.5600 159.0000 1.0000
55.5800 154.0000 1.0000
55.6000 162.0000 1.0000
55.6200 160.0000 1.0000
55.6400 161.0000 1.0000
55.6600 149.0000 1.0000
55.6800 141.0000 1.0000
55.7000 141.0000 1.0000
55.7200 139.0000 1.0000
55.7400 151.0000 1.0000
55.7600 145.0000 1.0000
55.7800 138.0000 1.0000
55.8000 140.0000 1.0000
55.8200 147.0000 1.0000
55.8400 159.0000 1.0000
55.8600 147.0000 1.0000
55.8800 142.0000 1.0000
55.9000 157.0000 1.0000
55.9200 162.0000 1.0000
55.9400 151.0000 1.0000
55.9600 147.0000 1.0000
55.9800 156.0000 1.0000
56.0000 155.0000 1.0000
56.0200 153.0000 1.0000
56.0400 156.0000 1.0000
56.0600 155.0000 1.0000
56.0800 156.0000 1.0000
56.1000 166.0000 1.0000
56.1200 161.0000 1.0000
56.1400 176.0000 1.0000
56.1600 188.0000 1.0000
56.1800 192.0000 1.0000
56.2000 197.0000 1.0000
56.2200 174.0000 1.0000
56.2400 171.0000 1.0000
56.2600 177.0000 1.0000
56.2800 188.0000 1.0000
56.3000 188.0000 1.0000
56.3200 199.0000 1.0000
56.3400 201.0000 1.0000
56.3600 200.0000 1.0000
56.3800 205.0000 1.0000
56.4000 188.0000 1.0000
56.4200 201.0000 1.0000
56.4400 217.0000 1.0000
56.4600 227.0000 1.0000
56.4800 215.0000 1.0000
56.5000 200.0000 1.0000
56.5200 205.0000 1.0000
56.5400 212.0000 1.0000
56.5600 219.0000 1.0000
56.5800 224.0000 1.0000
56.6000 215.0000 1.0000
56.6200 208.0000 1.0000
56.6400 203.0000 1.0000
56.6600 196.0000 1.0000
56.6800 204.0000 1.0000
56.7000 220.0000 1.0000
56.7200 199.0000 1.0000
56.7400 173.0000 1.0000
56.7600 175.0000 1.0000
56.7800 177.0000 1.0000
56.8000 166.0000 1.0000
56.8200 166.0000 1.0000
56.8400 159.0000 1.0000
56.8600 164.0000 1.0000
56.8800 174.0000 1.0000
56.9000 167.0000 1.0000
56.9200 164.0000 1.0000
56.9400 163.0000 1.0000
56.9600 175.0000 1.0000
56.9800 185.0000 1.0000
57.0000 173.0000 1.0000
57.0200 179.0000 1.0000
57.0400 191.0000 1.0000
57.0600 199.0000 1.0000
57.0800 206.0000 1.0000
57.1000 207.0000 1.0000
57.1200 206.0000 1.0000
57.1400 230.0000 1.0000
57.1600 253.0000 1.0000
57.1800 255.0000 1.0000
57.2000 258.0000 1.0000
57.2200 295.0000 1.0000
57.2400 331.0000 1.0000
57.2600 376.0000 1.0000
57.2800 435.0000 1.0000
57.3000 559.0000 1.0000
57.3200 684.0000 1.0000
57.3400 836.0000 1.0000
57.3600 1029.0000 1.0000
57.3800 1264.0000 1.0000
57.4000 1414.0000 1.0000
57.4200 1455.0000 1.0000
57.4400 1393.0000 1.0000
57.4600 1251.0000 1.0000
57.4800 1146.0000 1.0000
57.5000 1016.0000 1.0000
57.5200 948.0000 1.0000
57.5400 934.0000 1.0000
57.5600 858.0000 1.0000
57.5800 830.0000 1.0000
57.6000 773.0000 1.0000
57.6200 704.0000 1.0000
57.6400 539.0000 1.0000
57.6600 423.0000 1.0000
57.6800 343.0000 1.0000
57.7000 273.0000 1.0000
57.7200 246.0000 1.0000
57.7400 211.0000 1.0000
57.7600 204.0000 1.0000
57.7800 202.0000 1.0000
57.8000 187.0000 1.0000
57.8200 191.0000 1.0000
57.8400 174.0000 1.0000
57.8600 187.0000 1.0000
57.8800 152.0000 1.0000
57.9000 162.0000 1.0000
57.9200 148.0000 1.0000
57.9400 166.0000 1.0000
57.9600 158.0000 1.0000
57.9800 155.0000 1.0000
58.0000 153.0000 1.0000
58.0200 152.0000 1.0000
58.0400 176.0000 1.0000
58.0600 140.0000 1.0000
58.0800 151.0000 1.0000
58.1000 143.0000 1.0000
58.1200 129.0000 1.0000
58.1400 140.0000 1.0000
58.1600 136.0000 1.0000
58.1800 140.0000 1.0000
58.2000 151.0000 1.0000
58.2200 146.0000 1.0000
58.2400 149.0000 1.0000
58.2600 141.0000 1.0000
58.2800 133.0000 1.0000
58.3000 133.0000 1.0000
58.3200 123.0000 1.0000
58.3400 124.0000 1.0000
58.3600 131.0000 1.0000
58.3800 146.0000 1.0000
58.4000 144.0000 1.0000
58.4200 134.0000 1.0000
58.4400 111.0000 1.0000
58.4600 146.0000 1.0000
58.4800 125.0000 1.0000
58.5000 128.0000 1.0000
58.5200 133.0000 1.0000
58.5400 132.0000 1.0000
58.5600 150.0000 1.0000
58.5800 167.0000 1.0000
58.6000 150.0000 1.0000
58.6200 150.0000 1.0000
58.6400 144.0000 1.0000
58.6600 155.0000 1.0000
58.6800 179.0000 1.0000
58.7000 172.0000 1.0000
58.7200 171.0000 1.0000
58.7400 173.0000 1.0000
58.7600 157.0000 1.0000
58.7800 143.0000 1.0000
58.8000 156.0000 1.0000
58.8200 139.0000 1.0000
58.8400 147.0000 1.0000
58.8600 167.0000 1.0000
58.8800 168.0000 1.0000
58.9000 155.0000 1.0000
58.9200 164.0000 1.0000
58.9400 165.0000 1.0000
58.9600 164.0000 1.0000
58.9800 167.0000 1.0000
59.0000 156.0000 1.0000
59.0200 157.0000 1.0000
59.0400 158.0000 1.0000
59.0600 181.0000 1.0000
59.0800 168.0000 1.0000
59.1000 189.0000 1.0000
59.1200 172.0000 1.0000
59.1400 169.0000 1.0000
59.1600 165.0000 1.0000
59.1800 144.0000 1.0000
59.2000 172.0000 1.0000
59.2200 164.0000 1.0000
59.2400 171.0000 1.0000
59.2600 189.0000 1.0000
59.2800 182.0000 1.0000
59.3000 171.0000 1.0000
59.3200 164.0000 1.0000
59.3400 186.0000 1.0000
59.3600 177.0000 1.0000
59.3800 178.0000 1.0000
59.4000 191.0000 1.0000
59.4200 152.0000 1.0000
59.4400 188.0000 1.0000
59.4600 176.0000 1.0000
59.4800 199.0000 1.0000
59.5000 204.0000 1.0000
59.5200 199.0000 1.0000
59.5400 191.0000 1.0000
59.5600 213.0000 1.0000
59.5800 215.0000 1.0000
59.6000 205.0000 1.0000
59.6200 240.0000 1.0000
59.6400 225.0000 1.0000
59.6600 260.0000 1.0000
59.6800 261.0000 1.0000
59.7000 270.0000 1.0000
59.7200 313.0000 1.0000
59.7400 336.0000 1.0000
59.7600 419.0000 1.0000
59.7800 481.0000 1.0000
59.8000 547.0000 1.0000
59.8200 663.0000 1.0000
59.8400 742.0000 1.0000
59.8600 822.0000 1.0000
59.8800 869.0000 1.0000
59.9000 831.0000 1.0000
59.9200 747.0000 1.0000
59.9400 681.0000 1.0000
59.9600 615.0000 1.0000
59.9800 552.0000 1.0000
60.0000 593.0000 1.0000
60.0200 564.0000 1.0000
60.0400 530.0000 1.0000
60.0600 527.0000 1.0000
60.0800 457.0000 1.0000
60.1000 389.0000 1.0000
60.1200 378.0000 1.0000
60.1400 322.0000 1.0000
60.1600 276.0000 1.0000
60.1800 256.0000 1.0000
60.2000 221.0000 1.0000
60.2200 201.0000 1.0000
60.2400 195.0000 1.0000
60.2600 215.0000 1.0000
60.2800 206.0000 1.0000
60.3000 212.0000 1.0000
60.3200 190.0000 1.0000
60.3400 203.0000 1.0000
60.3600 185.0000 1.0000
60.3800 167.0000 1.0000
60.4000 166.0000 1.0000
60.4200 184.0000 1.0000
60.4400 190.0000 1.0000
60.4600 168.0000 1.0000
60.4800 169.0000 1.0000
60.5000 176.0000 1.0000
60.5200 204.0000 1.0000
60.5400 165.0000 1.0000
60.5600 154.0000 1.0000
60.5800 170.0000 1.0000
60.6000 169.0000 1.0000
60.6200 176.0000 1.0000
60.6400 171.0000 1.0000
60.6600 164.0000 1.0000
60.6800 169.0000 1.0000
60.7000 180.0000 1.0000
60.7200 211.0000 1.0000
60.7400 180.0000 1.0000
60.7600 180.0000 1.0000
60.7800 179.0000 1.0000
60.8000 205.0000 1.0000
60.8200 196.0000 1.0000
60.8400 209.0000 1.0000
60.8600 201.0000 1.0000
60.8800 179.0000 1.0000
60.9000 166.0000 1.0000
60.9200 186.0000 1.0000
60.9400 196.0000 1.0000
60.9600 198.0000 1.0000
60.9800 195.0000 1.0000
61.0000 194.0000 1.0000
61.0200 215.0000 1.0000
61.0400 203.0000 1.0000
61.0600 234.0000 1.0000
61.0800 236.0000 1.0000
61.1000 238.0000 1.0000
61.1200 230.0000 1.0000
61.1400 255.0000 1.0000
61.1600 252.0000 1.0000
61.1800 245.0000 1.0000
61.2000 279.0000 1.0000
61.2200 262.0000 1.0000
61.2400 245.0000 1.0000
61.2600 257.0000 1.0000
61.2800 270.0000 1.0000
61.3000 258.0000 1.0000
61.3200 231.0000 1.0000
61.3400 234.0000 1.0000
61.3600 236.0000 1.0000
61.3800 242.0000 1.0000
61.4000 241.0000 1.0000
61.4200 222.0000 1.0000
61.4400 228.0000 1.0000
61.4600 224.0000 1.0000
61.4800 196.0000 1.0000
61.5000 202.0000 1.0000
61.5200 233.0000 1.0000
61.5400 217.0000 1.0000
61.5600 195.0000 1.0000
61.5800 202.0000 1.0000
61.6000 202.0000 1.0000
61.6200 211.0000 1.0000
61.6400 203.0000 1.0000
61.6600 231.0000 1.0000
61.6800 212.0000 1.0000
61.7000 193.0000 1.0000
61.7200 201.0000 1.0000
61.7400 226.0000 1.0000
61.7600 254.0000 1.0000
61.7800 248.0000 1.0000
61.8000 254.0000 1.0000
61.8200 244.0000 1.0000
61.8400 229.0000 1.0000
61.8600 231.0000 1.0000
61.8800 223.0000 1.0000
61.9000 230.0000 1.0000
61.9200 223.0000 1.0000
61.9400 225.0000 1.0000
61.9600 218.0000 1.0000
61.9800 227.0000 1.0000
62.0000 220.0000 1.0000
62.0200 212.0000 1.0000
62.0400 202.0000 1.0000
62.0600 182.0000 1.0000
62.0800 191.0000 1.0000
62.1000 210.0000 1.0000
62.1200 172.0000 1.0000
62.1400 185.0000 1.0000
62.1600 196.0000 1.0000
62.1800 175.0000 1.0000
62.2000 174.0000 1.0000
62.2200 202.0000 1.0000
62.2400 179.0000 1.0000
62.2600 162.0000 1.0000
62.2800 155.0000 1.0000
62.3000 180.0000 1.0000
62.3200 183.0000 1.0000
62.3400 191.0000 1.0000
62.3600 178.0000 1.0000
62.3800 152.0000 1.0000
62.4000 178.0000 1.0000
62.4200 151.0000 1.0000
62.4400 154.0000 1.0000
62.4600 155.0000 1.0000
62.4800 146.0000 1.0000
62.5000 133.0000 1.0000
62.5200 150.0000 1.0000
62.5400 155.0000 1.0000
62.5600 154.0000 1.0000
62.5800 164.0000 1.0000
62.6000 142.0000 1.0000
62.6200 142.0000 1.0000
62.6400 138.0000 1.0000
62.6600 160.0000 1.0000
62.6800 166.0000 1.0000
62.7000 147.0000 1.0000
62.7200 148.0000 1.0000
62.7400 143.0000 1.0000
62.7600 159.0000 1.0000
62.7800 143.0000 1.0000
62.8000 154.0000 1.0000
62.8200 155.0000 1.0000
62.8400 136.0000 1.0000
62.8600 132.0000 1.0000
62.8800 135.0000 1.0000
62.9000 140.0000 1.0000
62.9200 131.0000 1.0000
62.9400 138.0000 1.0000
62.9600 136.0000 1.0000
62.9800 127.0000 1.0000
63.0000 147.0000 1.0000
63.0200 154.0000 1.0000
63.0400 143.0000 1.0000
63.0600 138.0000 1.0000
63.0800 117.0000 1.0000
63.1000 141.0000 1.0000
63.1200 134.0000 1.0000
63.1400 135.0000 1.0000
63.1600 117.0000 1.0000
63.1800 151.0000 1.0000
63.2000 131.0000 1.0000
63.2200 134.0000 1.0000
63.2400 144.0000 1.0000
63.2600 127.0000 1.0000
63.2800 140.0000 1.0000
63.3000 134.0000 1.0000
63.3200 144.0000 1.0000
63.3400 138.0000 1.0000
63.3600 155.0000 1.0000
63.3800 147.0000 1.0000
63.4000 133.0000 1.0000
63.4200 142.0000 1.0000
63.4400 149.0000 1.0000
63.4600 182.0000 1.0000
63.4800 144.0000 1.0000
63.5000 155.0000 1.0000
63.5200 150.0000 1.0000
63.5400 153.0000 1.0000
63.5600 158.0000 1.0000
63.5800 152.0000 1.0000
63.6000 173.0000 1.0000
63.6200 161.0000 1.0000
63.6400 160.0000 1.0000
63.6600 172.0000 1.0000
63.6800 175.0000 1.0000
63.7000 148.0000 1.0000
63.7200 178.0000 1.0000
63.7400 178.0000 1.0000
63.7600 187.0000 1.0000
63.7800 229.0000 1.0000
63.8000 172.0000 1.0000
63.8200 174.0000 1.0000
63.8400 204.0000 1.0000
63.8600 193.0000 1.0000
63.8800 226.0000 1.0000
63.9000 259.0000 1.0000
63.9200 244.0000 1.0000
63.9400 249.0000 1.0000
63.9600 237.0000 1.0000
63.9800 259.0000 1.0000
64.0000 227.0000 1.0000
64.0200 218.0000 1.0000
64.0400 211.0000 1.0000
64.0600 192.0000 1.0000
64.0800 202.0000 1.0000
64.1000 213.0000 1.0000
64.1200 199.0000 1.0000
64.1400 194.0000 1.0000
64.1600 183.0000 1.0000
64.1800 173.0000 1.0000
64.2000 162.0000 1.0000
64.2200 160.0000 1.0000
64.2400 154.0000 1.0000
64.2600 139.0000 1.0000
64.2800 130.0000 1.0000
64.3000 153.0000 1.0000
64.3200 138.0000 1.0000
64.3400 152.0000 1.0000
64.3600 148.0000 1.0000
64.3800 161.0000 1.0000
64.4000 150.0000 1.0000
64.4200 134.0000 1.0000
64.4400 133.0000 1.0000
64.4600 135.0000 1.0000
64.4800 161.0000 1.0000
64.5000 140.0000 1.0000
64.5200 139.0000 1.0000
64.5400 147.0000 1.0000
64.5600 166.0000 1.0000
64.5800 160.0000 1.0000
64.6000 160.0000 1.0000
64.6200 137.0000 1.0000
64.6400 148.0000 1.0000
64.6600 163.0000 1.0000
64.6800 152.0000 1.0000
64.7000 148.0000 1.0000
64.7200 142.0000 1.0000
64.7400 145.0000 1.0000
64.7600 151.0000 1.0000
64.7800 147.0000 1.0000
64.8000 155.0000 1.0000
64.8200 162.0000 1.0000
64.8400 137.0000 1.0000
64.8600 137.0000 1.0000
64.8800 164.0000 1.0000
64.9000 163.0000 1.0000
64.9200 164.0000 1.0000
64.9400 152.0000 1.0000
64.9600 147.0000 1.0000
64.9800 147.0000 1.0000
65.0000 147.0000 1.0000
*RAS_INT_END
*RAS_DATA_END
