*RAS_DATA_START
*RAS_HEADER_START
*CORR_POS_DB_NAME "Angle Correction ASC6 SC WITH Mono_04082019"
*CORR_POS_GONIO_RADIUS ""
*CORR_POS_NODE_INDEX01 ""
*CORR_POS_NODE_INDEX02 ""
*CORR_POS_NODE_INDEX03 ""
*CORR_POS_NODE_INDEX04 ""
*CORR_POS_NODE_INDEX05 ""
*CORR_POS_NODE_INDEX06 ""
*CORR_POS_NODE_INDEX07 ""
*CORR_POS_NODE_INDEX08 ""
*CORR_POS_NODE_INDEX09 ""
*CORR_POS_NODE_INDEX10 ""
*CORR_POS_NODE_INDEX11 ""
*CORR_POS_NODE_LABEL01 "Si(111)"
*CORR_POS_NODE_LABEL02 "Si(220)"
*CORR_POS_NODE_LABEL03 "Si(311)"
*CORR_POS_NODE_LABEL04 "Si(400)"
*CORR_POS_NODE_LABEL05 "Si(331)"
*CORR_POS_NODE_LABEL06 "Si(422)"
*CORR_POS_NODE_LABEL07 "Si(511)"
*CORR_POS_NODE_LABEL08 "Si(440)"
*CORR_POS_NODE_LABEL09 "Si(531)"
*CORR_POS_NODE_LABEL10 "Si(620)"
*CORR_POS_NODE_LABEL11 "Si(533)"
*CORR_POS_NODE_POS_CALC01 "28.377"
*CORR_POS_NODE_POS_CALC02 "47.2506"
*CORR_POS_NODE_POS_CALC03 "56.0725"
*CORR_POS_NODE_POS_CALC04 "69.0822"
*CORR_POS_NODE_POS_CALC05 "76.3294"
*CORR_POS_NODE_POS_CALC06 "87.9853"
*CORR_POS_NODE_POS_CALC07 "94.9091"
*CORR_POS_NODE_POS_CALC08 "106.668"
*CORR_POS_NODE_POS_CALC09 "114.054"
*CORR_POS_NODE_POS_CALC10 "127.511"
*CORR_POS_NODE_POS_CALC11 "136.864"
*CORR_POS_NODE_POS_MEAS01 "28.5058"
*CORR_POS_NODE_POS_MEAS02 "47.345"
*CORR_POS_NODE_POS_MEAS03 "56.1421"
*CORR_POS_NODE_POS_MEAS04 "69.1304"
*CORR_POS_NODE_POS_MEAS05 "76.366"
*CORR_POS_NODE_POS_MEAS06 "88.0213"
*CORR_POS_NODE_POS_MEAS07 "94.9406"
*CORR_POS_NODE_POS_MEAS08 "106.689"
*CORR_POS_NODE_POS_MEAS09 "114.065"
*CORR_POS_NODE_POS_MEAS10 "127.518"
*CORR_POS_NODE_POS_MEAS11 "136.869"
*CORR_POS_OPT_ATTR "集中法"
*CORR_POS_PARAM_MU ""
*CORR_POS_PARAM_PL ""
*CORR_POS_SEMODEL_TYPE "0"
*CORR_POS_STANDARD_TYPE ""
*CORR_POS_VALUE_ANALYZER "None"
*CORR_POS_VALUE_CMONO "None"
*CORR_POS_VALUE_IMONO "None"
*CORR_POS_VALUE_IS "1.250deg"
*CORR_POS_VALUE_ISL "10.0mm"
*CORR_POS_VALUE_ISOLLER "5.0deg"
*CORR_POS_VALUE_RS1 "1.250deg"
*CORR_POS_VALUE_RS2 "0.3mm"
*CORR_POS_VALUE_RSOLLER "5.0deg"
*CORR_POS_XG_FOCUS_L ""
*CORR_POS_XG_WAVE_TYPE ""
*CORR_POS_XG_WAVE_VALUE ""
*DISP_FMT_X "%.2f"
*DISP_FMT_Y "%.0f"
*DISP_FULLSCALE "2026.2000000000"
*DISP_LINE_COLOR "255.0000000000"
*DISP_LINE_STYLE "0.0000000000"
*DISP_LINE_WIDTH "0.2500000000"
*DISP_NOTE "Collected Data-2"
*DISP_OFFSET_Y "0.0000000000"
*DISP_PEAKSEARCH_UNIT_Y "CPS"
*DISP_RANGE_BOTTOM "0.0000000000"
*DISP_RANGE_LEFT "5.0000000000"
*DISP_RANGE_LOGCUTOFF "0.0100000000"
*DISP_RANGE_RIGHT "65.0000000000"
*DISP_RANGE_TOP "2026.2000000000"
*DISP_SCALE_MODE_Y "0.0000000000"
*DISP_TAB_NAME "Theta/2-Theta"
*DISP_TITLE_Y "Intensity"
*DISP_UNIT_Y "CPS"
*DISP_WINDOW_NAME "MSG_MACROENGINE"
*FILE_COMMENT " "
*FILE_MD5 ""
*FILE_MEMO " "
*FILE_OPERATOR "Administrator"
*FILE_PART_ID "MEAS_PBEA_00223"
*FILE_SAMPLE " "
*FILE_TYPE "RAS_RAW"
*FILE_USERGROUP "System Manager"
*FILE_VERSION "1.0000000000"
*HW_ATTACHMENT_ID "ATT1031"
*HW_ATTACHMENT_NAME "6サンプルチェンジャ|ASC-6"
*HW_COUNTER_ID-0 "CUT0021"
*HW_COUNTER_ID-1 "CUT0020"
*HW_COUNTER_ID-2 "CUT0020"
*HW_COUNTER_ID-3 "CMC0021"
*HW_COUNTER_NAME-0 "SC-70|SC-70"
*HW_COUNTER_NAME-1 "None|None"
*HW_COUNTER_NAME-2 "None|None"
*HW_COUNTER_NAME-3 "検出器モノクロメータ|Detector monochromator"
*HW_COUNTER_SELECT_NAME "SC-70|SC-70"
*HW_ECP_HV "671.5000000000"
*HW_ECP_HV_UNIT "V"
*HW_GONIOMETER_ID "GON0070"
*HW_GONIOMETER_NAME "MiniFlex 300/600|MiniFlex 300/600"
*HW_GONIOMETER_RADIUS-0 "79.0"
*HW_GONIOMETER_RADIUS-1 "91.5"
*HW_GONIOMETER_RADIUS-2 "150.0"
*HW_GONIOMETER_RADIUS-3 "0"
*HW_GONIOMETER_RADIUS-4 "103.4"
*HW_GONIOMETER_RADIUS-5 "150.0"
*HW_GONIOMETER_RADIUS-6 "46.6"
*HW_GONIOMETER_RADIUS-7 "160.0"
*HW_I_OPT_ID-0 "ISL0021"
*HW_I_OPT_ID-1 "ISO0021"
*HW_I_OPT_NAME-0 "発散スリット|Divergence slit"
*HW_I_OPT_NAME-1 "入射平行スリット|Incident parallel slit"
*HW_R_ATTENUATER_AUTOMODE "0"
*HW_R_OPT_ID-0 "RSS0021"
*HW_R_OPT_ID-1 "RSO0021"
*HW_R_OPT_ID-2 "RRS0021"
*HW_R_OPT_NAME-0 "散乱スリット|Scattering slit"
*HW_R_OPT_NAME-1 "受光平行スリット|Receiving soller slit"
*HW_R_OPT_NAME-2 "受光スリット|Receiving slit"
*HW_SAMPLE_HOLDER_ID "SMP0000"
*HW_SAMPLE_HOLDER_NAME "無し|None"
*HW_XG_CURRENT_MAX "15"
*HW_XG_CURRENT_MIN "2"
*HW_XG_CURRENT_RESOLUTION "1"
*HW_XG_CURRENT_UNIT "mA"
*HW_XG_FOCUS "1mm x 10mm"
*HW_XG_FOCUS_TYPE "Normal"
*HW_XG_ID "1060"
*HW_XG_NAME "300W/600W 封入管-B|300W/600W Sealed tube-B"
*HW_XG_TARGET_ATOMIC_NUMBER "29.0000000000"
*HW_XG_TARGET_NAME "Cu"
*HW_XG_TYPE "Hermetic"
*HW_XG_VOLTAGE_MAX "40"
*HW_XG_VOLTAGE_MIN "20"
*HW_XG_VOLTAGE_RESOLUTION "1"
*HW_XG_VOLTAGE_UNIT "kV"
*HW_XG_WATT_MAX "0.600"
*HW_XG_WATT_UNIT "kW"
*HW_XG_WAVE_LENGTH_ALPHA1 "1.540593"
*HW_XG_WAVE_LENGTH_ALPHA2 "1.544414"
*HW_XG_WAVE_LENGTH_BETA "1.392250"
*MEAS_COND_AXIS_NAME-0 "Theta/2-Theta"
*MEAS_COND_AXIS_NAME-1 "Spin"
*MEAS_COND_AXIS_NAME-2 "Change"
*MEAS_COND_AXIS_NAME-3 "Soller(inc.)"
*MEAS_COND_AXIS_NAME-4 "IHS"
*MEAS_COND_AXIS_NAME-5 "DS"
*MEAS_COND_AXIS_NAME-6 "SS"
*MEAS_COND_AXIS_NAME-7 "Soller(rec.)"
*MEAS_COND_AXIS_NAME-8 "RS"
*MEAS_COND_AXIS_NAME-9 "Filter"
*MEAS_COND_AXIS_NAME-10 "Monochromator"
*MEAS_COND_AXIS_NAME-11 "HV"
*MEAS_COND_AXIS_NAME-12 "PHA"
*MEAS_COND_AXIS_NAME_INTERNAL-0 "TwoThetaTheta"
*MEAS_COND_AXIS_NAME_INTERNAL-1 "Spin"
*MEAS_COND_AXIS_NAME_INTERNAL-2 "Change"
*MEAS_COND_AXIS_NAME_INTERNAL-3 "IncidentSollerSlit"
*MEAS_COND_AXIS_NAME_INTERNAL-4 "IncidentAxdSlit"
*MEAS_COND_AXIS_NAME_INTERNAL-5 "IncidentSlitBox"
*MEAS_COND_AXIS_NAME_INTERNAL-6 "ReceivingSlitBox1"
*MEAS_COND_AXIS_NAME_INTERNAL-7 "ReceivingSollerSlit"
*MEAS_COND_AXIS_NAME_INTERNAL-8 "ReceivingSlitBox2"
*MEAS_COND_AXIS_NAME_INTERNAL-9 "Filter"
*MEAS_COND_AXIS_NAME_INTERNAL-10 "CounterMonochromator"
*MEAS_COND_AXIS_NAME_INTERNAL-11 "HV"
*MEAS_COND_AXIS_NAME_INTERNAL-12 "PHA"
*MEAS_COND_AXIS_NAME_MAGICNO-0 "268632064.0000000000"
*MEAS_COND_AXIS_NAME_MAGICNO-1 "16842752.0000000000"
*MEAS_COND_AXIS_NAME_MAGICNO-2 "16842752.0000000000"
*MEAS_COND_AXIS_NAME_MAGICNO-3 "20971521.0000000000"
*MEAS_COND_AXIS_NAME_MAGICNO-4 "22020097.0000000000"
*MEAS_COND_AXIS_NAME_MAGICNO-5 "22020097.0000000000"
*MEAS_COND_AXIS_NAME_MAGICNO-6 "23068673.0000000000"
*MEAS_COND_AXIS_NAME_MAGICNO-7 "20971521.0000000000"
*MEAS_COND_AXIS_NAME_MAGICNO-8 "23068673.0000000000"
*MEAS_COND_AXIS_NAME_MAGICNO-9 "20971521.0000000000"
*MEAS_COND_AXIS_NAME_MAGICNO-10 "20971521.0000000000"
*MEAS_COND_AXIS_NAME_MAGICNO-11 "0.0000000000"
*MEAS_COND_AXIS_NAME_MAGICNO-12 "0.0000000000"
*MEAS_COND_AXIS_OFFSET-0 "0.0000000000"
*MEAS_COND_AXIS_OFFSET-1 "-"
*MEAS_COND_AXIS_OFFSET-2 "-"
*MEAS_COND_AXIS_OFFSET-3 "-"
*MEAS_COND_AXIS_OFFSET-4 "-"
*MEAS_COND_AXIS_OFFSET-5 "-"
*MEAS_COND_AXIS_OFFSET-6 "-"
*MEAS_COND_AXIS_OFFSET-7 "-"
*MEAS_COND_AXIS_OFFSET-8 "-"
*MEAS_COND_AXIS_OFFSET-9 "-"
*MEAS_COND_AXIS_OFFSET-10 "-"
*MEAS_COND_AXIS_OFFSET-11 "-"
*MEAS_COND_AXIS_OFFSET-12 "-"
*MEAS_COND_AXIS_POSITION-0 "65.0000000000"
*MEAS_COND_AXIS_POSITION-1 "0.0000000000"
*MEAS_COND_AXIS_POSITION-2 "2.0000000000"
*MEAS_COND_AXIS_POSITION-3 "5.0deg"
*MEAS_COND_AXIS_POSITION-4 "10.0mm"
*MEAS_COND_AXIS_POSITION-5 "1.250deg"
*MEAS_COND_AXIS_POSITION-6 "1.250deg"
*MEAS_COND_AXIS_POSITION-7 "5.0deg"
*MEAS_COND_AXIS_POSITION-8 "0.3mm"
*MEAS_COND_AXIS_POSITION-9 "None"
*MEAS_COND_AXIS_POSITION-10 "Bent"
*MEAS_COND_AXIS_POSITION-11 "671.5000000000"
*MEAS_COND_AXIS_POSITION-12 "551.2500000000"
*MEAS_COND_AXIS_UNIT-0 "deg"
*MEAS_COND_AXIS_UNIT-1 ""
*MEAS_COND_AXIS_UNIT-2 ""
*MEAS_COND_AXIS_UNIT-3 ""
*MEAS_COND_AXIS_UNIT-4 ""
*MEAS_COND_AXIS_UNIT-5 ""
*MEAS_COND_AXIS_UNIT-6 ""
*MEAS_COND_AXIS_UNIT-7 ""
*MEAS_COND_AXIS_UNIT-8 ""
*MEAS_COND_AXIS_UNIT-9 ""
*MEAS_COND_AXIS_UNIT-10 ""
*MEAS_COND_AXIS_UNIT-11 "V"
*MEAS_COND_AXIS_UNIT-12 "mV"
*MEAS_COND_CORRECTION_SLIT_COUNTERMONO "None"
*MEAS_COND_CORRECTION_SLIT_DS "1.250deg"
*MEAS_COND_CORRECTION_SLIT_FILTER "None"
*MEAS_COND_CORRECTION_SLIT_IHS "10.0mm"
*MEAS_COND_CORRECTION_SLIT_RS "0.3mm"
*MEAS_COND_CORRECTION_SLIT_SOLLER_INC "5.0deg"
*MEAS_COND_CORRECTION_SLIT_SOLLER_REC "5.0deg"
*MEAS_COND_CORRECTION_SLIT_SS "1.250deg"
*MEAS_COND_COUNTER_CNTLOSS_CORR "0.0000000000"
*MEAS_COND_COUNTER_PHABASE "551.2500000000"
*MEAS_COND_COUNTER_PHAWINDOW "926.2500000000"
*MEAS_COND_COUNTER_PHA_UNIT "mV"
*MEAS_COND_COUNTER_TAUDIFF "0.2500000000"
*MEAS_COND_COUNTER_TAUINT "0.7500000000"
*MEAS_COND_IRRADIATION_MODE "OFF"
*MEAS_COND_IRRADIATION_WIDTH ""
*MEAS_COND_OPT_ATTR " "
*MEAS_COND_OPT_NAME ""
*MEAS_COND_UNSYMMETRIC_MODE "OFF"
*MEAS_COND_XG_CURRENT "15.0000000000"
*MEAS_COND_XG_VOLTAGE "40.0000000000"
*MEAS_COND_XG_WAVE_TYPE "Ka"
*MEAS_DATA_COUNT "3001.0000000000"
*MEAS_SCAN_AXIS_X "Theta/2-Theta"
*MEAS_SCAN_AXIS_X_INTERNAL "TwoThetaTheta"
*MEAS_SCAN_END_TIME "04/28/25 15:51:14"
*MEAS_SCAN_MODE "STEP"
*MEAS_SCAN_MONITOR "0"
*MEAS_SCAN_RESOLUTION_X "0.0025"
*MEAS_SCAN_SPEED "2.00"
*MEAS_SCAN_SPEED_UNIT "sec."
*MEAS_SCAN_SPEED_USER "2.00"
*MEAS_SCAN_START "5.0000000000"
*MEAS_SCAN_START_TIME "04/28/25 14:05:58"
*MEAS_SCAN_STEP "0.0200000000"
*MEAS_SCAN_STOP "65.0000000000"
*MEAS_SCAN_UNIT_X "deg"
*MEAS_SCAN_UNIT_Y "counts"
*SLIT_SYSTEM "0"
*RAS_HEADER_END
*RAS_INT_START
5.0000 810.0000 1.0000
5.0200 807.0000 1.0000
5.0400 860.0000 1.0000
5.0600 841.0000 1.0000
5.0800 919.0000 1.0000
5.1000 860.0000 1.0000
5.1200 770.0000 1.0000
5.1400 814.0000 1.0000
5.1600 735.0000 1.0000
5.1800 732.0000 1.0000
5.2000 862.0000 1.0000
5.2200 844.0000 1.0000
5.2400 837.0000 1.0000
5.2600 721.0000 1.0000
5.2800 753.0000 1.0000
5.3000 708.0000 1.0000
5.3200 741.0000 1.0000
5.3400 703.0000 1.0000
5.3600 749.0000 1.0000
5.3800 743.0000 1.0000
5.4000 809.0000 1.0000
5.4200 775.0000 1.0000
5.4400 666.0000 1.0000
5.4600 653.0000 1.0000
5.4800 647.0000 1.0000
5.5000 665.0000 1.0000
5.5200 690.0000 1.0000
5.5400 704.0000 1.0000
5.5600 709.0000 1.0000
5.5800 659.0000 1.0000
5.6000 677.0000 1.0000
5.6200 711.0000 1.0000
5.6400 702.0000 1.0000
5.6600 650.0000 1.0000
5.6800 661.0000 1.0000
5.7000 672.0000 1.0000
5.7200 699.0000 1.0000
5.7400 677.0000 1.0000
5.7600 665.0000 1.0000
5.7800 666.0000 1.0000
5.8000 676.0000 1.0000
5.8200 700.0000 1.0000
5.8400 656.0000 1.0000
5.8600 618.0000 1.0000
5.8800 635.0000 1.0000
5.9000 630.0000 1.0000
5.9200 672.0000 1.0000
5.9400 629.0000 1.0000
5.9600 595.0000 1.0000
5.9800 634.0000 1.0000
6.0000 654.0000 1.0000
6.0200 682.0000 1.0000
6.0400 637.0000 1.0000
6.0600 549.0000 1.0000
6.0800 584.0000 1.0000
6.1000 625.0000 1.0000
6.1200 641.0000 1.0000
6.1400 584.0000 1.0000
6.1600 573.0000 1.0000
6.1800 553.0000 1.0000
6.2000 575.0000 1.0000
6.2200 570.0000 1.0000
6.2400 590.0000 1.0000
6.2600 546.0000 1.0000
6.2800 523.0000 1.0000
6.3000 548.0000 1.0000
6.3200 520.0000 1.0000
6.3400 536.0000 1.0000
6.3600 520.0000 1.0000
6.3800 504.0000 1.0000
6.4000 517.0000 1.0000
6.4200 509.0000 1.0000
6.4400 508.0000 1.0000
6.4600 596.0000 1.0000
6.4800 551.0000 1.0000
6.5000 488.0000 1.0000
6.5200 510.0000 1.0000
6.5400 543.0000 1.0000
6.5600 567.0000 1.0000
6.5800 525.0000 1.0000
6.6000 524.0000 1.0000
6.6200 536.0000 1.0000
6.6400 512.0000 1.0000
6.6600 508.0000 1.0000
6.6800 487.0000 1.0000
6.7000 491.0000 1.0000
6.7200 456.0000 1.0000
6.7400 485.0000 1.0000
6.7600 517.0000 1.0000
6.7800 482.0000 1.0000
6.8000 481.0000 1.0000
6.8200 487.0000 1.0000
6.8400 489.0000 1.0000
6.8600 463.0000 1.0000
6.8800 443.0000 1.0000
6.9000 420.0000 1.0000
6.9200 443.0000 1.0000
6.9400 444.0000 1.0000
6.9600 413.0000 1.0000
6.9800 444.0000 1.0000
7.0000 443.0000 1.0000
7.0200 423.0000 1.0000
7.0400 446.0000 1.0000
7.0600 471.0000 1.0000
7.0800 464.0000 1.0000
7.1000 453.0000 1.0000
7.1200 470.0000 1.0000
7.1400 440.0000 1.0000
7.1600 389.0000 1.0000
7.1800 427.0000 1.0000
7.2000 451.0000 1.0000
7.2200 422.0000 1.0000
7.2400 449.0000 1.0000
7.2600 453.0000 1.0000
7.2800 434.0000 1.0000
7.3000 402.0000 1.0000
7.3200 355.0000 1.0000
7.3400 384.0000 1.0000
7.3600 401.0000 1.0000
7.3800 385.0000 1.0000
7.4000 424.0000 1.0000
7.4200 443.0000 1.0000
7.4400 404.0000 1.0000
7.4600 418.0000 1.0000
7.4800 452.0000 1.0000
7.5000 428.0000 1.0000
7.5200 395.0000 1.0000
7.5400 377.0000 1.0000
7.5600 361.0000 1.0000
7.5800 380.0000 1.0000
7.6000 383.0000 1.0000
7.6200 365.0000 1.0000
7.6400 386.0000 1.0000
7.6600 395.0000 1.0000
7.6800 377.0000 1.0000
7.7000 398.0000 1.0000
7.7200 392.0000 1.0000
7.7400 343.0000 1.0000
7.7600 325.0000 1.0000
7.7800 358.0000 1.0000
7.8000 381.0000 1.0000
7.8200 327.0000 1.0000
7.8400 346.0000 1.0000
7.8600 371.0000 1.0000
7.8800 365.0000 1.0000
7.9000 359.0000 1.0000
7.9200 330.0000 1.0000
7.9400 325.0000 1.0000
7.9600 338.0000 1.0000
7.9800 358.0000 1.0000
8.0000 364.0000 1.0000
8.0200 333.0000 1.0000
8.0400 353.0000 1.0000
8.0600 369.0000 1.0000
8.0800 358.0000 1.0000
8.1000 330.0000 1.0000
8.1200 338.0000 1.0000
8.1400 337.0000 1.0000
8.1600 321.0000 1.0000
8.1800 349.0000 1.0000
8.2000 324.0000 1.0000
8.2200 352.0000 1.0000
8.2400 383.0000 1.0000
8.2600 382.0000 1.0000
8.2800 327.0000 1.0000
8.3000 351.0000 1.0000
8.3200 355.0000 1.0000
8.3400 329.0000 1.0000
8.3600 349.0000 1.0000
8.3800 319.0000 1.0000
8.4000 347.0000 1.0000
8.4200 351.0000 1.0000
8.4400 372.0000 1.0000
8.4600 360.0000 1.0000
8.4800 322.0000 1.0000
8.5000 332.0000 1.0000
8.5200 357.0000 1.0000
8.5400 372.0000 1.0000
8.5600 338.0000 1.0000
8.5800 364.0000 1.0000
8.6000 356.0000 1.0000
8.6200 336.0000 1.0000
8.6400 357.0000 1.0000
8.6600 339.0000 1.0000
8.6800 359.0000 1.0000
8.7000 329.0000 1.0000
8.7200 339.0000 1.0000
8.7400 297.0000 1.0000
8.7600 328.0000 1.0000
8.7800 272.0000 1.0000
8.8000 261.0000 1.0000
8.8200 288.0000 1.0000
8.8400 296.0000 1.0000
8.8600 287.0000 1.0000
8.8800 267.0000 1.0000
8.9000 262.0000 1.0000
8.9200 260.0000 1.0000
8.9400 309.0000 1.0000
8.9600 282.0000 1.0000
8.9800 248.0000 1.0000
9.0000 222.0000 1.0000
9.0200 247.0000 1.0000
9.0400 267.0000 1.0000
9.0600 260.0000 1.0000
9.0800 257.0000 1.0000
9.1000 267.0000 1.0000
9.1200 270.0000 1.0000
9.1400 268.0000 1.0000
9.1600 261.0000 1.0000
9.1800 293.0000 1.0000
9.2000 254.0000 1.0000
9.2200 221.0000 1.0000
9.2400 241.0000 1.0000
9.2600 242.0000 1.0000
9.2800 258.0000 1.0000
9.3000 219.0000 1.0000
9.3200 227.0000 1.0000
9.3400 240.0000 1.0000
9.3600 224.0000 1.0000
9.3800 207.0000 1.0000
9.4000 193.0000 1.0000
9.4200 210.0000 1.0000
9.4400 232.0000 1.0000
9.4600 231.0000 1.0000
9.4800 241.0000 1.0000
9.5000 238.0000 1.0000
9.5200 238.0000 1.0000
9.5400 227.0000 1.0000
9.5600 205.0000 1.0000
9.5800 213.0000 1.0000
9.6000 232.0000 1.0000
9.6200 227.0000 1.0000
9.6400 215.0000 1.0000
9.6600 195.0000 1.0000
9.6800 203.0000 1.0000
9.7000 224.0000 1.0000
9.7200 235.0000 1.0000
9.7400 190.0000 1.0000
9.7600 191.0000 1.0000
9.7800 185.0000 1.0000
9.8000 206.0000 1.0000
9.8200 181.0000 1.0000
9.8400 182.0000 1.0000
9.8600 199.0000 1.0000
9.8800 212.0000 1.0000
9.9000 189.0000 1.0000
9.9200 190.0000 1.0000
9.9400 212.0000 1.0000
9.9600 210.0000 1.0000
9.9800 200.0000 1.0000
10.0000 189.0000 1.0000
10.0200 196.0000 1.0000
10.0400 186.0000 1.0000
10.0600 229.0000 1.0000
10.0800 182.0000 1.0000
10.1000 189.0000 1.0000
10.1200 211.0000 1.0000
10.1400 247.0000 1.0000
10.1600 232.0000 1.0000
10.1800 241.0000 1.0000
10.2000 246.0000 1.0000
10.2200 243.0000 1.0000
10.2400 250.0000 1.0000
10.2600 262.0000 1.0000
10.2800 245.0000 1.0000
10.3000 223.0000 1.0000
10.3200 181.0000 1.0000
10.3400 181.0000 1.0000
10.3600 180.0000 1.0000
10.3800 198.0000 1.0000
10.4000 187.0000 1.0000
10.4200 172.0000 1.0000
10.4400 181.0000 1.0000
10.4600 213.0000 1.0000
10.4800 177.0000 1.0000
10.5000 174.0000 1.0000
10.5200 188.0000 1.0000
10.5400 161.0000 1.0000
10.5600 189.0000 1.0000
10.5800 155.0000 1.0000
10.6000 157.0000 1.0000
10.6200 183.0000 1.0000
10.6400 202.0000 1.0000
10.6600 191.0000 1.0000
10.6800 165.0000 1.0000
10.7000 162.0000 1.0000
10.7200 162.0000 1.0000
10.7400 169.0000 1.0000
10.7600 149.0000 1.0000
10.7800 153.0000 1.0000
10.8000 152.0000 1.0000
10.8200 150.0000 1.0000
10.8400 166.0000 1.0000
10.8600 184.0000 1.0000
10.8800 165.0000 1.0000
10.9000 153.0000 1.0000
10.9200 156.0000 1.0000
10.9400 150.0000 1.0000
10.9600 131.0000 1.0000
10.9800 145.0000 1.0000
11.0000 195.0000 1.0000
11.0200 143.0000 1.0000
11.0400 173.0000 1.0000
11.0600 164.0000 1.0000
11.0800 137.0000 1.0000
11.1000 133.0000 1.0000
11.1200 135.0000 1.0000
11.1400 158.0000 1.0000
11.1600 136.0000 1.0000
11.1800 157.0000 1.0000
11.2000 139.0000 1.0000
11.2200 148.0000 1.0000
11.2400 160.0000 1.0000
11.2600 148.0000 1.0000
11.2800 171.0000 1.0000
11.3000 154.0000 1.0000
11.3200 154.0000 1.0000
11.3400 124.0000 1.0000
11.3600 138.0000 1.0000
11.3800 179.0000 1.0000
11.4000 154.0000 1.0000
11.4200 156.0000 1.0000
11.4400 149.0000 1.0000
11.4600 189.0000 1.0000
11.4800 171.0000 1.0000
11.5000 159.0000 1.0000
11.5200 143.0000 1.0000
11.5400 165.0000 1.0000
11.5600 136.0000 1.0000
11.5800 139.0000 1.0000
11.6000 148.0000 1.0000
11.6200 130.0000 1.0000
11.6400 154.0000 1.0000
11.6600 178.0000 1.0000
11.6800 149.0000 1.0000
11.7000 152.0000 1.0000
11.7200 147.0000 1.0000
11.7400 161.0000 1.0000
11.7600 127.0000 1.0000
11.7800 176.0000 1.0000
11.8000 163.0000 1.0000
11.8200 155.0000 1.0000
11.8400 167.0000 1.0000
11.8600 164.0000 1.0000
11.8800 178.0000 1.0000
11.9000 130.0000 1.0000
11.9200 143.0000 1.0000
11.9400 139.0000 1.0000
11.9600 174.0000 1.0000
11.9800 164.0000 1.0000
12.0000 143.0000 1.0000
12.0200 168.0000 1.0000
12.0400 163.0000 1.0000
12.0600 166.0000 1.0000
12.0800 192.0000 1.0000
12.1000 159.0000 1.0000
12.1200 182.0000 1.0000
12.1400 179.0000 1.0000
12.1600 166.0000 1.0000
12.1800 189.0000 1.0000
12.2000 190.0000 1.0000
12.2200 191.0000 1.0000
12.2400 205.0000 1.0000
12.2600 195.0000 1.0000
12.2800 212.0000 1.0000
12.3000 184.0000 1.0000
12.3200 197.0000 1.0000
12.3400 182.0000 1.0000
12.3600 174.0000 1.0000
12.3800 181.0000 1.0000
12.4000 173.0000 1.0000
12.4200 169.0000 1.0000
12.4400 156.0000 1.0000
12.4600 152.0000 1.0000
12.4800 171.0000 1.0000
12.5000 168.0000 1.0000
12.5200 143.0000 1.0000
12.5400 130.0000 1.0000
12.5600 133.0000 1.0000
12.5800 149.0000 1.0000
12.6000 131.0000 1.0000
12.6200 141.0000 1.0000
12.6400 138.0000 1.0000
12.6600 140.0000 1.0000
12.6800 140.0000 1.0000
12.7000 146.0000 1.0000
12.7200 150.0000 1.0000
12.7400 142.0000 1.0000
12.7600 157.0000 1.0000
12.7800 132.0000 1.0000
12.8000 136.0000 1.0000
12.8200 111.0000 1.0000
12.8400 138.0000 1.0000
12.8600 128.0000 1.0000
12.8800 131.0000 1.0000
12.9000 144.0000 1.0000
12.9200 149.0000 1.0000
12.9400 134.0000 1.0000
12.9600 147.0000 1.0000
12.9800 133.0000 1.0000
13.0000 130.0000 1.0000
13.0200 132.0000 1.0000
13.0400 138.0000 1.0000
13.0600 129.0000 1.0000
13.0800 134.0000 1.0000
13.1000 126.0000 1.0000
13.1200 155.0000 1.0000
13.1400 144.0000 1.0000
13.1600 155.0000 1.0000
13.1800 142.0000 1.0000
13.2000 150.0000 1.0000
13.2200 163.0000 1.0000
13.2400 171.0000 1.0000
13.2600 166.0000 1.0000
13.2800 165.0000 1.0000
13.3000 174.0000 1.0000
13.3200 174.0000 1.0000
13.3400 178.0000 1.0000
13.3600 186.0000 1.0000
13.3800 189.0000 1.0000
13.4000 237.0000 1.0000
13.4200 265.0000 1.0000
13.4400 252.0000 1.0000
13.4600 245.0000 1.0000
13.4800 248.0000 1.0000
13.5000 236.0000 1.0000
13.5200 234.0000 1.0000
13.5400 240.0000 1.0000
13.5600 225.0000 1.0000
13.5800 208.0000 1.0000
13.6000 183.0000 1.0000
13.6200 169.0000 1.0000
13.6400 181.0000 1.0000
13.6600 178.0000 1.0000
13.6800 186.0000 1.0000
13.7000 178.0000 1.0000
13.7200 176.0000 1.0000
13.7400 199.0000 1.0000
13.7600 188.0000 1.0000
13.7800 170.0000 1.0000
13.8000 146.0000 1.0000
13.8200 137.0000 1.0000
13.8400 116.0000 1.0000
13.8600 128.0000 1.0000
13.8800 144.0000 1.0000
13.9000 136.0000 1.0000
13.9200 114.0000 1.0000
13.9400 107.0000 1.0000
13.9600 134.0000 1.0000
13.9800 135.0000 1.0000
14.0000 111.0000 1.0000
14.0200 101.0000 1.0000
14.0400 105.0000 1.0000
14.0600 110.0000 1.0000
14.0800 124.0000 1.0000
14.1000 126.0000 1.0000
14.1200 121.0000 1.0000
14.1400 120.0000 1.0000
14.1600 118.0000 1.0000
14.1800 115.0000 1.0000
14.2000 116.0000 1.0000
14.2200 109.0000 1.0000
14.2400 113.0000 1.0000
14.2600 121.0000 1.0000
14.2800 118.0000 1.0000
14.3000 97.0000 1.0000
14.3200 102.0000 1.0000
14.3400 119.0000 1.0000
14.3600 108.0000 1.0000
14.3800 108.0000 1.0000
14.4000 113.0000 1.0000
14.4200 112.0000 1.0000
14.4400 135.0000 1.0000
14.4600 129.0000 1.0000
14.4800 115.0000 1.0000
14.5000 125.0000 1.0000
14.5200 122.0000 1.0000
14.5400 108.0000 1.0000
14.5600 96.0000 1.0000
14.5800 112.0000 1.0000
14.6000 122.0000 1.0000
14.6200 114.0000 1.0000
14.6400 102.0000 1.0000
14.6600 100.0000 1.0000
14.6800 106.0000 1.0000
14.7000 113.0000 1.0000
14.7200 120.0000 1.0000
14.7400 130.0000 1.0000
14.7600 126.0000 1.0000
14.7800 123.0000 1.0000
14.8000 128.0000 1.0000
14.8200 117.0000 1.0000
14.8400 126.0000 1.0000
14.8600 150.0000 1.0000
14.8800 148.0000 1.0000
14.9000 134.0000 1.0000
14.9200 132.0000 1.0000
14.9400 130.0000 1.0000
14.9600 120.0000 1.0000
14.9800 126.0000 1.0000
15.0000 124.0000 1.0000
15.0200 130.0000 1.0000
15.0400 139.0000 1.0000
15.0600 122.0000 1.0000
15.0800 122.0000 1.0000
15.1000 124.0000 1.0000
15.1200 120.0000 1.0000
15.1400 127.0000 1.0000
15.1600 131.0000 1.0000
15.1800 117.0000 1.0000
15.2000 101.0000 1.0000
15.2200 103.0000 1.0000
15.2400 106.0000 1.0000
15.2600 99.0000 1.0000
15.2800 114.0000 1.0000
15.3000 128.0000 1.0000
15.3200 114.0000 1.0000
15.3400 104.0000 1.0000
15.3600 106.0000 1.0000
15.3800 106.0000 1.0000
15.4000 96.0000 1.0000
15.4200 100.0000 1.0000
15.4400 106.0000 1.0000
15.4600 108.0000 1.0000
15.4800 117.0000 1.0000
15.5000 118.0000 1.0000
15.5200 106.0000 1.0000
15.5400 101.0000 1.0000
15.5600 116.0000 1.0000
15.5800 108.0000 1.0000
15.6000 104.0000 1.0000
15.6200 108.0000 1.0000
15.6400 104.0000 1.0000
15.6600 114.0000 1.0000
15.6800 106.0000 1.0000
15.7000 95.0000 1.0000
15.7200 99.0000 1.0000
15.7400 96.0000 1.0000
15.7600 97.0000 1.0000
15.7800 102.0000 1.0000
15.8000 120.0000 1.0000
15.8200 124.0000 1.0000
15.8400 112.0000 1.0000
15.8600 104.0000 1.0000
15.8800 104.0000 1.0000
15.9000 111.0000 1.0000
15.9200 111.0000 1.0000
15.9400 108.0000 1.0000
15.9600 96.0000 1.0000
15.9800 87.0000 1.0000
16.0000 80.0000 1.0000
16.0200 84.0000 1.0000
16.0400 100.0000 1.0000
16.0600 100.0000 1.0000
16.0800 101.0000 1.0000
16.1000 97.0000 1.0000
16.1200 99.0000 1.0000
16.1400 104.0000 1.0000
16.1600 100.0000 1.0000
16.1800 95.0000 1.0000
16.2000 99.0000 1.0000
16.2200 118.0000 1.0000
16.2400 96.0000 1.0000
16.2600 93.0000 1.0000
16.2800 97.0000 1.0000
16.3000 99.0000 1.0000
16.3200 102.0000 1.0000
16.3400 99.0000 1.0000
16.3600 100.0000 1.0000
16.3800 111.0000 1.0000
16.4000 106.0000 1.0000
16.4200 115.0000 1.0000
16.4400 112.0000 1.0000
16.4600 100.0000 1.0000
16.4800 98.0000 1.0000
16.5000 99.0000 1.0000
16.5200 102.0000 1.0000
16.5400 89.0000 1.0000
16.5600 100.0000 1.0000
16.5800 101.0000 1.0000
16.6000 97.0000 1.0000
16.6200 104.0000 1.0000
16.6400 95.0000 1.0000
16.6600 94.0000 1.0000
16.6800 103.0000 1.0000
16.7000 112.0000 1.0000
16.7200 112.0000 1.0000
16.7400 96.0000 1.0000
16.7600 83.0000 1.0000
16.7800 93.0000 1.0000
16.8000 98.0000 1.0000
16.8200 110.0000 1.0000
16.8400 97.0000 1.0000
16.8600 107.0000 1.0000
16.8800 105.0000 1.0000
16.9000 98.0000 1.0000
16.9200 106.0000 1.0000
16.9400 92.0000 1.0000
16.9600 97.0000 1.0000
16.9800 98.0000 1.0000
17.0000 98.0000 1.0000
17.0200 96.0000 1.0000
17.0400 98.0000 1.0000
17.0600 98.0000 1.0000
17.0800 100.0000 1.0000
17.1000 98.0000 1.0000
17.1200 106.0000 1.0000
17.1400 96.0000 1.0000
17.1600 105.0000 1.0000
17.1800 95.0000 1.0000
17.2000 109.0000 1.0000
17.2200 115.0000 1.0000
17.2400 98.0000 1.0000
17.2600 99.0000 1.0000
17.2800 108.0000 1.0000
17.3000 94.0000 1.0000
17.3200 105.0000 1.0000
17.3400 111.0000 1.0000
17.3600 98.0000 1.0000
17.3800 95.0000 1.0000
17.4000 93.0000 1.0000
17.4200 102.0000 1.0000
17.4400 111.0000 1.0000
17.4600 111.0000 1.0000
17.4800 113.0000 1.0000
17.5000 129.0000 1.0000
17.5200 117.0000 1.0000
17.5400 108.0000 1.0000
17.5600 104.0000 1.0000
17.5800 100.0000 1.0000
17.6000 111.0000 1.0000
17.6200 127.0000 1.0000
17.6400 107.0000 1.0000
17.6600 111.0000 1.0000
17.6800 111.0000 1.0000
17.7000 104.0000 1.0000
17.7200 114.0000 1.0000
17.7400 119.0000 1.0000
17.7600 115.0000 1.0000
17.7800 111.0000 1.0000
17.8000 109.0000 1.0000
17.8200 121.0000 1.0000
17.8400 123.0000 1.0000
17.8600 108.0000 1.0000
17.8800 122.0000 1.0000
17.9000 111.0000 1.0000
17.9200 107.0000 1.0000
17.9400 116.0000 1.0000
17.9600 115.0000 1.0000
17.9800 105.0000 1.0000
18.0000 118.0000 1.0000
18.0200 122.0000 1.0000
18.0400 113.0000 1.0000
18.0600 126.0000 1.0000
18.0800 135.0000 1.0000
18.1000 143.0000 1.0000
18.1200 133.0000 1.0000
18.1400 136.0000 1.0000
18.1600 138.0000 1.0000
18.1800 144.0000 1.0000
18.2000 138.0000 1.0000
18.2200 130.0000 1.0000
18.2400 123.0000 1.0000
18.2600 118.0000 1.0000
18.2800 116.0000 1.0000
18.3000 111.0000 1.0000
18.3200 117.0000 1.0000
18.3400 136.0000 1.0000
18.3600 126.0000 1.0000
18.3800 104.0000 1.0000
18.4000 123.0000 1.0000
18.4200 103.0000 1.0000
18.4400 124.0000 1.0000
18.4600 111.0000 1.0000
18.4800 120.0000 1.0000
18.5000 119.0000 1.0000
18.5200 125.0000 1.0000
18.5400 119.0000 1.0000
18.5600 108.0000 1.0000
18.5800 122.0000 1.0000
18.6000 141.0000 1.0000
18.6200 159.0000 1.0000
18.6400 156.0000 1.0000
18.6600 164.0000 1.0000
18.6800 171.0000 1.0000
18.7000 187.0000 1.0000
18.7200 161.0000 1.0000
18.7400 188.0000 1.0000
18.7600 183.0000 1.0000
18.7800 163.0000 1.0000
18.8000 159.0000 1.0000
18.8200 149.0000 1.0000
18.8400 140.0000 1.0000
18.8600 128.0000 1.0000
18.8800 138.0000 1.0000
18.9000 137.0000 1.0000
18.9200 118.0000 1.0000
18.9400 144.0000 1.0000
18.9600 132.0000 1.0000
18.9800 152.0000 1.0000
19.0000 152.0000 1.0000
19.0200 173.0000 1.0000
19.0400 176.0000 1.0000
19.0600 167.0000 1.0000
19.0800 168.0000 1.0000
19.1000 182.0000 1.0000
19.1200 196.0000 1.0000
19.1400 199.0000 1.0000
19.1600 203.0000 1.0000
19.1800 190.0000 1.0000
19.2000 178.0000 1.0000
19.2200 191.0000 1.0000
19.2400 163.0000 1.0000
19.2600 144.0000 1.0000
19.2800 159.0000 1.0000
19.3000 148.0000 1.0000
19.3200 151.0000 1.0000
19.3400 137.0000 1.0000
19.3600 134.0000 1.0000
19.3800 150.0000 1.0000
19.4000 128.0000 1.0000
19.4200 128.0000 1.0000
19.4400 145.0000 1.0000
19.4600 137.0000 1.0000
19.4800 127.0000 1.0000
19.5000 158.0000 1.0000
19.5200 160.0000 1.0000
19.5400 158.0000 1.0000
19.5600 179.0000 1.0000
19.5800 166.0000 1.0000
19.6000 137.0000 1.0000
19.6200 180.0000 1.0000
19.6400 175.0000 1.0000
19.6600 185.0000 1.0000
19.6800 148.0000 1.0000
19.7000 168.0000 1.0000
19.7200 156.0000 1.0000
19.7400 163.0000 1.0000
19.7600 171.0000 1.0000
19.7800 187.0000 1.0000
19.8000 179.0000 1.0000
19.8200 169.0000 1.0000
19.8400 153.0000 1.0000
19.8600 154.0000 1.0000
19.8800 164.0000 1.0000
19.9000 149.0000 1.0000
19.9200 137.0000 1.0000
19.9400 142.0000 1.0000
19.9600 134.0000 1.0000
19.9800 159.0000 1.0000
20.0000 131.0000 1.0000
20.0200 113.0000 1.0000
20.0400 125.0000 1.0000
20.0600 120.0000 1.0000
20.0800 141.0000 1.0000
20.1000 123.0000 1.0000
20.1200 123.0000 1.0000
20.1400 140.0000 1.0000
20.1600 105.0000 1.0000
20.1800 131.0000 1.0000
20.2000 136.0000 1.0000
20.2200 115.0000 1.0000
20.2400 119.0000 1.0000
20.2600 137.0000 1.0000
20.2800 146.0000 1.0000
20.3000 160.0000 1.0000
20.3200 145.0000 1.0000
20.3400 143.0000 1.0000
20.3600 153.0000 1.0000
20.3800 181.0000 1.0000
20.4000 174.0000 1.0000
20.4200 149.0000 1.0000
20.4400 181.0000 1.0000
20.4600 201.0000 1.0000
20.4800 206.0000 1.0000
20.5000 188.0000 1.0000
20.5200 224.0000 1.0000
20.5400 246.0000 1.0000
20.5600 283.0000 1.0000
20.5800 319.0000 1.0000
20.6000 403.0000 1.0000
20.6200 520.0000 1.0000
20.6400 573.0000 1.0000
20.6600 672.0000 1.0000
20.6800 742.0000 1.0000
20.7000 783.0000 1.0000
20.7200 770.0000 1.0000
20.7400 738.0000 1.0000
20.7600 610.0000 1.0000
20.7800 461.0000 1.0000
20.8000 368.0000 1.0000
20.8200 278.0000 1.0000
20.8400 241.0000 1.0000
20.8600 213.0000 1.0000
20.8800 205.0000 1.0000
20.9000 215.0000 1.0000
20.9200 209.0000 1.0000
20.9400 207.0000 1.0000
20.9600 200.0000 1.0000
20.9800 193.0000 1.0000
21.0000 207.0000 1.0000
21.0200 177.0000 1.0000
21.0400 173.0000 1.0000
21.0600 174.0000 1.0000
21.0800 164.0000 1.0000
21.1000 147.0000 1.0000
21.1200 139.0000 1.0000
21.1400 141.0000 1.0000
21.1600 138.0000 1.0000
21.1800 131.0000 1.0000
21.2000 132.0000 1.0000
21.2200 135.0000 1.0000
21.2400 120.0000 1.0000
21.2600 129.0000 1.0000
21.2800 127.0000 1.0000
21.3000 136.0000 1.0000
21.3200 160.0000 1.0000
21.3400 144.0000 1.0000
21.3600 139.0000 1.0000
21.3800 136.0000 1.0000
21.4000 123.0000 1.0000
21.4200 142.0000 1.0000
21.4400 107.0000 1.0000
21.4600 146.0000 1.0000
21.4800 142.0000 1.0000
21.5000 142.0000 1.0000
21.5200 157.0000 1.0000
21.5400 151.0000 1.0000
21.5600 152.0000 1.0000
21.5800 164.0000 1.0000
21.6000 155.0000 1.0000
21.6200 186.0000 1.0000
21.6400 191.0000 1.0000
21.6600 197.0000 1.0000
21.6800 215.0000 1.0000
21.7000 264.0000 1.0000
21.7200 318.0000 1.0000
21.7400 312.0000 1.0000
21.7600 364.0000 1.0000
21.7800 385.0000 1.0000
21.8000 428.0000 1.0000
21.8200 396.0000 1.0000
21.8400 404.0000 1.0000
21.8600 430.0000 1.0000
21.8800 326.0000 1.0000
21.9000 295.0000 1.0000
21.9200 253.0000 1.0000
21.9400 222.0000 1.0000
21.9600 179.0000 1.0000
21.9800 159.0000 1.0000
22.0000 150.0000 1.0000
22.0200 146.0000 1.0000
22.0400 124.0000 1.0000
22.0600 124.0000 1.0000
22.0800 135.0000 1.0000
22.1000 129.0000 1.0000
22.1200 108.0000 1.0000
22.1400 103.0000 1.0000
22.1600 113.0000 1.0000
22.1800 122.0000 1.0000
22.2000 122.0000 1.0000
22.2200 133.0000 1.0000
22.2400 120.0000 1.0000
22.2600 111.0000 1.0000
22.2800 120.0000 1.0000
22.3000 119.0000 1.0000
22.3200 135.0000 1.0000
22.3400 160.0000 1.0000
22.3600 141.0000 1.0000
22.3800 134.0000 1.0000
22.4000 134.0000 1.0000
22.4200 134.0000 1.0000
22.4400 134.0000 1.0000
22.4600 140.0000 1.0000
22.4800 150.0000 1.0000
22.5000 152.0000 1.0000
22.5200 158.0000 1.0000
22.5400 145.0000 1.0000
22.5600 155.0000 1.0000
22.5800 164.0000 1.0000
22.6000 173.0000 1.0000
22.6200 185.0000 1.0000
22.6400 190.0000 1.0000
22.6600 177.0000 1.0000
22.6800 183.0000 1.0000
22.7000 170.0000 1.0000
22.7200 177.0000 1.0000
22.7400 174.0000 1.0000
22.7600 162.0000 1.0000
22.7800 144.0000 1.0000
22.8000 152.0000 1.0000
22.8200 144.0000 1.0000
22.8400 140.0000 1.0000
22.8600 140.0000 1.0000
22.8800 150.0000 1.0000
22.9000 144.0000 1.0000
22.9200 141.0000 1.0000
22.9400 123.0000 1.0000
22.9600 124.0000 1.0000
22.9800 132.0000 1.0000
23.0000 131.0000 1.0000
23.0200 139.0000 1.0000
23.0400 130.0000 1.0000
23.0600 125.0000 1.0000
23.0800 134.0000 1.0000
23.1000 157.0000 1.0000
23.1200 130.0000 1.0000
23.1400 134.0000 1.0000
23.1600 140.0000 1.0000
23.1800 155.0000 1.0000
23.2000 156.0000 1.0000
23.2200 162.0000 1.0000
23.2400 182.0000 1.0000
23.2600 198.0000 1.0000
23.2800 204.0000 1.0000
23.3000 216.0000 1.0000
23.3200 258.0000 1.0000
23.3400 296.0000 1.0000
23.3600 332.0000 1.0000
23.3800 371.0000 1.0000
23.4000 431.0000 1.0000
23.4200 438.0000 1.0000
23.4400 439.0000 1.0000
23.4600 491.0000 1.0000
23.4800 477.0000 1.0000
23.5000 483.0000 1.0000
23.5200 487.0000 1.0000
23.5400 478.0000 1.0000
23.5600 461.0000 1.0000
23.5800 417.0000 1.0000
23.6000 402.0000 1.0000
23.6200 402.0000 1.0000
23.6400 348.0000 1.0000
23.6600 333.0000 1.0000
23.6800 292.0000 1.0000
23.7000 278.0000 1.0000
23.7200 263.0000 1.0000
23.7400 254.0000 1.0000
23.7600 245.0000 1.0000
23.7800 205.0000 1.0000
23.8000 185.0000 1.0000
23.8200 194.0000 1.0000
23.8400 187.0000 1.0000
23.8600 173.0000 1.0000
23.8800 162.0000 1.0000
23.9000 177.0000 1.0000
23.9200 180.0000 1.0000
23.9400 170.0000 1.0000
23.9600 168.0000 1.0000
23.9800 170.0000 1.0000
24.0000 184.0000 1.0000
24.0200 193.0000 1.0000
24.0400 189.0000 1.0000
24.0600 179.0000 1.0000
24.0800 183.0000 1.0000
24.1000 224.0000 1.0000
24.1200 213.0000 1.0000
24.1400 210.0000 1.0000
24.1600 239.0000 1.0000
24.1800 269.0000 1.0000
24.2000 266.0000 1.0000
24.2200 266.0000 1.0000
24.2400 274.0000 1.0000
24.2600 301.0000 1.0000
24.2800 298.0000 1.0000
24.3000 300.0000 1.0000
24.3200 291.0000 1.0000
24.3400 290.0000 1.0000
24.3600 254.0000 1.0000
24.3800 243.0000 1.0000
24.4000 239.0000 1.0000
24.4200 199.0000 1.0000
24.4400 210.0000 1.0000
24.4600 195.0000 1.0000
24.4800 167.0000 1.0000
24.5000 138.0000 1.0000
24.5200 143.0000 1.0000
24.5400 142.0000 1.0000
24.5600 136.0000 1.0000
24.5800 137.0000 1.0000
24.6000 125.0000 1.0000
24.6200 123.0000 1.0000
24.6400 128.0000 1.0000
24.6600 135.0000 1.0000
24.6800 136.0000 1.0000
24.7000 131.0000 1.0000
24.7200 130.0000 1.0000
24.7400 143.0000 1.0000
24.7600 128.0000 1.0000
24.7800 123.0000 1.0000
24.8000 118.0000 1.0000
24.8200 138.0000 1.0000
24.8400 142.0000 1.0000
24.8600 126.0000 1.0000
24.8800 127.0000 1.0000
24.9000 148.0000 1.0000
24.9200 147.0000 1.0000
24.9400 151.0000 1.0000
24.9600 160.0000 1.0000
24.9800 161.0000 1.0000
25.0000 171.0000 1.0000
25.0200 167.0000 1.0000
25.0400 174.0000 1.0000
25.0600 169.0000 1.0000
25.0800 171.0000 1.0000
25.1000 168.0000 1.0000
25.1200 170.0000 1.0000
25.1400 170.0000 1.0000
25.1600 190.0000 1.0000
25.1800 201.0000 1.0000
25.2000 215.0000 1.0000
25.2200 227.0000 1.0000
25.2400 272.0000 1.0000
25.2600 306.0000 1.0000
25.2800 367.0000 1.0000
25.3000 385.0000 1.0000
25.3200 458.0000 1.0000
25.3400 568.0000 1.0000
25.3600 679.0000 1.0000
25.3800 786.0000 1.0000
25.4000 873.0000 1.0000
25.4200 938.0000 1.0000
25.4400 942.0000 1.0000
25.4600 863.0000 1.0000
25.4800 738.0000 1.0000
25.5000 584.0000 1.0000
25.5200 477.0000 1.0000
25.5400 435.0000 1.0000
25.5600 388.0000 1.0000
25.5800 320.0000 1.0000
25.6000 279.0000 1.0000
25.6200 250.0000 1.0000
25.6400 237.0000 1.0000
25.6600 223.0000 1.0000
25.6800 194.0000 1.0000
25.7000 164.0000 1.0000
25.7200 177.0000 1.0000
25.7400 190.0000 1.0000
25.7600 186.0000 1.0000
25.7800 167.0000 1.0000
25.8000 166.0000 1.0000
25.8200 166.0000 1.0000
25.8400 190.0000 1.0000
25.8600 189.0000 1.0000
25.8800 175.0000 1.0000
25.9000 164.0000 1.0000
25.9200 175.0000 1.0000
25.9400 188.0000 1.0000
25.9600 177.0000 1.0000
25.9800 179.0000 1.0000
26.0000 184.0000 1.0000
26.0200 184.0000 1.0000
26.0400 189.0000 1.0000
26.0600 199.0000 1.0000
26.0800 218.0000 1.0000
26.1000 230.0000 1.0000
26.1200 246.0000 1.0000
26.1400 257.0000 1.0000
26.1600 295.0000 1.0000
26.1800 319.0000 1.0000
26.2000 345.0000 1.0000
26.2200 412.0000 1.0000
26.2400 494.0000 1.0000
26.2600 547.0000 1.0000
26.2800 556.0000 1.0000
26.3000 648.0000 1.0000
26.3200 820.0000 1.0000
26.3400 1017.0000 1.0000
26.3600 1229.0000 1.0000
26.3800 1486.0000 1.0000
26.4000 1857.0000 1.0000
26.4200 2315.0000 1.0000
26.4400 2834.0000 1.0000
26.4600 3224.0000 1.0000
26.4800 3377.0000 1.0000
26.5000 3333.0000 1.0000
26.5200 3019.0000 1.0000
26.5400 2547.0000 1.0000
26.5600 2010.0000 1.0000
26.5800 1518.0000 1.0000
26.6000 1148.0000 1.0000
26.6200 821.0000 1.0000
26.6400 589.0000 1.0000
26.6600 483.0000 1.0000
26.6800 435.0000 1.0000
26.7000 415.0000 1.0000
26.7200 389.0000 1.0000
26.7400 386.0000 1.0000
26.7600 390.0000 1.0000
26.7800 354.0000 1.0000
26.8000 332.0000 1.0000
26.8200 345.0000 1.0000
26.8400 340.0000 1.0000
26.8600 334.0000 1.0000
26.8800 318.0000 1.0000
26.9000 328.0000 1.0000
26.9200 333.0000 1.0000
26.9400 289.0000 1.0000
26.9600 269.0000 1.0000
26.9800 267.0000 1.0000
27.0000 272.0000 1.0000
27.0200 305.0000 1.0000
27.0400 308.0000 1.0000
27.0600 278.0000 1.0000
27.0800 265.0000 1.0000
27.1000 285.0000 1.0000
27.1200 307.0000 1.0000
27.1400 310.0000 1.0000
27.1600 309.0000 1.0000
27.1800 330.0000 1.0000
27.2000 368.0000 1.0000
27.2200 413.0000 1.0000
27.2400 431.0000 1.0000
27.2600 479.0000 1.0000
27.2800 526.0000 1.0000
27.3000 581.0000 1.0000
27.3200 662.0000 1.0000
27.3400 712.0000 1.0000
27.3600 710.0000 1.0000
27.3800 726.0000 1.0000
27.4000 771.0000 1.0000
27.4200 778.0000 1.0000
27.4400 768.0000 1.0000
27.4600 775.0000 1.0000
27.4800 802.0000 1.0000
27.5000 806.0000 1.0000
27.5200 830.0000 1.0000
27.5400 876.0000 1.0000
27.5600 974.0000 1.0000
27.5800 1052.0000 1.0000
27.6000 1102.0000 1.0000
27.6200 1169.0000 1.0000
27.6400 1234.0000 1.0000
27.6600 1284.0000 1.0000
27.6800 1284.0000 1.0000
27.7000 1217.0000 1.0000
27.7200 1101.0000 1.0000
27.7400 1021.0000 1.0000
27.7600 986.0000 1.0000
27.7800 1010.0000 1.0000
27.8000 999.0000 1.0000
27.8200 966.0000 1.0000
27.8400 999.0000 1.0000
27.8600 1047.0000 1.0000
27.8800 1028.0000 1.0000
27.9000 960.0000 1.0000
27.9200 860.0000 1.0000
27.9400 708.0000 1.0000
27.9600 582.0000 1.0000
27.9800 495.0000 1.0000
28.0000 423.0000 1.0000
28.0200 372.0000 1.0000
28.0400 331.0000 1.0000
28.0600 285.0000 1.0000
28.0800 257.0000 1.0000
28.1000 258.0000 1.0000
28.1200 266.0000 1.0000
28.1400 266.0000 1.0000
28.1600 273.0000 1.0000
28.1800 268.0000 1.0000
28.2000 285.0000 1.0000
28.2200 306.0000 1.0000
28.2400 300.0000 1.0000
28.2600 299.0000 1.0000
28.2800 300.0000 1.0000
28.3000 283.0000 1.0000
28.3200 280.0000 1.0000
28.3400 261.0000 1.0000
28.3600 223.0000 1.0000
28.3800 216.0000 1.0000
28.4000 188.0000 1.0000
28.4200 159.0000 1.0000
28.4400 154.0000 1.0000
28.4600 153.0000 1.0000
28.4800 143.0000 1.0000
28.5000 143.0000 1.0000
28.5200 142.0000 1.0000
28.5400 138.0000 1.0000
28.5600 136.0000 1.0000
28.5800 128.0000 1.0000
28.6000 123.0000 1.0000
28.6200 133.0000 1.0000
28.6400 130.0000 1.0000
28.6600 130.0000 1.0000
28.6800 130.0000 1.0000
28.7000 130.0000 1.0000
28.7200 133.0000 1.0000
28.7400 137.0000 1.0000
28.7600 133.0000 1.0000
28.7800 138.0000 1.0000
28.8000 157.0000 1.0000
28.8200 142.0000 1.0000
28.8400 131.0000 1.0000
28.8600 137.0000 1.0000
28.8800 143.0000 1.0000
28.9000 141.0000 1.0000
28.9200 155.0000 1.0000
28.9400 163.0000 1.0000
28.9600 145.0000 1.0000
28.9800 151.0000 1.0000
29.0000 168.0000 1.0000
29.0200 168.0000 1.0000
29.0400 159.0000 1.0000
29.0600 174.0000 1.0000
29.0800 176.0000 1.0000
29.1000 183.0000 1.0000
29.1200 186.0000 1.0000
29.1400 194.0000 1.0000
29.1600 208.0000 1.0000
29.1800 249.0000 1.0000
29.2000 269.0000 1.0000
29.2200 266.0000 1.0000
29.2400 256.0000 1.0000
29.2600 275.0000 1.0000
29.2800 333.0000 1.0000
29.3000 370.0000 1.0000
29.3200 397.0000 1.0000
29.3400 424.0000 1.0000
29.3600 438.0000 1.0000
29.3800 455.0000 1.0000
29.4000 511.0000 1.0000
29.4200 548.0000 1.0000
29.4400 567.0000 1.0000
29.4600 574.0000 1.0000
29.4800 615.0000 1.0000
29.5000 647.0000 1.0000
29.5200 661.0000 1.0000
29.5400 706.0000 1.0000
29.5600 764.0000 1.0000
29.5800 794.0000 1.0000
29.6000 836.0000 1.0000
29.6200 863.0000 1.0000
29.6400 845.0000 1.0000
29.6600 833.0000 1.0000
29.6800 816.0000 1.0000
29.7000 753.0000 1.0000
29.7200 650.0000 1.0000
29.7400 624.0000 1.0000
29.7600 579.0000 1.0000
29.7800 531.0000 1.0000
29.8000 498.0000 1.0000
29.8200 487.0000 1.0000
29.8400 495.0000 1.0000
29.8600 473.0000 1.0000
29.8800 481.0000 1.0000
29.9000 494.0000 1.0000
29.9200 475.0000 1.0000
29.9400 503.0000 1.0000
29.9600 567.0000 1.0000
29.9800 592.0000 1.0000
30.0000 590.0000 1.0000
30.0200 618.0000 1.0000
30.0400 637.0000 1.0000
30.0600 644.0000 1.0000
30.0800 659.0000 1.0000
30.1000 679.0000 1.0000
30.1200 657.0000 1.0000
30.1400 649.0000 1.0000
30.1600 633.0000 1.0000
30.1800 571.0000 1.0000
30.2000 537.0000 1.0000
30.2200 537.0000 1.0000
30.2400 509.0000 1.0000
30.2600 488.0000 1.0000
30.2800 446.0000 1.0000
30.3000 425.0000 1.0000
30.3200 414.0000 1.0000
30.3400 380.0000 1.0000
30.3600 387.0000 1.0000
30.3800 418.0000 1.0000
30.4000 407.0000 1.0000
30.4200 342.0000 1.0000
30.4400 349.0000 1.0000
30.4600 370.0000 1.0000
30.4800 381.0000 1.0000
30.5000 379.0000 1.0000
30.5200 402.0000 1.0000
30.5400 452.0000 1.0000
30.5600 455.0000 1.0000
30.5800 509.0000 1.0000
30.6000 534.0000 1.0000
30.6200 555.0000 1.0000
30.6400 591.0000 1.0000
30.6600 596.0000 1.0000
30.6800 569.0000 1.0000
30.7000 549.0000 1.0000
30.7200 531.0000 1.0000
30.7400 530.0000 1.0000
30.7600 520.0000 1.0000
30.7800 459.0000 1.0000
30.8000 389.0000 1.0000
30.8200 375.0000 1.0000
30.8400 333.0000 1.0000
30.8600 294.0000 1.0000
30.8800 270.0000 1.0000
30.9000 212.0000 1.0000
30.9200 191.0000 1.0000
30.9400 204.0000 1.0000
30.9600 189.0000 1.0000
30.9800 160.0000 1.0000
31.0000 187.0000 1.0000
31.0200 177.0000 1.0000
31.0400 154.0000 1.0000
31.0600 144.0000 1.0000
31.0800 155.0000 1.0000
31.1000 154.0000 1.0000
31.1200 149.0000 1.0000
31.1400 150.0000 1.0000
31.1600 158.0000 1.0000
31.1800 145.0000 1.0000
31.2000 168.0000 1.0000
31.2200 194.0000 1.0000
31.2400 202.0000 1.0000
31.2600 197.0000 1.0000
31.2800 215.0000 1.0000
31.3000 221.0000 1.0000
31.3200 238.0000 1.0000
31.3400 246.0000 1.0000
31.3600 242.0000 1.0000
31.3800 222.0000 1.0000
31.4000 209.0000 1.0000
31.4200 195.0000 1.0000
31.4400 185.0000 1.0000
31.4600 191.0000 1.0000
31.4800 165.0000 1.0000
31.5000 152.0000 1.0000
31.5200 168.0000 1.0000
31.5400 149.0000 1.0000
31.5600 143.0000 1.0000
31.5800 155.0000 1.0000
31.6000 143.0000 1.0000
31.6200 139.0000 1.0000
31.6400 155.0000 1.0000
31.6600 150.0000 1.0000
31.6800 157.0000 1.0000
31.7000 141.0000 1.0000
31.7200 159.0000 1.0000
31.7400 143.0000 1.0000
31.7600 164.0000 1.0000
31.7800 150.0000 1.0000
31.8000 137.0000 1.0000
31.8200 136.0000 1.0000
31.8400 123.0000 1.0000
31.8600 126.0000 1.0000
31.8800 128.0000 1.0000
31.9000 121.0000 1.0000
31.9200 118.0000 1.0000
31.9400 119.0000 1.0000
31.9600 129.0000 1.0000
31.9800 124.0000 1.0000
32.0000 130.0000 1.0000
32.0200 135.0000 1.0000
32.0400 139.0000 1.0000
32.0600 148.0000 1.0000
32.0800 143.0000 1.0000
32.1000 154.0000 1.0000
32.1200 154.0000 1.0000
32.1400 172.0000 1.0000
32.1600 184.0000 1.0000
32.1800 213.0000 1.0000
32.2000 201.0000 1.0000
32.2200 222.0000 1.0000
32.2400 229.0000 1.0000
32.2600 237.0000 1.0000
32.2800 277.0000 1.0000
32.3000 316.0000 1.0000
32.3200 358.0000 1.0000
32.3400 403.0000 1.0000
32.3600 378.0000 1.0000
32.3800 440.0000 1.0000
32.4000 426.0000 1.0000
32.4200 430.0000 1.0000
32.4400 465.0000 1.0000
32.4600 423.0000 1.0000
32.4800 375.0000 1.0000
32.5000 370.0000 1.0000
32.5200 324.0000 1.0000
32.5400 273.0000 1.0000
32.5600 257.0000 1.0000
32.5800 237.0000 1.0000
32.6000 219.0000 1.0000
32.6200 194.0000 1.0000
32.6400 197.0000 1.0000
32.6600 195.0000 1.0000
32.6800 173.0000 1.0000
32.7000 150.0000 1.0000
32.7200 156.0000 1.0000
32.7400 151.0000 1.0000
32.7600 139.0000 1.0000
32.7800 132.0000 1.0000
32.8000 135.0000 1.0000
32.8200 118.0000 1.0000
32.8400 134.0000 1.0000
32.8600 140.0000 1.0000
32.8800 131.0000 1.0000
32.9000 103.0000 1.0000
32.9200 119.0000 1.0000
32.9400 120.0000 1.0000
32.9600 138.0000 1.0000
32.9800 105.0000 1.0000
33.0000 121.0000 1.0000
33.0200 100.0000 1.0000
33.0400 107.0000 1.0000
33.0600 96.0000 1.0000
33.0800 104.0000 1.0000
33.1000 103.0000 1.0000
33.1200 97.0000 1.0000
33.1400 119.0000 1.0000
33.1600 101.0000 1.0000
33.1800 108.0000 1.0000
33.2000 103.0000 1.0000
33.2200 103.0000 1.0000
33.2400 96.0000 1.0000
33.2600 98.0000 1.0000
33.2800 104.0000 1.0000
33.3000 90.0000 1.0000
33.3200 82.0000 1.0000
33.3400 107.0000 1.0000
33.3600 102.0000 1.0000
33.3800 96.0000 1.0000
33.4000 104.0000 1.0000
33.4200 115.0000 1.0000
33.4400 115.0000 1.0000
33.4600 111.0000 1.0000
33.4800 132.0000 1.0000
33.5000 125.0000 1.0000
33.5200 133.0000 1.0000
33.5400 127.0000 1.0000
33.5600 152.0000 1.0000
33.5800 141.0000 1.0000
33.6000 164.0000 1.0000
33.6200 156.0000 1.0000
33.6400 158.0000 1.0000
33.6600 138.0000 1.0000
33.6800 138.0000 1.0000
33.7000 170.0000 1.0000
33.7200 145.0000 1.0000
33.7400 126.0000 1.0000
33.7600 119.0000 1.0000
33.7800 137.0000 1.0000
33.8000 113.0000 1.0000
33.8200 107.0000 1.0000
33.8400 107.0000 1.0000
33.8600 115.0000 1.0000
33.8800 124.0000 1.0000
33.9000 118.0000 1.0000
33.9200 134.0000 1.0000
33.9400 137.0000 1.0000
33.9600 123.0000 1.0000
33.9800 147.0000 1.0000
34.0000 126.0000 1.0000
34.0200 133.0000 1.0000
34.0400 127.0000 1.0000
34.0600 143.0000 1.0000
34.0800 151.0000 1.0000
34.1000 140.0000 1.0000
34.1200 171.0000 1.0000
34.1400 135.0000 1.0000
34.1600 144.0000 1.0000
34.1800 151.0000 1.0000
34.2000 180.0000 1.0000
34.2200 164.0000 1.0000
34.2400 171.0000 1.0000
34.2600 160.0000 1.0000
34.2800 197.0000 1.0000
34.3000 187.0000 1.0000
34.3200 207.0000 1.0000
34.3400 222.0000 1.0000
34.3600 210.0000 1.0000
34.3800 215.0000 1.0000
34.4000 224.0000 1.0000
34.4200 211.0000 1.0000
34.4400 227.0000 1.0000
34.4600 229.0000 1.0000
34.4800 274.0000 1.0000
34.5000 274.0000 1.0000
34.5200 286.0000 1.0000
34.5400 334.0000 1.0000
34.5600 341.0000 1.0000
34.5800 368.0000 1.0000
34.6000 399.0000 1.0000
34.6200 371.0000 1.0000
34.6400 420.0000 1.0000
34.6600 465.0000 1.0000
34.6800 461.0000 1.0000
34.7000 518.0000 1.0000
34.7200 499.0000 1.0000
34.7400 489.0000 1.0000
34.7600 498.0000 1.0000
34.7800 517.0000 1.0000
34.8000 506.0000 1.0000
34.8200 564.0000 1.0000
34.8400 588.0000 1.0000
34.8600 604.0000 1.0000
34.8800 638.0000 1.0000
34.9000 800.0000 1.0000
34.9200 1022.0000 1.0000
34.9400 1097.0000 1.0000
34.9600 1245.0000 1.0000
34.9800 1367.0000 1.0000
35.0000 1500.0000 1.0000
35.0200 1458.0000 1.0000
35.0400 1487.0000 1.0000
35.0600 1391.0000 1.0000
35.0800 1273.0000 1.0000
35.1000 1183.0000 1.0000
35.1200 1122.0000 1.0000
35.1400 1023.0000 1.0000
35.1600 945.0000 1.0000
35.1800 878.0000 1.0000
35.2000 892.0000 1.0000
35.2200 829.0000 1.0000
35.2400 872.0000 1.0000
35.2600 879.0000 1.0000
35.2800 949.0000 1.0000
35.3000 995.0000 1.0000
35.3200 1024.0000 1.0000
35.3400 1087.0000 1.0000
35.3600 1069.0000 1.0000
35.3800 1049.0000 1.0000
35.4000 1050.0000 1.0000
35.4200 1008.0000 1.0000
35.4400 934.0000 1.0000
35.4600 885.0000 1.0000
35.4800 813.0000 1.0000
35.5000 787.0000 1.0000
35.5200 756.0000 1.0000
35.5400 687.0000 1.0000
35.5600 671.0000 1.0000
35.5800 593.0000 1.0000
35.6000 582.0000 1.0000
35.6200 519.0000 1.0000
35.6400 450.0000 1.0000
35.6600 441.0000 1.0000
35.6800 436.0000 1.0000
35.7000 386.0000 1.0000
35.7200 327.0000 1.0000
35.7400 357.0000 1.0000
35.7600 301.0000 1.0000
35.7800 280.0000 1.0000
35.8000 298.0000 1.0000
35.8200 273.0000 1.0000
35.8400 270.0000 1.0000
35.8600 247.0000 1.0000
35.8800 233.0000 1.0000
35.9000 242.0000 1.0000
35.9200 242.0000 1.0000
35.9400 221.0000 1.0000
35.9600 222.0000 1.0000
35.9800 239.0000 1.0000
36.0000 219.0000 1.0000
36.0200 243.0000 1.0000
36.0400 237.0000 1.0000
36.0600 241.0000 1.0000
36.0800 205.0000 1.0000
36.1000 252.0000 1.0000
36.1200 236.0000 1.0000
36.1400 220.0000 1.0000
36.1600 244.0000 1.0000
36.1800 218.0000 1.0000
36.2000 224.0000 1.0000
36.2200 229.0000 1.0000
36.2400 238.0000 1.0000
36.2600 248.0000 1.0000
36.2800 280.0000 1.0000
36.3000 299.0000 1.0000
36.3200 317.0000 1.0000
36.3400 366.0000 1.0000
36.3600 363.0000 1.0000
36.3800 368.0000 1.0000
36.4000 380.0000 1.0000
36.4200 379.0000 1.0000
36.4400 376.0000 1.0000
36.4600 355.0000 1.0000
36.4800 342.0000 1.0000
36.5000 303.0000 1.0000
36.5200 278.0000 1.0000
36.5400 256.0000 1.0000
36.5600 225.0000 1.0000
36.5800 198.0000 1.0000
36.6000 180.0000 1.0000
36.6200 180.0000 1.0000
36.6400 157.0000 1.0000
36.6600 161.0000 1.0000
36.6800 153.0000 1.0000
36.7000 151.0000 1.0000
36.7200 163.0000 1.0000
36.7400 141.0000 1.0000
36.7600 155.0000 1.0000
36.7800 158.0000 1.0000
36.8000 142.0000 1.0000
36.8200 133.0000 1.0000
36.8400 133.0000 1.0000
36.8600 145.0000 1.0000
36.8800 130.0000 1.0000
36.9000 172.0000 1.0000
36.9200 161.0000 1.0000
36.9400 159.0000 1.0000
36.9600 162.0000 1.0000
36.9800 167.0000 1.0000
37.0000 157.0000 1.0000
37.0200 171.0000 1.0000
37.0400 177.0000 1.0000
37.0600 168.0000 1.0000
37.0800 174.0000 1.0000
37.1000 170.0000 1.0000
37.1200 149.0000 1.0000
37.1400 156.0000 1.0000
37.1600 165.0000 1.0000
37.1800 148.0000 1.0000
37.2000 142.0000 1.0000
37.2200 132.0000 1.0000
37.2400 131.0000 1.0000
37.2600 129.0000 1.0000
37.2800 128.0000 1.0000
37.3000 129.0000 1.0000
37.3200 148.0000 1.0000
37.3400 144.0000 1.0000
37.3600 131.0000 1.0000
37.3800 137.0000 1.0000
37.4000 144.0000 1.0000
37.4200 146.0000 1.0000
37.4400 153.0000 1.0000
37.4600 186.0000 1.0000
37.4800 220.0000 1.0000
37.5000 223.0000 1.0000
37.5200 274.0000 1.0000
37.5400 347.0000 1.0000
37.5600 394.0000 1.0000
37.5800 438.0000 1.0000
37.6000 491.0000 1.0000
37.6200 547.0000 1.0000
37.6400 532.0000 1.0000
37.6600 534.0000 1.0000
37.6800 519.0000 1.0000
37.7000 435.0000 1.0000
37.7200 363.0000 1.0000
37.7400 320.0000 1.0000
37.7600 292.0000 1.0000
37.7800 268.0000 1.0000
37.8000 195.0000 1.0000
37.8200 159.0000 1.0000
37.8400 146.0000 1.0000
37.8600 128.0000 1.0000
37.8800 127.0000 1.0000
37.9000 125.0000 1.0000
37.9200 125.0000 1.0000
37.9400 119.0000 1.0000
37.9600 106.0000 1.0000
37.9800 111.0000 1.0000
38.0000 119.0000 1.0000
38.0200 103.0000 1.0000
38.0400 120.0000 1.0000
38.0600 108.0000 1.0000
38.0800 118.0000 1.0000
38.1000 120.0000 1.0000
38.1200 109.0000 1.0000
38.1400 102.0000 1.0000
38.1600 102.0000 1.0000
38.1800 111.0000 1.0000
38.2000 102.0000 1.0000
38.2200 104.0000 1.0000
38.2400 102.0000 1.0000
38.2600 101.0000 1.0000
38.2800 106.0000 1.0000
38.3000 87.0000 1.0000
38.3200 88.0000 1.0000
38.3400 104.0000 1.0000
38.3600 95.0000 1.0000
38.3800 104.0000 1.0000
38.4000 96.0000 1.0000
38.4200 82.0000 1.0000
38.4400 95.0000 1.0000
38.4600 94.0000 1.0000
38.4800 81.0000 1.0000
38.5000 90.0000 1.0000
38.5200 102.0000 1.0000
38.5400 109.0000 1.0000
38.5600 102.0000 1.0000
38.5800 104.0000 1.0000
38.6000 101.0000 1.0000
38.6200 105.0000 1.0000
38.6400 118.0000 1.0000
38.6600 113.0000 1.0000
38.6800 117.0000 1.0000
38.7000 104.0000 1.0000
38.7200 92.0000 1.0000
38.7400 110.0000 1.0000
38.7600 124.0000 1.0000
38.7800 133.0000 1.0000
38.8000 132.0000 1.0000
38.8200 122.0000 1.0000
38.8400 124.0000 1.0000
38.8600 135.0000 1.0000
38.8800 143.0000 1.0000
38.9000 148.0000 1.0000
38.9200 153.0000 1.0000
38.9400 150.0000 1.0000
38.9600 158.0000 1.0000
38.9800 160.0000 1.0000
39.0000 158.0000 1.0000
39.0200 168.0000 1.0000
39.0400 161.0000 1.0000
39.0600 154.0000 1.0000
39.0800 143.0000 1.0000
39.1000 155.0000 1.0000
39.1200 153.0000 1.0000
39.1400 144.0000 1.0000
39.1600 170.0000 1.0000
39.1800 182.0000 1.0000
39.2000 178.0000 1.0000
39.2200 181.0000 1.0000
39.2400 202.0000 1.0000
39.2600 222.0000 1.0000
39.2800 268.0000 1.0000
39.3000 273.0000 1.0000
39.3200 276.0000 1.0000
39.3400 291.0000 1.0000
39.3600 257.0000 1.0000
39.3800 231.0000 1.0000
39.4000 227.0000 1.0000
39.4200 214.0000 1.0000
39.4400 193.0000 1.0000
39.4600 176.0000 1.0000
39.4800 159.0000 1.0000
39.5000 151.0000 1.0000
39.5200 142.0000 1.0000
39.5400 132.0000 1.0000
39.5600 128.0000 1.0000
39.5800 122.0000 1.0000
39.6000 110.0000 1.0000
39.6200 107.0000 1.0000
39.6400 117.0000 1.0000
39.6600 109.0000 1.0000
39.6800 114.0000 1.0000
39.7000 111.0000 1.0000
39.7200 111.0000 1.0000
39.7400 114.0000 1.0000
39.7600 130.0000 1.0000
39.7800 126.0000 1.0000
39.8000 119.0000 1.0000
39.8200 117.0000 1.0000
39.8400 113.0000 1.0000
39.8600 117.0000 1.0000
39.8800 113.0000 1.0000
39.9000 124.0000 1.0000
39.9200 120.0000 1.0000
39.9400 109.0000 1.0000
39.9600 114.0000 1.0000
39.9800 134.0000 1.0000
40.0000 145.0000 1.0000
40.0200 140.0000 1.0000
40.0400 163.0000 1.0000
40.0600 186.0000 1.0000
40.0800 217.0000 1.0000
40.1000 252.0000 1.0000
40.1200 250.0000 1.0000
40.1400 259.0000 1.0000
40.1600 262.0000 1.0000
40.1800 269.0000 1.0000
40.2000 267.0000 1.0000
40.2200 271.0000 1.0000
40.2400 274.0000 1.0000
40.2600 238.0000 1.0000
40.2800 215.0000 1.0000
40.3000 213.0000 1.0000
40.3200 199.0000 1.0000
40.3400 180.0000 1.0000
40.3600 190.0000 1.0000
40.3800 198.0000 1.0000
40.4000 177.0000 1.0000
40.4200 176.0000 1.0000
40.4400 198.0000 1.0000
40.4600 199.0000 1.0000
40.4800 191.0000 1.0000
40.5000 194.0000 1.0000
40.5200 192.0000 1.0000
40.5400 186.0000 1.0000
40.5600 200.0000 1.0000
40.5800 200.0000 1.0000
40.6000 185.0000 1.0000
40.6200 179.0000 1.0000
40.6400 174.0000 1.0000
40.6600 183.0000 1.0000
40.6800 180.0000 1.0000
40.7000 153.0000 1.0000
40.7200 146.0000 1.0000
40.7400 145.0000 1.0000
40.7600 144.0000 1.0000
40.7800 151.0000 1.0000
40.8000 163.0000 1.0000
40.8200 165.0000 1.0000
40.8400 158.0000 1.0000
40.8600 151.0000 1.0000
40.8800 147.0000 1.0000
40.9000 136.0000 1.0000
40.9200 135.0000 1.0000
40.9400 139.0000 1.0000
40.9600 132.0000 1.0000
40.9800 125.0000 1.0000
41.0000 128.0000 1.0000
41.0200 127.0000 1.0000
41.0400 117.0000 1.0000
41.0600 106.0000 1.0000
41.0800 104.0000 1.0000
41.1000 113.0000 1.0000
41.1200 124.0000 1.0000
41.1400 123.0000 1.0000
41.1600 125.0000 1.0000
41.1800 131.0000 1.0000
41.2000 125.0000 1.0000
41.2200 118.0000 1.0000
41.2400 123.0000 1.0000
41.2600 123.0000 1.0000
41.2800 113.0000 1.0000
41.3000 119.0000 1.0000
41.3200 115.0000 1.0000
41.3400 113.0000 1.0000
41.3600 128.0000 1.0000
41.3800 135.0000 1.0000
41.4000 139.0000 1.0000
41.4200 138.0000 1.0000
41.4400 145.0000 1.0000
41.4600 167.0000 1.0000
41.4800 179.0000 1.0000
41.5000 188.0000 1.0000
41.5200 178.0000 1.0000
41.5400 180.0000 1.0000
41.5600 182.0000 1.0000
41.5800 186.0000 1.0000
41.6000 200.0000 1.0000
41.6200 213.0000 1.0000
41.6400 216.0000 1.0000
41.6600 225.0000 1.0000
41.6800 218.0000 1.0000
41.7000 198.0000 1.0000
41.7200 210.0000 1.0000
41.7400 216.0000 1.0000
41.7600 203.0000 1.0000
41.7800 208.0000 1.0000
41.8000 215.0000 1.0000
41.8200 235.0000 1.0000
41.8400 226.0000 1.0000
41.8600 222.0000 1.0000
41.8800 246.0000 1.0000
41.9000 241.0000 1.0000
41.9200 240.0000 1.0000
41.9400 237.0000 1.0000
41.9600 276.0000 1.0000
41.9800 293.0000 1.0000
42.0000 305.0000 1.0000
42.0200 337.0000 1.0000
42.0400 323.0000 1.0000
42.0600 311.0000 1.0000
42.0800 351.0000 1.0000
42.1000 348.0000 1.0000
42.1200 323.0000 1.0000
42.1400 333.0000 1.0000
42.1600 343.0000 1.0000
42.1800 341.0000 1.0000
42.2000 337.0000 1.0000
42.2200 354.0000 1.0000
42.2400 354.0000 1.0000
42.2600 345.0000 1.0000
42.2800 346.0000 1.0000
42.3000 352.0000 1.0000
42.3200 347.0000 1.0000
42.3400 344.0000 1.0000
42.3600 312.0000 1.0000
42.3800 312.0000 1.0000
42.4000 302.0000 1.0000
42.4200 297.0000 1.0000
42.4400 286.0000 1.0000
42.4600 279.0000 1.0000
42.4800 244.0000 1.0000
42.5000 212.0000 1.0000
42.5200 217.0000 1.0000
42.5400 227.0000 1.0000
42.5600 237.0000 1.0000
42.5800 224.0000 1.0000
42.6000 227.0000 1.0000
42.6200 226.0000 1.0000
42.6400 213.0000 1.0000
42.6600 218.0000 1.0000
42.6800 210.0000 1.0000
42.7000 189.0000 1.0000
42.7200 224.0000 1.0000
42.7400 227.0000 1.0000
42.7600 218.0000 1.0000
42.7800 221.0000 1.0000
42.8000 232.0000 1.0000
42.8200 233.0000 1.0000
42.8400 241.0000 1.0000
42.8600 245.0000 1.0000
42.8800 251.0000 1.0000
42.9000 248.0000 1.0000
42.9200 249.0000 1.0000
42.9400 255.0000 1.0000
42.9600 278.0000 1.0000
42.9800 266.0000 1.0000
43.0000 299.0000 1.0000
43.0200 293.0000 1.0000
43.0400 333.0000 1.0000
43.0600 372.0000 1.0000
43.0800 436.0000 1.0000
43.1000 530.0000 1.0000
43.1200 614.0000 1.0000
43.1400 757.0000 1.0000
43.1600 959.0000 1.0000
43.1800 1118.0000 1.0000
43.2000 1172.0000 1.0000
43.2200 1219.0000 1.0000
43.2400 1156.0000 1.0000
43.2600 1050.0000 1.0000
43.2800 964.0000 1.0000
43.3000 926.0000 1.0000
43.3200 779.0000 1.0000
43.3400 626.0000 1.0000
43.3600 560.0000 1.0000
43.3800 438.0000 1.0000
43.4000 350.0000 1.0000
43.4200 269.0000 1.0000
43.4400 214.0000 1.0000
43.4600 201.0000 1.0000
43.4800 175.0000 1.0000
43.5000 176.0000 1.0000
43.5200 157.0000 1.0000
43.5400 133.0000 1.0000
43.5600 136.0000 1.0000
43.5800 163.0000 1.0000
43.6000 145.0000 1.0000
43.6200 134.0000 1.0000
43.6400 142.0000 1.0000
43.6600 146.0000 1.0000
43.6800 127.0000 1.0000
43.7000 115.0000 1.0000
43.7200 145.0000 1.0000
43.7400 131.0000 1.0000
43.7600 128.0000 1.0000
43.7800 107.0000 1.0000
43.8000 124.0000 1.0000
43.8200 139.0000 1.0000
43.8400 117.0000 1.0000
43.8600 111.0000 1.0000
43.8800 127.0000 1.0000
43.9000 145.0000 1.0000
43.9200 125.0000 1.0000
43.9400 140.0000 1.0000
43.9600 159.0000 1.0000
43.9800 143.0000 1.0000
44.0000 135.0000 1.0000
44.0200 153.0000 1.0000
44.0400 177.0000 1.0000
44.0600 160.0000 1.0000
44.0800 167.0000 1.0000
44.1000 162.0000 1.0000
44.1200 161.0000 1.0000
44.1400 177.0000 1.0000
44.1600 169.0000 1.0000
44.1800 151.0000 1.0000
44.2000 175.0000 1.0000
44.2200 177.0000 1.0000
44.2400 172.0000 1.0000
44.2600 163.0000 1.0000
44.2800 165.0000 1.0000
44.3000 152.0000 1.0000
44.3200 128.0000 1.0000
44.3400 171.0000 1.0000
44.3600 140.0000 1.0000
44.3800 145.0000 1.0000
44.4000 130.0000 1.0000
44.4200 140.0000 1.0000
44.4400 146.0000 1.0000
44.4600 114.0000 1.0000
44.4800 132.0000 1.0000
44.5000 123.0000 1.0000
44.5200 140.0000 1.0000
44.5400 120.0000 1.0000
44.5600 130.0000 1.0000
44.5800 140.0000 1.0000
44.6000 169.0000 1.0000
44.6200 175.0000 1.0000
44.6400 161.0000 1.0000
44.6600 165.0000 1.0000
44.6800 184.0000 1.0000
44.7000 170.0000 1.0000
44.7200 197.0000 1.0000
44.7400 190.0000 1.0000
44.7600 184.0000 1.0000
44.7800 189.0000 1.0000
44.8000 170.0000 1.0000
44.8200 185.0000 1.0000
44.8400 166.0000 1.0000
44.8600 181.0000 1.0000
44.8800 178.0000 1.0000
44.9000 163.0000 1.0000
44.9200 161.0000 1.0000
44.9400 146.0000 1.0000
44.9600 158.0000 1.0000
44.9800 155.0000 1.0000
45.0000 175.0000 1.0000
45.0200 170.0000 1.0000
45.0400 141.0000 1.0000
45.0600 176.0000 1.0000
45.0800 173.0000 1.0000
45.1000 149.0000 1.0000
45.1200 163.0000 1.0000
45.1400 148.0000 1.0000
45.1600 150.0000 1.0000
45.1800 141.0000 1.0000
45.2000 136.0000 1.0000
45.2200 145.0000 1.0000
45.2400 124.0000 1.0000
45.2600 131.0000 1.0000
45.2800 126.0000 1.0000
45.3000 109.0000 1.0000
45.3200 129.0000 1.0000
45.3400 115.0000 1.0000
45.3600 126.0000 1.0000
45.3800 125.0000 1.0000
45.4000 109.0000 1.0000
45.4200 126.0000 1.0000
45.4400 116.0000 1.0000
45.4600 126.0000 1.0000
45.4800 118.0000 1.0000
45.5000 128.0000 1.0000
45.5200 138.0000 1.0000
45.5400 126.0000 1.0000
45.5600 127.0000 1.0000
45.5800 173.0000 1.0000
45.6000 183.0000 1.0000
45.6200 183.0000 1.0000
45.6400 194.0000 1.0000
45.6600 206.0000 1.0000
45.6800 187.0000 1.0000
45.7000 203.0000 1.0000
45.7200 166.0000 1.0000
45.7400 174.0000 1.0000
45.7600 157.0000 1.0000
45.7800 155.0000 1.0000
45.8000 175.0000 1.0000
45.8200 153.0000 1.0000
45.8400 131.0000 1.0000
45.8600 121.0000 1.0000
45.8800 128.0000 1.0000
45.9000 142.0000 1.0000
45.9200 149.0000 1.0000
45.9400 151.0000 1.0000
45.9600 122.0000 1.0000
45.9800 125.0000 1.0000
46.0000 122.0000 1.0000
46.0200 130.0000 1.0000
46.0400 121.0000 1.0000
46.0600 135.0000 1.0000
46.0800 120.0000 1.0000
46.1000 121.0000 1.0000
46.1200 110.0000 1.0000
46.1400 103.0000 1.0000
46.1600 110.0000 1.0000
46.1800 101.0000 1.0000
46.2000 93.0000 1.0000
46.2200 114.0000 1.0000
46.2400 105.0000 1.0000
46.2600 88.0000 1.0000
46.2800 106.0000 1.0000
46.3000 76.0000 1.0000
46.3200 94.0000 1.0000
46.3400 81.0000 1.0000
46.3600 102.0000 1.0000
46.3800 91.0000 1.0000
46.4000 92.0000 1.0000
46.4200 79.0000 1.0000
46.4400 86.0000 1.0000
46.4600 95.0000 1.0000
46.4800 87.0000 1.0000
46.5000 90.0000 1.0000
46.5200 95.0000 1.0000
46.5400 105.0000 1.0000
46.5600 109.0000 1.0000
46.5800 85.0000 1.0000
46.6000 106.0000 1.0000
46.6200 108.0000 1.0000
46.6400 90.0000 1.0000
46.6600 102.0000 1.0000
46.6800 100.0000 1.0000
46.7000 106.0000 1.0000
46.7200 102.0000 1.0000
46.7400 102.0000 1.0000
46.7600 92.0000 1.0000
46.7800 104.0000 1.0000
46.8000 109.0000 1.0000
46.8200 103.0000 1.0000
46.8400 110.0000 1.0000
46.8600 105.0000 1.0000
46.8800 105.0000 1.0000
46.9000 113.0000 1.0000
46.9200 106.0000 1.0000
46.9400 107.0000 1.0000
46.9600 114.0000 1.0000
46.9800 116.0000 1.0000
47.0000 100.0000 1.0000
47.0200 101.0000 1.0000
47.0400 109.0000 1.0000
47.0600 107.0000 1.0000
47.0800 114.0000 1.0000
47.1000 106.0000 1.0000
47.1200 93.0000 1.0000
47.1400 92.0000 1.0000
47.1600 99.0000 1.0000
47.1800 90.0000 1.0000
47.2000 90.0000 1.0000
47.2200 92.0000 1.0000
47.2400 93.0000 1.0000
47.2600 84.0000 1.0000
47.2800 84.0000 1.0000
47.3000 76.0000 1.0000
47.3200 86.0000 1.0000
47.3400 92.0000 1.0000
47.3600 80.0000 1.0000
47.3800 69.0000 1.0000
47.4000 70.0000 1.0000
47.4200 79.0000 1.0000
47.4400 83.0000 1.0000
47.4600 89.0000 1.0000
47.4800 74.0000 1.0000
47.5000 72.0000 1.0000
47.5200 78.0000 1.0000
47.5400 75.0000 1.0000
47.5600 63.0000 1.0000
47.5800 76.0000 1.0000
47.6000 83.0000 1.0000
47.6200 76.0000 1.0000
47.6400 86.0000 1.0000
47.6600 92.0000 1.0000
47.6800 87.0000 1.0000
47.7000 91.0000 1.0000
47.7200 79.0000 1.0000
47.7400 85.0000 1.0000
47.7600 74.0000 1.0000
47.7800 67.0000 1.0000
47.8000 77.0000 1.0000
47.8200 83.0000 1.0000
47.8400 86.0000 1.0000
47.8600 79.0000 1.0000
47.8800 75.0000 1.0000
47.9000 85.0000 1.0000
47.9200 84.0000 1.0000
47.9400 75.0000 1.0000
47.9600 76.0000 1.0000
47.9800 75.0000 1.0000
48.0000 87.0000 1.0000
48.0200 86.0000 1.0000
48.0400 92.0000 1.0000
48.0600 101.0000 1.0000
48.0800 92.0000 1.0000
48.1000 92.0000 1.0000
48.1200 98.0000 1.0000
48.1400 108.0000 1.0000
48.1600 102.0000 1.0000
48.1800 104.0000 1.0000
48.2000 126.0000 1.0000
48.2200 127.0000 1.0000
48.2400 129.0000 1.0000
48.2600 136.0000 1.0000
48.2800 139.0000 1.0000
48.3000 134.0000 1.0000
48.3200 134.0000 1.0000
48.3400 131.0000 1.0000
48.3600 133.0000 1.0000
48.3800 137.0000 1.0000
48.4000 129.0000 1.0000
48.4200 137.0000 1.0000
48.4400 137.0000 1.0000
48.4600 131.0000 1.0000
48.4800 138.0000 1.0000
48.5000 144.0000 1.0000
48.5200 142.0000 1.0000
48.5400 151.0000 1.0000
48.5600 160.0000 1.0000
48.5800 159.0000 1.0000
48.6000 165.0000 1.0000
48.6200 171.0000 1.0000
48.6400 187.0000 1.0000
48.6600 187.0000 1.0000
48.6800 161.0000 1.0000
48.7000 163.0000 1.0000
48.7200 175.0000 1.0000
48.7400 165.0000 1.0000
48.7600 159.0000 1.0000
48.7800 159.0000 1.0000
48.8000 153.0000 1.0000
48.8200 141.0000 1.0000
48.8400 142.0000 1.0000
48.8600 134.0000 1.0000
48.8800 121.0000 1.0000
48.9000 130.0000 1.0000
48.9200 132.0000 1.0000
48.9400 129.0000 1.0000
48.9600 132.0000 1.0000
48.9800 128.0000 1.0000
49.0000 125.0000 1.0000
49.0200 141.0000 1.0000
49.0400 154.0000 1.0000
49.0600 154.0000 1.0000
49.0800 154.0000 1.0000
49.1000 164.0000 1.0000
49.1200 154.0000 1.0000
49.1400 143.0000 1.0000
49.1600 167.0000 1.0000
49.1800 165.0000 1.0000
49.2000 134.0000 1.0000
49.2200 135.0000 1.0000
49.2400 129.0000 1.0000
49.2600 120.0000 1.0000
49.2800 129.0000 1.0000
49.3000 140.0000 1.0000
49.3200 136.0000 1.0000
49.3400 115.0000 1.0000
49.3600 131.0000 1.0000
49.3800 128.0000 1.0000
49.4000 128.0000 1.0000
49.4200 144.0000 1.0000
49.4400 138.0000 1.0000
49.4600 148.0000 1.0000
49.4800 159.0000 1.0000
49.5000 177.0000 1.0000
49.5200 194.0000 1.0000
49.5400 171.0000 1.0000
49.5600 161.0000 1.0000
49.5800 179.0000 1.0000
49.6000 184.0000 1.0000
49.6200 168.0000 1.0000
49.6400 170.0000 1.0000
49.6600 184.0000 1.0000
49.6800 174.0000 1.0000
49.7000 179.0000 1.0000
49.7200 181.0000 1.0000
49.7400 177.0000 1.0000
49.7600 190.0000 1.0000
49.7800 167.0000 1.0000
49.8000 162.0000 1.0000
49.8200 150.0000 1.0000
49.8400 171.0000 1.0000
49.8600 193.0000 1.0000
49.8800 214.0000 1.0000
49.9000 237.0000 1.0000
49.9200 280.0000 1.0000
49.9400 315.0000 1.0000
49.9600 357.0000 1.0000
49.9800 402.0000 1.0000
50.0000 404.0000 1.0000
50.0200 388.0000 1.0000
50.0400 395.0000 1.0000
50.0600 365.0000 1.0000
50.0800 348.0000 1.0000
50.1000 311.0000 1.0000
50.1200 268.0000 1.0000
50.1400 282.0000 1.0000
50.1600 265.0000 1.0000
50.1800 227.0000 1.0000
50.2000 200.0000 1.0000
50.2200 166.0000 1.0000
50.2400 164.0000 1.0000
50.2600 150.0000 1.0000
50.2800 125.0000 1.0000
50.3000 110.0000 1.0000
50.3200 117.0000 1.0000
50.3400 130.0000 1.0000
50.3600 111.0000 1.0000
50.3800 121.0000 1.0000
50.4000 121.0000 1.0000
50.4200 116.0000 1.0000
50.4400 125.0000 1.0000
50.4600 132.0000 1.0000
50.4800 137.0000 1.0000
50.5000 138.0000 1.0000
50.5200 136.0000 1.0000
50.5400 142.0000 1.0000
50.5600 163.0000 1.0000
50.5800 160.0000 1.0000
50.6000 184.0000 1.0000
50.6200 194.0000 1.0000
50.6400 191.0000 1.0000
50.6600 196.0000 1.0000
50.6800 211.0000 1.0000
50.7000 190.0000 1.0000
50.7200 183.0000 1.0000
50.7400 170.0000 1.0000
50.7600 154.0000 1.0000
50.7800 147.0000 1.0000
50.8000 129.0000 1.0000
50.8200 129.0000 1.0000
50.8400 134.0000 1.0000
50.8600 123.0000 1.0000
50.8800 108.0000 1.0000
50.9000 116.0000 1.0000
50.9200 110.0000 1.0000
50.9400 120.0000 1.0000
50.9600 119.0000 1.0000
50.9800 128.0000 1.0000
51.0000 116.0000 1.0000
51.0200 117.0000 1.0000
51.0400 128.0000 1.0000
51.0600 110.0000 1.0000
51.0800 122.0000 1.0000
51.1000 129.0000 1.0000
51.1200 137.0000 1.0000
51.1400 130.0000 1.0000
51.1600 135.0000 1.0000
51.1800 147.0000 1.0000
51.2000 136.0000 1.0000
51.2200 147.0000 1.0000
51.2400 149.0000 1.0000
51.2600 152.0000 1.0000
51.2800 174.0000 1.0000
51.3000 178.0000 1.0000
51.3200 180.0000 1.0000
51.3400 180.0000 1.0000
51.3600 201.0000 1.0000
51.3800 183.0000 1.0000
51.4000 188.0000 1.0000
51.4200 191.0000 1.0000
51.4400 186.0000 1.0000
51.4600 173.0000 1.0000
51.4800 157.0000 1.0000
51.5000 178.0000 1.0000
51.5200 181.0000 1.0000
51.5400 163.0000 1.0000
51.5600 150.0000 1.0000
51.5800 141.0000 1.0000
51.6000 165.0000 1.0000
51.6200 153.0000 1.0000
51.6400 132.0000 1.0000
51.6600 138.0000 1.0000
51.6800 145.0000 1.0000
51.7000 148.0000 1.0000
51.7200 122.0000 1.0000
51.7400 141.0000 1.0000
51.7600 149.0000 1.0000
51.7800 155.0000 1.0000
51.8000 146.0000 1.0000
51.8200 139.0000 1.0000
51.8400 150.0000 1.0000
51.8600 154.0000 1.0000
51.8800 149.0000 1.0000
51.9000 137.0000 1.0000
51.9200 155.0000 1.0000
51.9400 179.0000 1.0000
51.9600 163.0000 1.0000
51.9800 137.0000 1.0000
52.0000 173.0000 1.0000
52.0200 163.0000 1.0000
52.0400 135.0000 1.0000
52.0600 146.0000 1.0000
52.0800 132.0000 1.0000
52.1000 147.0000 1.0000
52.1200 166.0000 1.0000
52.1400 155.0000 1.0000
52.1600 177.0000 1.0000
52.1800 169.0000 1.0000
52.2000 172.0000 1.0000
52.2200 186.0000 1.0000
52.2400 196.0000 1.0000
52.2600 193.0000 1.0000
52.2800 209.0000 1.0000
52.3000 245.0000 1.0000
52.3200 324.0000 1.0000
52.3400 318.0000 1.0000
52.3600 396.0000 1.0000
52.3800 476.0000 1.0000
52.4000 562.0000 1.0000
52.4200 531.0000 1.0000
52.4400 526.0000 1.0000
52.4600 559.0000 1.0000
52.4800 479.0000 1.0000
52.5000 443.0000 1.0000
52.5200 423.0000 1.0000
52.5400 392.0000 1.0000
52.5600 380.0000 1.0000
52.5800 370.0000 1.0000
52.6000 340.0000 1.0000
52.6200 302.0000 1.0000
52.6400 220.0000 1.0000
52.6600 218.0000 1.0000
52.6800 213.0000 1.0000
52.7000 188.0000 1.0000
52.7200 171.0000 1.0000
52.7400 184.0000 1.0000
52.7600 176.0000 1.0000
52.7800 169.0000 1.0000
52.8000 182.0000 1.0000
52.8200 191.0000 1.0000
52.8400 183.0000 1.0000
52.8600 195.0000 1.0000
52.8800 201.0000 1.0000
52.9000 209.0000 1.0000
52.9200 239.0000 1.0000
52.9400 242.0000 1.0000
52.9600 238.0000 1.0000
52.9800 249.0000 1.0000
53.0000 243.0000 1.0000
53.0200 259.0000 1.0000
53.0400 239.0000 1.0000
53.0600 243.0000 1.0000
53.0800 257.0000 1.0000
53.1000 241.0000 1.0000
53.1200 225.0000 1.0000
53.1400 215.0000 1.0000
53.1600 211.0000 1.0000
53.1800 228.0000 1.0000
53.2000 190.0000 1.0000
53.2200 209.0000 1.0000
53.2400 194.0000 1.0000
53.2600 179.0000 1.0000
53.2800 174.0000 1.0000
53.3000 175.0000 1.0000
53.3200 185.0000 1.0000
53.3400 167.0000 1.0000
53.3600 183.0000 1.0000
53.3800 180.0000 1.0000
53.4000 172.0000 1.0000
53.4200 144.0000 1.0000
53.4400 150.0000 1.0000
53.4600 162.0000 1.0000
53.4800 152.0000 1.0000
53.5000 130.0000 1.0000
53.5200 145.0000 1.0000
53.5400 136.0000 1.0000
53.5600 143.0000 1.0000
53.5800 128.0000 1.0000
53.6000 125.0000 1.0000
53.6200 129.0000 1.0000
53.6400 114.0000 1.0000
53.6600 120.0000 1.0000
53.6800 130.0000 1.0000
53.7000 122.0000 1.0000
53.7200 128.0000 1.0000
53.7400 131.0000 1.0000
53.7600 121.0000 1.0000
53.7800 115.0000 1.0000
53.8000 125.0000 1.0000
53.8200 118.0000 1.0000
53.8400 94.0000 1.0000
53.8600 103.0000 1.0000
53.8800 114.0000 1.0000
53.9000 109.0000 1.0000
53.9200 116.0000 1.0000
53.9400 105.0000 1.0000
53.9600 104.0000 1.0000
53.9800 101.0000 1.0000
54.0000 100.0000 1.0000
54.0200 115.0000 1.0000
54.0400 103.0000 1.0000
54.0600 112.0000 1.0000
54.0800 119.0000 1.0000
54.1000 105.0000 1.0000
54.1200 106.0000 1.0000
54.1400 120.0000 1.0000
54.1600 100.0000 1.0000
54.1800 107.0000 1.0000
54.2000 98.0000 1.0000
54.2200 101.0000 1.0000
54.2400 109.0000 1.0000
54.2600 114.0000 1.0000
54.2800 118.0000 1.0000
54.3000 107.0000 1.0000
54.3200 105.0000 1.0000
54.3400 101.0000 1.0000
54.3600 107.0000 1.0000
54.3800 110.0000 1.0000
54.4000 109.0000 1.0000
54.4200 121.0000 1.0000
54.4400 129.0000 1.0000
54.4600 130.0000 1.0000
54.4800 128.0000 1.0000
54.5000 111.0000 1.0000
54.5200 117.0000 1.0000
54.5400 136.0000 1.0000
54.5600 138.0000 1.0000
54.5800 140.0000 1.0000
54.6000 136.0000 1.0000
54.6200 126.0000 1.0000
54.6400 140.0000 1.0000
54.6600 161.0000 1.0000
54.6800 187.0000 1.0000
54.7000 204.0000 1.0000
54.7200 210.0000 1.0000
54.7400 229.0000 1.0000
54.7600 231.0000 1.0000
54.7800 203.0000 1.0000
54.8000 188.0000 1.0000
54.8200 176.0000 1.0000
54.8400 180.0000 1.0000
54.8600 160.0000 1.0000
54.8800 148.0000 1.0000
54.9000 167.0000 1.0000
54.9200 154.0000 1.0000
54.9400 147.0000 1.0000
54.9600 140.0000 1.0000
54.9800 123.0000 1.0000
55.0000 120.0000 1.0000
55.0200 116.0000 1.0000
55.0400 108.0000 1.0000
55.0600 107.0000 1.0000
55.0800 121.0000 1.0000
55.1000 126.0000 1.0000
55.1200 140.0000 1.0000
55.1400 156.0000 1.0000
55.1600 157.0000 1.0000
55.1800 150.0000 1.0000
55.2000 141.0000 1.0000
55.2200 141.0000 1.0000
55.2400 143.0000 1.0000
55.2600 128.0000 1.0000
55.2800 127.0000 1.0000
55.3000 135.0000 1.0000
55.3200 135.0000 1.0000
55.3400 131.0000 1.0000
55.3600 127.0000 1.0000
55.3800 126.0000 1.0000
55.4000 128.0000 1.0000
55.4200 125.0000 1.0000
55.4400 112.0000 1.0000
55.4600 107.0000 1.0000
55.4800 118.0000 1.0000
55.5000 123.0000 1.0000
55.5200 123.0000 1.0000
55.5400 113.0000 1.0000
55.5600 110.0000 1.0000
55.5800 114.0000 1.0000
55.6000 114.0000 1.0000
55.6200 117.0000 1.0000
55.6400 117.0000 1.0000
55.6600 118.0000 1.0000
55.6800 111.0000 1.0000
55.7000 105.0000 1.0000
55.7200 102.0000 1.0000
55.7400 100.0000 1.0000
55.7600 110.0000 1.0000
55.7800 109.0000 1.0000
55.8000 117.0000 1.0000
55.8200 122.0000 1.0000
55.8400 116.0000 1.0000
55.8600 124.0000 1.0000
55.8800 135.0000 1.0000
55.9000 132.0000 1.0000
55.9200 122.0000 1.0000
55.9400 119.0000 1.0000
55.9600 113.0000 1.0000
55.9800 119.0000 1.0000
56.0000 139.0000 1.0000
56.0200 151.0000 1.0000
56.0400 150.0000 1.0000
56.0600 155.0000 1.0000
56.0800 152.0000 1.0000
56.1000 155.0000 1.0000
56.1200 174.0000 1.0000
56.1400 182.0000 1.0000
56.1600 188.0000 1.0000
56.1800 187.0000 1.0000
56.2000 194.0000 1.0000
56.2200 197.0000 1.0000
56.2400 191.0000 1.0000
56.2600 210.0000 1.0000
56.2800 225.0000 1.0000
56.3000 237.0000 1.0000
56.3200 255.0000 1.0000
56.3400 273.0000 1.0000
56.3600 291.0000 1.0000
56.3800 284.0000 1.0000
56.4000 294.0000 1.0000
56.4200 301.0000 1.0000
56.4400 293.0000 1.0000
56.4600 297.0000 1.0000
56.4800 287.0000 1.0000
56.5000 277.0000 1.0000
56.5200 261.0000 1.0000
56.5400 283.0000 1.0000
56.5600 300.0000 1.0000
56.5800 269.0000 1.0000
56.6000 254.0000 1.0000
56.6200 256.0000 1.0000
56.6400 258.0000 1.0000
56.6600 247.0000 1.0000
56.6800 238.0000 1.0000
56.7000 242.0000 1.0000
56.7200 219.0000 1.0000
56.7400 208.0000 1.0000
56.7600 227.0000 1.0000
56.7800 251.0000 1.0000
56.8000 257.0000 1.0000
56.8200 243.0000 1.0000
56.8400 241.0000 1.0000
56.8600 248.0000 1.0000
56.8800 257.0000 1.0000
56.9000 245.0000 1.0000
56.9200 256.0000 1.0000
56.9400 237.0000 1.0000
56.9600 238.0000 1.0000
56.9800 232.0000 1.0000
57.0000 242.0000 1.0000
57.0200 242.0000 1.0000
57.0400 231.0000 1.0000
57.0600 264.0000 1.0000
57.0800 267.0000 1.0000
57.1000 221.0000 1.0000
57.1200 232.0000 1.0000
57.1400 237.0000 1.0000
57.1600 247.0000 1.0000
57.1800 250.0000 1.0000
57.2000 251.0000 1.0000
57.2200 294.0000 1.0000
57.2400 338.0000 1.0000
57.2600 384.0000 1.0000
57.2800 490.0000 1.0000
57.3000 611.0000 1.0000
57.3200 727.0000 1.0000
57.3400 905.0000 1.0000
57.3600 1000.0000 1.0000
57.3800 975.0000 1.0000
57.4000 930.0000 1.0000
57.4200 875.0000 1.0000
57.4400 759.0000 1.0000
57.4600 690.0000 1.0000
57.4800 669.0000 1.0000
57.5000 632.0000 1.0000
57.5200 596.0000 1.0000
57.5400 574.0000 1.0000
57.5600 543.0000 1.0000
57.5800 452.0000 1.0000
57.6000 346.0000 1.0000
57.6200 269.0000 1.0000
57.6400 226.0000 1.0000
57.6600 189.0000 1.0000
57.6800 171.0000 1.0000
57.7000 167.0000 1.0000
57.7200 141.0000 1.0000
57.7400 141.0000 1.0000
57.7600 122.0000 1.0000
57.7800 128.0000 1.0000
57.8000 124.0000 1.0000
57.8200 127.0000 1.0000
57.8400 123.0000 1.0000
57.8600 123.0000 1.0000
57.8800 116.0000 1.0000
57.9000 111.0000 1.0000
57.9200 102.0000 1.0000
57.9400 105.0000 1.0000
57.9600 113.0000 1.0000
57.9800 102.0000 1.0000
58.0000 92.0000 1.0000
58.0200 99.0000 1.0000
58.0400 109.0000 1.0000
58.0600 118.0000 1.0000
58.0800 115.0000 1.0000
58.1000 105.0000 1.0000
58.1200 108.0000 1.0000
58.1400 101.0000 1.0000
58.1600 102.0000 1.0000
58.1800 95.0000 1.0000
58.2000 99.0000 1.0000
58.2200 100.0000 1.0000
58.2400 99.0000 1.0000
58.2600 94.0000 1.0000
58.2800 96.0000 1.0000
58.3000 84.0000 1.0000
58.3200 84.0000 1.0000
58.3400 86.0000 1.0000
58.3600 79.0000 1.0000
58.3800 93.0000 1.0000
58.4000 86.0000 1.0000
58.4200 92.0000 1.0000
58.4400 88.0000 1.0000
58.4600 96.0000 1.0000
58.4800 106.0000 1.0000
58.5000 91.0000 1.0000
58.5200 93.0000 1.0000
58.5400 93.0000 1.0000
58.5600 96.0000 1.0000
58.5800 101.0000 1.0000
58.6000 111.0000 1.0000
58.6200 103.0000 1.0000
58.6400 105.0000 1.0000
58.6600 105.0000 1.0000
58.6800 104.0000 1.0000
58.7000 108.0000 1.0000
58.7200 96.0000 1.0000
58.7400 108.0000 1.0000
58.7600 120.0000 1.0000
58.7800 127.0000 1.0000
58.8000 116.0000 1.0000
58.8200 101.0000 1.0000
58.8400 111.0000 1.0000
58.8600 113.0000 1.0000
58.8800 118.0000 1.0000
58.9000 111.0000 1.0000
58.9200 92.0000 1.0000
58.9400 110.0000 1.0000
58.9600 115.0000 1.0000
58.9800 116.0000 1.0000
59.0000 116.0000 1.0000
59.0200 121.0000 1.0000
59.0400 99.0000 1.0000
59.0600 100.0000 1.0000
59.0800 116.0000 1.0000
59.1000 125.0000 1.0000
59.1200 108.0000 1.0000
59.1400 107.0000 1.0000
59.1600 114.0000 1.0000
59.1800 110.0000 1.0000
59.2000 112.0000 1.0000
59.2200 113.0000 1.0000
59.2400 103.0000 1.0000
59.2600 109.0000 1.0000
59.2800 118.0000 1.0000
59.3000 125.0000 1.0000
59.3200 113.0000 1.0000
59.3400 115.0000 1.0000
59.3600 114.0000 1.0000
59.3800 124.0000 1.0000
59.4000 116.0000 1.0000
59.4200 128.0000 1.0000
59.4400 125.0000 1.0000
59.4600 115.0000 1.0000
59.4800 124.0000 1.0000
59.5000 120.0000 1.0000
59.5200 135.0000 1.0000
59.5400 136.0000 1.0000
59.5600 127.0000 1.0000
59.5800 151.0000 1.0000
59.6000 147.0000 1.0000
59.6200 159.0000 1.0000
59.6400 169.0000 1.0000
59.6600 158.0000 1.0000
59.6800 181.0000 1.0000
59.7000 195.0000 1.0000
59.7200 220.0000 1.0000
59.7400 214.0000 1.0000
59.7600 262.0000 1.0000
59.7800 302.0000 1.0000
59.8000 302.0000 1.0000
59.8200 386.0000 1.0000
59.8400 370.0000 1.0000
59.8600 362.0000 1.0000
59.8800 301.0000 1.0000
59.9000 294.0000 1.0000
59.9200 233.0000 1.0000
59.9400 265.0000 1.0000
59.9600 272.0000 1.0000
59.9800 237.0000 1.0000
60.0000 225.0000 1.0000
60.0200 251.0000 1.0000
60.0400 216.0000 1.0000
60.0600 213.0000 1.0000
60.0800 175.0000 1.0000
60.1000 167.0000 1.0000
60.1200 176.0000 1.0000
60.1400 148.0000 1.0000
60.1600 169.0000 1.0000
60.1800 151.0000 1.0000
60.2000 134.0000 1.0000
60.2200 146.0000 1.0000
60.2400 157.0000 1.0000
60.2600 157.0000 1.0000
60.2800 150.0000 1.0000
60.3000 143.0000 1.0000
60.3200 149.0000 1.0000
60.3400 159.0000 1.0000
60.3600 167.0000 1.0000
60.3800 169.0000 1.0000
60.4000 157.0000 1.0000
60.4200 140.0000 1.0000
60.4400 157.0000 1.0000
60.4600 133.0000 1.0000
60.4800 139.0000 1.0000
60.5000 141.0000 1.0000
60.5200 143.0000 1.0000
60.5400 154.0000 1.0000
60.5600 155.0000 1.0000
60.5800 153.0000 1.0000
60.6000 162.0000 1.0000
60.6200 151.0000 1.0000
60.6400 131.0000 1.0000
60.6600 143.0000 1.0000
60.6800 136.0000 1.0000
60.7000 144.0000 1.0000
60.7200 126.0000 1.0000
60.7400 152.0000 1.0000
60.7600 152.0000 1.0000
60.7800 136.0000 1.0000
60.8000 118.0000 1.0000
60.8200 108.0000 1.0000
60.8400 126.0000 1.0000
60.8600 118.0000 1.0000
60.8800 135.0000 1.0000
60.9000 130.0000 1.0000
60.9200 148.0000 1.0000
60.9400 136.0000 1.0000
60.9600 145.0000 1.0000
60.9800 180.0000 1.0000
61.0000 159.0000 1.0000
61.0200 147.0000 1.0000
61.0400 197.0000 1.0000
61.0600 177.0000 1.0000
61.0800 174.0000 1.0000
61.1000 207.0000 1.0000
61.1200 205.0000 1.0000
61.1400 214.0000 1.0000
61.1600 211.0000 1.0000
61.1800 224.0000 1.0000
61.2000 248.0000 1.0000
61.2200 196.0000 1.0000
61.2400 247.0000 1.0000
61.2600 201.0000 1.0000
61.2800 179.0000 1.0000
61.3000 227.0000 1.0000
61.3200 233.0000 1.0000
61.3400 238.0000 1.0000
61.3600 232.0000 1.0000
61.3800 259.0000 1.0000
61.4000 231.0000 1.0000
61.4200 238.0000 1.0000
61.4400 236.0000 1.0000
61.4600 251.0000 1.0000
61.4800 218.0000 1.0000
61.5000 229.0000 1.0000
61.5200 205.0000 1.0000
61.5400 256.0000 1.0000
61.5600 220.0000 1.0000
61.5800 224.0000 1.0000
61.6000 215.0000 1.0000
61.6200 230.0000 1.0000
61.6400 212.0000 1.0000
61.6600 205.0000 1.0000
61.6800 226.0000 1.0000
61.7000 197.0000 1.0000
61.7200 209.0000 1.0000
61.7400 226.0000 1.0000
61.7600 198.0000 1.0000
61.7800 207.0000 1.0000
61.8000 220.0000 1.0000
61.8200 216.0000 1.0000
61.8400 211.0000 1.0000
61.8600 222.0000 1.0000
61.8800 209.0000 1.0000
61.9000 184.0000 1.0000
61.9200 199.0000 1.0000
61.9400 191.0000 1.0000
61.9600 210.0000 1.0000
61.9800 197.0000 1.0000
62.0000 193.0000 1.0000
62.0200 178.0000 1.0000
62.0400 210.0000 1.0000
62.0600 223.0000 1.0000
62.0800 192.0000 1.0000
62.1000 204.0000 1.0000
62.1200 218.0000 1.0000
62.1400 202.0000 1.0000
62.1600 232.0000 1.0000
62.1800 232.0000 1.0000
62.2000 218.0000 1.0000
62.2200 235.0000 1.0000
62.2400 197.0000 1.0000
62.2600 206.0000 1.0000
62.2800 213.0000 1.0000
62.3000 204.0000 1.0000
62.3200 239.0000 1.0000
62.3400 207.0000 1.0000
62.3600 224.0000 1.0000
62.3800 217.0000 1.0000
62.4000 247.0000 1.0000
62.4200 245.0000 1.0000
62.4400 223.0000 1.0000
62.4600 247.0000 1.0000
62.4800 264.0000 1.0000
62.5000 250.0000 1.0000
62.5200 252.0000 1.0000
62.5400 236.0000 1.0000
62.5600 239.0000 1.0000
62.5800 256.0000 1.0000
62.6000 273.0000 1.0000
62.6200 215.0000 1.0000
62.6400 222.0000 1.0000
62.6600 226.0000 1.0000
62.6800 203.0000 1.0000
62.7000 204.0000 1.0000
62.7200 194.0000 1.0000
62.7400 191.0000 1.0000
62.7600 184.0000 1.0000
62.7800 194.0000 1.0000
62.8000 183.0000 1.0000
62.8200 183.0000 1.0000
62.8400 173.0000 1.0000
62.8600 162.0000 1.0000
62.8800 172.0000 1.0000
62.9000 186.0000 1.0000
62.9200 198.0000 1.0000
62.9400 168.0000 1.0000
62.9600 169.0000 1.0000
62.9800 171.0000 1.0000
63.0000 174.0000 1.0000
63.0200 163.0000 1.0000
63.0400 172.0000 1.0000
63.0600 183.0000 1.0000
63.0800 195.0000 1.0000
63.1000 177.0000 1.0000
63.1200 184.0000 1.0000
63.1400 183.0000 1.0000
63.1600 179.0000 1.0000
63.1800 180.0000 1.0000
63.2000 182.0000 1.0000
63.2200 201.0000 1.0000
63.2400 197.0000 1.0000
63.2600 176.0000 1.0000
63.2800 173.0000 1.0000
63.3000 170.0000 1.0000
63.3200 163.0000 1.0000
63.3400 171.0000 1.0000
63.3600 167.0000 1.0000
63.3800 148.0000 1.0000
63.4000 157.0000 1.0000
63.4200 173.0000 1.0000
63.4400 159.0000 1.0000
63.4600 159.0000 1.0000
63.4800 142.0000 1.0000
63.5000 132.0000 1.0000
63.5200 130.0000 1.0000
63.5400 133.0000 1.0000
63.5600 115.0000 1.0000
63.5800 116.0000 1.0000
63.6000 116.0000 1.0000
63.6200 128.0000 1.0000
63.6400 115.0000 1.0000
63.6600 139.0000 1.0000
63.6800 148.0000 1.0000
63.7000 128.0000 1.0000
63.7200 129.0000 1.0000
63.7400 131.0000 1.0000
63.7600 118.0000 1.0000
63.7800 140.0000 1.0000
63.8000 141.0000 1.0000
63.8200 140.0000 1.0000
63.8400 150.0000 1.0000
63.8600 145.0000 1.0000
63.8800 145.0000 1.0000
63.9000 149.0000 1.0000
63.9200 167.0000 1.0000
63.9400 143.0000 1.0000
63.9600 142.0000 1.0000
63.9800 142.0000 1.0000
64.0000 122.0000 1.0000
64.0200 141.0000 1.0000
64.0400 131.0000 1.0000
64.0600 135.0000 1.0000
64.0800 132.0000 1.0000
64.1000 122.0000 1.0000
64.1200 136.0000 1.0000
64.1400 133.0000 1.0000
64.1600 125.0000 1.0000
64.1800 114.0000 1.0000
64.2000 117.0000 1.0000
64.2200 117.0000 1.0000
64.2400 108.0000 1.0000
64.2600 104.0000 1.0000
64.2800 100.0000 1.0000
64.3000 107.0000 1.0000
64.3200 115.0000 1.0000
64.3400 107.0000 1.0000
64.3600 108.0000 1.0000
64.3800 99.0000 1.0000
64.4000 96.0000 1.0000
64.4200 113.0000 1.0000
64.4400 105.0000 1.0000
64.4600 99.0000 1.0000
64.4800 116.0000 1.0000
64.5000 98.0000 1.0000
64.5200 93.0000 1.0000
64.5400 111.0000 1.0000
64.5600 101.0000 1.0000
64.5800 101.0000 1.0000
64.6000 90.0000 1.0000
64.6200 100.0000 1.0000
64.6400 90.0000 1.0000
64.6600 98.0000 1.0000
64.6800 99.0000 1.0000
64.7000 101.0000 1.0000
64.7200 98.0000 1.0000
64.7400 90.0000 1.0000
64.7600 99.0000 1.0000
64.7800 99.0000 1.0000
64.8000 98.0000 1.0000
64.8200 100.0000 1.0000
64.8400 85.0000 1.0000
64.8600 97.0000 1.0000
64.8800 119.0000 1.0000
64.9000 106.0000 1.0000
64.9200 116.0000 1.0000
64.9400 113.0000 1.0000
64.9600 109.0000 1.0000
64.9800 109.0000 1.0000
65.0000 109.0000 1.0000
*RAS_INT_END
*RAS_DATA_END
