*RAS_DATA_START
*RAS_HEADER_START
*CORR_POS_DB_NAME "Angle Correction ASC6 SC WITH Mono_04082019"
*CORR_POS_GONIO_RADIUS ""
*CORR_POS_NODE_INDEX01 ""
*CORR_POS_NODE_INDEX02 ""
*CORR_POS_NODE_INDEX03 ""
*CORR_POS_NODE_INDEX04 ""
*CORR_POS_NODE_INDEX05 ""
*CORR_POS_NODE_INDEX06 ""
*CORR_POS_NODE_INDEX07 ""
*CORR_POS_NODE_INDEX08 ""
*CORR_POS_NODE_INDEX09 ""
*CORR_POS_NODE_INDEX10 ""
*CORR_POS_NODE_INDEX11 ""
*CORR_POS_NODE_LABEL01 "Si(111)"
*CORR_POS_NODE_LABEL02 "Si(220)"
*CORR_POS_NODE_LABEL03 "Si(311)"
*CORR_POS_NODE_LABEL04 "Si(400)"
*CORR_POS_NODE_LABEL05 "Si(331)"
*CORR_POS_NODE_LABEL06 "Si(422)"
*CORR_POS_NODE_LABEL07 "Si(511)"
*CORR_POS_NODE_LABEL08 "Si(440)"
*CORR_POS_NODE_LABEL09 "Si(531)"
*CORR_POS_NODE_LABEL10 "Si(620)"
*CORR_POS_NODE_LABEL11 "Si(533)"
*CORR_POS_NODE_POS_CALC01 "28.377"
*CORR_POS_NODE_POS_CALC02 "47.2506"
*CORR_POS_NODE_POS_CALC03 "56.0725"
*CORR_POS_NODE_POS_CALC04 "69.0822"
*CORR_POS_NODE_POS_CALC05 "76.3294"
*CORR_POS_NODE_POS_CALC06 "87.9853"
*CORR_POS_NODE_POS_CALC07 "94.9091"
*CORR_POS_NODE_POS_CALC08 "106.668"
*CORR_POS_NODE_POS_CALC09 "114.054"
*CORR_POS_NODE_POS_CALC10 "127.511"
*CORR_POS_NODE_POS_CALC11 "136.864"
*CORR_POS_NODE_POS_MEAS01 "28.5058"
*CORR_POS_NODE_POS_MEAS02 "47.345"
*CORR_POS_NODE_POS_MEAS03 "56.1421"
*CORR_POS_NODE_POS_MEAS04 "69.1304"
*CORR_POS_NODE_POS_MEAS05 "76.366"
*CORR_POS_NODE_POS_MEAS06 "88.0213"
*CORR_POS_NODE_POS_MEAS07 "94.9406"
*CORR_POS_NODE_POS_MEAS08 "106.689"
*CORR_POS_NODE_POS_MEAS09 "114.065"
*CORR_POS_NODE_POS_MEAS10 "127.518"
*CORR_POS_NODE_POS_MEAS11 "136.869"
*CORR_POS_OPT_ATTR "集中法"
*CORR_POS_PARAM_MU ""
*CORR_POS_PARAM_PL ""
*CORR_POS_SEMODEL_TYPE "0"
*CORR_POS_STANDARD_TYPE ""
*CORR_POS_VALUE_ANALYZER "None"
*CORR_POS_VALUE_CMONO "None"
*CORR_POS_VALUE_IMONO "None"
*CORR_POS_VALUE_IS "1.250deg"
*CORR_POS_VALUE_ISL "10.0mm"
*CORR_POS_VALUE_ISOLLER "5.0deg"
*CORR_POS_VALUE_RS1 "1.250deg"
*CORR_POS_VALUE_RS2 "0.3mm"
*CORR_POS_VALUE_RSOLLER "5.0deg"
*CORR_POS_XG_FOCUS_L ""
*CORR_POS_XG_WAVE_TYPE ""
*CORR_POS_XG_WAVE_VALUE ""
*DISP_FMT_X "%.2f"
*DISP_FMT_Y "%.0f"
*DISP_FULLSCALE "3996.0000000000"
*DISP_LINE_COLOR "255.0000000000"
*DISP_LINE_STYLE "0.0000000000"
*DISP_LINE_WIDTH "0.2500000000"
*DISP_NOTE "Collected Data-4"
*DISP_OFFSET_Y "0.0000000000"
*DISP_PEAKSEARCH_UNIT_Y "CPS"
*DISP_RANGE_BOTTOM "0.0000000000"
*DISP_RANGE_LEFT "5.0000000000"
*DISP_RANGE_LOGCUTOFF "0.0100000000"
*DISP_RANGE_RIGHT "65.0000000000"
*DISP_RANGE_TOP "3996.0000000000"
*DISP_SCALE_MODE_Y "0.0000000000"
*DISP_TAB_NAME "Theta/2-Theta"
*DISP_TITLE_Y "Intensity"
*DISP_UNIT_Y "CPS"
*DISP_WINDOW_NAME "MSG_MACROENGINE"
*FILE_COMMENT " "
*FILE_MD5 ""
*FILE_MEMO " "
*FILE_OPERATOR "Administrator"
*FILE_PART_ID "MEAS_PBEA_00223"
*FILE_SAMPLE " "
*FILE_TYPE "RAS_RAW"
*FILE_USERGROUP "System Manager"
*FILE_VERSION "1.0000000000"
*HW_ATTACHMENT_ID "ATT1031"
*HW_ATTACHMENT_NAME "6サンプルチェンジャ|ASC-6"
*HW_COUNTER_ID-0 "CUT0021"
*HW_COUNTER_ID-1 "CUT0020"
*HW_COUNTER_ID-2 "CUT0020"
*HW_COUNTER_ID-3 "CMC0021"
*HW_COUNTER_NAME-0 "SC-70|SC-70"
*HW_COUNTER_NAME-1 "None|None"
*HW_COUNTER_NAME-2 "None|None"
*HW_COUNTER_NAME-3 "検出器モノクロメータ|Detector monochromator"
*HW_COUNTER_SELECT_NAME "SC-70|SC-70"
*HW_ECP_HV "671.5000000000"
*HW_ECP_HV_UNIT "V"
*HW_GONIOMETER_ID "GON0070"
*HW_GONIOMETER_NAME "MiniFlex 300/600|MiniFlex 300/600"
*HW_GONIOMETER_RADIUS-0 "79.0"
*HW_GONIOMETER_RADIUS-1 "91.5"
*HW_GONIOMETER_RADIUS-2 "150.0"
*HW_GONIOMETER_RADIUS-3 "0"
*HW_GONIOMETER_RADIUS-4 "103.4"
*HW_GONIOMETER_RADIUS-5 "150.0"
*HW_GONIOMETER_RADIUS-6 "46.6"
*HW_GONIOMETER_RADIUS-7 "160.0"
*HW_I_OPT_ID-0 "ISL0021"
*HW_I_OPT_ID-1 "ISO0021"
*HW_I_OPT_NAME-0 "発散スリット|Divergence slit"
*HW_I_OPT_NAME-1 "入射平行スリット|Incident parallel slit"
*HW_R_ATTENUATER_AUTOMODE "0"
*HW_R_OPT_ID-0 "RSS0021"
*HW_R_OPT_ID-1 "RSO0021"
*HW_R_OPT_ID-2 "RRS0021"
*HW_R_OPT_NAME-0 "散乱スリット|Scattering slit"
*HW_R_OPT_NAME-1 "受光平行スリット|Receiving soller slit"
*HW_R_OPT_NAME-2 "受光スリット|Receiving slit"
*HW_SAMPLE_HOLDER_ID "SMP0000"
*HW_SAMPLE_HOLDER_NAME "無し|None"
*HW_XG_CURRENT_MAX "15"
*HW_XG_CURRENT_MIN "2"
*HW_XG_CURRENT_RESOLUTION "1"
*HW_XG_CURRENT_UNIT "mA"
*HW_XG_FOCUS "1mm x 10mm"
*HW_XG_FOCUS_TYPE "Normal"
*HW_XG_ID "1060"
*HW_XG_NAME "300W/600W 封入管-B|300W/600W Sealed tube-B"
*HW_XG_TARGET_ATOMIC_NUMBER "29.0000000000"
*HW_XG_TARGET_NAME "Cu"
*HW_XG_TYPE "Hermetic"
*HW_XG_VOLTAGE_MAX "40"
*HW_XG_VOLTAGE_MIN "20"
*HW_XG_VOLTAGE_RESOLUTION "1"
*HW_XG_VOLTAGE_UNIT "kV"
*HW_XG_WATT_MAX "0.600"
*HW_XG_WATT_UNIT "kW"
*HW_XG_WAVE_LENGTH_ALPHA1 "1.540593"
*HW_XG_WAVE_LENGTH_ALPHA2 "1.544414"
*HW_XG_WAVE_LENGTH_BETA "1.392250"
*MEAS_COND_AXIS_NAME-0 "Theta/2-Theta"
*MEAS_COND_AXIS_NAME-1 "Spin"
*MEAS_COND_AXIS_NAME-2 "Change"
*MEAS_COND_AXIS_NAME-3 "Soller(inc.)"
*MEAS_COND_AXIS_NAME-4 "IHS"
*MEAS_COND_AXIS_NAME-5 "DS"
*MEAS_COND_AXIS_NAME-6 "SS"
*MEAS_COND_AXIS_NAME-7 "Soller(rec.)"
*MEAS_COND_AXIS_NAME-8 "RS"
*MEAS_COND_AXIS_NAME-9 "Filter"
*MEAS_COND_AXIS_NAME-10 "Monochromator"
*MEAS_COND_AXIS_NAME-11 "HV"
*MEAS_COND_AXIS_NAME-12 "PHA"
*MEAS_COND_AXIS_NAME_INTERNAL-0 "TwoThetaTheta"
*MEAS_COND_AXIS_NAME_INTERNAL-1 "Spin"
*MEAS_COND_AXIS_NAME_INTERNAL-2 "Change"
*MEAS_COND_AXIS_NAME_INTERNAL-3 "IncidentSollerSlit"
*MEAS_COND_AXIS_NAME_INTERNAL-4 "IncidentAxdSlit"
*MEAS_COND_AXIS_NAME_INTERNAL-5 "IncidentSlitBox"
*MEAS_COND_AXIS_NAME_INTERNAL-6 "ReceivingSlitBox1"
*MEAS_COND_AXIS_NAME_INTERNAL-7 "ReceivingSollerSlit"
*MEAS_COND_AXIS_NAME_INTERNAL-8 "ReceivingSlitBox2"
*MEAS_COND_AXIS_NAME_INTERNAL-9 "Filter"
*MEAS_COND_AXIS_NAME_INTERNAL-10 "CounterMonochromator"
*MEAS_COND_AXIS_NAME_INTERNAL-11 "HV"
*MEAS_COND_AXIS_NAME_INTERNAL-12 "PHA"
*MEAS_COND_AXIS_NAME_MAGICNO-0 "268632064.0000000000"
*MEAS_COND_AXIS_NAME_MAGICNO-1 "16842752.0000000000"
*MEAS_COND_AXIS_NAME_MAGICNO-2 "16842752.0000000000"
*MEAS_COND_AXIS_NAME_MAGICNO-3 "20971521.0000000000"
*MEAS_COND_AXIS_NAME_MAGICNO-4 "22020097.0000000000"
*MEAS_COND_AXIS_NAME_MAGICNO-5 "22020097.0000000000"
*MEAS_COND_AXIS_NAME_MAGICNO-6 "23068673.0000000000"
*MEAS_COND_AXIS_NAME_MAGICNO-7 "20971521.0000000000"
*MEAS_COND_AXIS_NAME_MAGICNO-8 "23068673.0000000000"
*MEAS_COND_AXIS_NAME_MAGICNO-9 "20971521.0000000000"
*MEAS_COND_AXIS_NAME_MAGICNO-10 "20971521.0000000000"
*MEAS_COND_AXIS_NAME_MAGICNO-11 "0.0000000000"
*MEAS_COND_AXIS_NAME_MAGICNO-12 "0.0000000000"
*MEAS_COND_AXIS_OFFSET-0 "0.0000000000"
*MEAS_COND_AXIS_OFFSET-1 "-"
*MEAS_COND_AXIS_OFFSET-2 "-"
*MEAS_COND_AXIS_OFFSET-3 "-"
*MEAS_COND_AXIS_OFFSET-4 "-"
*MEAS_COND_AXIS_OFFSET-5 "-"
*MEAS_COND_AXIS_OFFSET-6 "-"
*MEAS_COND_AXIS_OFFSET-7 "-"
*MEAS_COND_AXIS_OFFSET-8 "-"
*MEAS_COND_AXIS_OFFSET-9 "-"
*MEAS_COND_AXIS_OFFSET-10 "-"
*MEAS_COND_AXIS_OFFSET-11 "-"
*MEAS_COND_AXIS_OFFSET-12 "-"
*MEAS_COND_AXIS_POSITION-0 "65.0000000000"
*MEAS_COND_AXIS_POSITION-1 "0.0000000000"
*MEAS_COND_AXIS_POSITION-2 "4.0000000000"
*MEAS_COND_AXIS_POSITION-3 "5.0deg"
*MEAS_COND_AXIS_POSITION-4 "10.0mm"
*MEAS_COND_AXIS_POSITION-5 "1.250deg"
*MEAS_COND_AXIS_POSITION-6 "1.250deg"
*MEAS_COND_AXIS_POSITION-7 "5.0deg"
*MEAS_COND_AXIS_POSITION-8 "0.3mm"
*MEAS_COND_AXIS_POSITION-9 "None"
*MEAS_COND_AXIS_POSITION-10 "Bent"
*MEAS_COND_AXIS_POSITION-11 "671.5000000000"
*MEAS_COND_AXIS_POSITION-12 "551.2500000000"
*MEAS_COND_AXIS_UNIT-0 "deg"
*MEAS_COND_AXIS_UNIT-1 ""
*MEAS_COND_AXIS_UNIT-2 ""
*MEAS_COND_AXIS_UNIT-3 ""
*MEAS_COND_AXIS_UNIT-4 ""
*MEAS_COND_AXIS_UNIT-5 ""
*MEAS_COND_AXIS_UNIT-6 ""
*MEAS_COND_AXIS_UNIT-7 ""
*MEAS_COND_AXIS_UNIT-8 ""
*MEAS_COND_AXIS_UNIT-9 ""
*MEAS_COND_AXIS_UNIT-10 ""
*MEAS_COND_AXIS_UNIT-11 "V"
*MEAS_COND_AXIS_UNIT-12 "mV"
*MEAS_COND_CORRECTION_SLIT_COUNTERMONO "None"
*MEAS_COND_CORRECTION_SLIT_DS "1.250deg"
*MEAS_COND_CORRECTION_SLIT_FILTER "None"
*MEAS_COND_CORRECTION_SLIT_IHS "10.0mm"
*MEAS_COND_CORRECTION_SLIT_RS "0.3mm"
*MEAS_COND_CORRECTION_SLIT_SOLLER_INC "5.0deg"
*MEAS_COND_CORRECTION_SLIT_SOLLER_REC "5.0deg"
*MEAS_COND_CORRECTION_SLIT_SS "1.250deg"
*MEAS_COND_COUNTER_CNTLOSS_CORR "0.0000000000"
*MEAS_COND_COUNTER_PHABASE "551.2500000000"
*MEAS_COND_COUNTER_PHAWINDOW "926.2500000000"
*MEAS_COND_COUNTER_PHA_UNIT "mV"
*MEAS_COND_COUNTER_TAUDIFF "0.2500000000"
*MEAS_COND_COUNTER_TAUINT "0.7500000000"
*MEAS_COND_IRRADIATION_MODE "OFF"
*MEAS_COND_IRRADIATION_WIDTH ""
*MEAS_COND_OPT_ATTR " "
*MEAS_COND_OPT_NAME ""
*MEAS_COND_UNSYMMETRIC_MODE "OFF"
*MEAS_COND_XG_CURRENT "15.0000000000"
*MEAS_COND_XG_VOLTAGE "40.0000000000"
*MEAS_COND_XG_WAVE_TYPE "Ka"
*MEAS_DATA_COUNT "3001.0000000000"
*MEAS_SCAN_AXIS_X "Theta/2-Theta"
*MEAS_SCAN_AXIS_X_INTERNAL "TwoThetaTheta"
*MEAS_SCAN_END_TIME "04/28/25 19:22:12"
*MEAS_SCAN_MODE "STEP"
*MEAS_SCAN_MONITOR "0"
*MEAS_SCAN_RESOLUTION_X "0.0025"
*MEAS_SCAN_SPEED "2.00"
*MEAS_SCAN_SPEED_UNIT "sec."
*MEAS_SCAN_SPEED_USER "2.00"
*MEAS_SCAN_START "5.0000000000"
*MEAS_SCAN_START_TIME "04/28/25 17:36:55"
*MEAS_SCAN_STEP "0.0200000000"
*MEAS_SCAN_STOP "65.0000000000"
*MEAS_SCAN_UNIT_X "deg"
*MEAS_SCAN_UNIT_Y "counts"
*SLIT_SYSTEM "0"
*RAS_HEADER_END
*RAS_INT_START
5.0000 1046.0000 1.0000
5.0200 1045.0000 1.0000
5.0400 1052.0000 1.0000
5.0600 989.0000 1.0000
5.0800 996.0000 1.0000
5.1000 956.0000 1.0000
5.1200 919.0000 1.0000
5.1400 1043.0000 1.0000
5.1600 1010.0000 1.0000
5.1800 970.0000 1.0000
5.2000 905.0000 1.0000
5.2200 955.0000 1.0000
5.2400 944.0000 1.0000
5.2600 888.0000 1.0000
5.2800 955.0000 1.0000
5.3000 895.0000 1.0000
5.3200 909.0000 1.0000
5.3400 972.0000 1.0000
5.3600 916.0000 1.0000
5.3800 896.0000 1.0000
5.4000 916.0000 1.0000
5.4200 968.0000 1.0000
5.4400 954.0000 1.0000
5.4600 828.0000 1.0000
5.4800 906.0000 1.0000
5.5000 920.0000 1.0000
5.5200 951.0000 1.0000
5.5400 900.0000 1.0000
5.5600 893.0000 1.0000
5.5800 877.0000 1.0000
5.6000 880.0000 1.0000
5.6200 831.0000 1.0000
5.6400 788.0000 1.0000
5.6600 812.0000 1.0000
5.6800 868.0000 1.0000
5.7000 809.0000 1.0000
5.7200 797.0000 1.0000
5.7400 865.0000 1.0000
5.7600 775.0000 1.0000
5.7800 840.0000 1.0000
5.8000 898.0000 1.0000
5.8200 914.0000 1.0000
5.8400 873.0000 1.0000
5.8600 794.0000 1.0000
5.8800 877.0000 1.0000
5.9000 874.0000 1.0000
5.9200 877.0000 1.0000
5.9400 893.0000 1.0000
5.9600 837.0000 1.0000
5.9800 865.0000 1.0000
6.0000 887.0000 1.0000
6.0200 828.0000 1.0000
6.0400 853.0000 1.0000
6.0600 804.0000 1.0000
6.0800 823.0000 1.0000
6.1000 805.0000 1.0000
6.1200 833.0000 1.0000
6.1400 855.0000 1.0000
6.1600 849.0000 1.0000
6.1800 846.0000 1.0000
6.2000 831.0000 1.0000
6.2200 841.0000 1.0000
6.2400 856.0000 1.0000
6.2600 791.0000 1.0000
6.2800 738.0000 1.0000
6.3000 744.0000 1.0000
6.3200 762.0000 1.0000
6.3400 757.0000 1.0000
6.3600 714.0000 1.0000
6.3800 764.0000 1.0000
6.4000 773.0000 1.0000
6.4200 759.0000 1.0000
6.4400 763.0000 1.0000
6.4600 714.0000 1.0000
6.4800 732.0000 1.0000
6.5000 759.0000 1.0000
6.5200 690.0000 1.0000
6.5400 665.0000 1.0000
6.5600 666.0000 1.0000
6.5800 678.0000 1.0000
6.6000 693.0000 1.0000
6.6200 717.0000 1.0000
6.6400 729.0000 1.0000
6.6600 721.0000 1.0000
6.6800 707.0000 1.0000
6.7000 686.0000 1.0000
6.7200 728.0000 1.0000
6.7400 734.0000 1.0000
6.7600 666.0000 1.0000
6.7800 656.0000 1.0000
6.8000 676.0000 1.0000
6.8200 652.0000 1.0000
6.8400 639.0000 1.0000
6.8600 653.0000 1.0000
6.8800 679.0000 1.0000
6.9000 666.0000 1.0000
6.9200 653.0000 1.0000
6.9400 632.0000 1.0000
6.9600 601.0000 1.0000
6.9800 615.0000 1.0000
7.0000 614.0000 1.0000
7.0200 612.0000 1.0000
7.0400 631.0000 1.0000
7.0600 656.0000 1.0000
7.0800 620.0000 1.0000
7.1000 558.0000 1.0000
7.1200 585.0000 1.0000
7.1400 615.0000 1.0000
7.1600 587.0000 1.0000
7.1800 583.0000 1.0000
7.2000 586.0000 1.0000
7.2200 569.0000 1.0000
7.2400 560.0000 1.0000
7.2600 563.0000 1.0000
7.2800 577.0000 1.0000
7.3000 617.0000 1.0000
7.3200 641.0000 1.0000
7.3400 573.0000 1.0000
7.3600 510.0000 1.0000
7.3800 534.0000 1.0000
7.4000 576.0000 1.0000
7.4200 541.0000 1.0000
7.4400 565.0000 1.0000
7.4600 566.0000 1.0000
7.4800 544.0000 1.0000
7.5000 558.0000 1.0000
7.5200 519.0000 1.0000
7.5400 535.0000 1.0000
7.5600 549.0000 1.0000
7.5800 520.0000 1.0000
7.6000 526.0000 1.0000
7.6200 539.0000 1.0000
7.6400 535.0000 1.0000
7.6600 527.0000 1.0000
7.6800 518.0000 1.0000
7.7000 478.0000 1.0000
7.7200 486.0000 1.0000
7.7400 512.0000 1.0000
7.7600 491.0000 1.0000
7.7800 533.0000 1.0000
7.8000 551.0000 1.0000
7.8200 495.0000 1.0000
7.8400 479.0000 1.0000
7.8600 506.0000 1.0000
7.8800 469.0000 1.0000
7.9000 449.0000 1.0000
7.9200 481.0000 1.0000
7.9400 485.0000 1.0000
7.9600 483.0000 1.0000
7.9800 489.0000 1.0000
8.0000 479.0000 1.0000
8.0200 454.0000 1.0000
8.0400 472.0000 1.0000
8.0600 484.0000 1.0000
8.0800 472.0000 1.0000
8.1000 507.0000 1.0000
8.1200 497.0000 1.0000
8.1400 526.0000 1.0000
8.1600 508.0000 1.0000
8.1800 484.0000 1.0000
8.2000 526.0000 1.0000
8.2200 514.0000 1.0000
8.2400 526.0000 1.0000
8.2600 513.0000 1.0000
8.2800 499.0000 1.0000
8.3000 545.0000 1.0000
8.3200 510.0000 1.0000
8.3400 538.0000 1.0000
8.3600 603.0000 1.0000
8.3800 519.0000 1.0000
8.4000 505.0000 1.0000
8.4200 519.0000 1.0000
8.4400 558.0000 1.0000
8.4600 530.0000 1.0000
8.4800 531.0000 1.0000
8.5000 539.0000 1.0000
8.5200 509.0000 1.0000
8.5400 516.0000 1.0000
8.5600 568.0000 1.0000
8.5800 562.0000 1.0000
8.6000 561.0000 1.0000
8.6200 581.0000 1.0000
8.6400 582.0000 1.0000
8.6600 552.0000 1.0000
8.6800 514.0000 1.0000
8.7000 496.0000 1.0000
8.7200 469.0000 1.0000
8.7400 408.0000 1.0000
8.7600 442.0000 1.0000
8.7800 424.0000 1.0000
8.8000 435.0000 1.0000
8.8200 396.0000 1.0000
8.8400 416.0000 1.0000
8.8600 378.0000 1.0000
8.8800 377.0000 1.0000
8.9000 388.0000 1.0000
8.9200 358.0000 1.0000
8.9400 376.0000 1.0000
8.9600 380.0000 1.0000
8.9800 362.0000 1.0000
9.0000 380.0000 1.0000
9.0200 412.0000 1.0000
9.0400 395.0000 1.0000
9.0600 380.0000 1.0000
9.0800 416.0000 1.0000
9.1000 481.0000 1.0000
9.1200 467.0000 1.0000
9.1400 489.0000 1.0000
9.1600 433.0000 1.0000
9.1800 411.0000 1.0000
9.2000 398.0000 1.0000
9.2200 371.0000 1.0000
9.2400 376.0000 1.0000
9.2600 339.0000 1.0000
9.2800 296.0000 1.0000
9.3000 303.0000 1.0000
9.3200 319.0000 1.0000
9.3400 304.0000 1.0000
9.3600 301.0000 1.0000
9.3800 323.0000 1.0000
9.4000 324.0000 1.0000
9.4200 329.0000 1.0000
9.4400 311.0000 1.0000
9.4600 292.0000 1.0000
9.4800 292.0000 1.0000
9.5000 279.0000 1.0000
9.5200 251.0000 1.0000
9.5400 290.0000 1.0000
9.5600 283.0000 1.0000
9.5800 259.0000 1.0000
9.6000 261.0000 1.0000
9.6200 235.0000 1.0000
9.6400 252.0000 1.0000
9.6600 261.0000 1.0000
9.6800 272.0000 1.0000
9.7000 249.0000 1.0000
9.7200 292.0000 1.0000
9.7400 274.0000 1.0000
9.7600 259.0000 1.0000
9.7800 229.0000 1.0000
9.8000 271.0000 1.0000
9.8200 257.0000 1.0000
9.8400 249.0000 1.0000
9.8600 220.0000 1.0000
9.8800 238.0000 1.0000
9.9000 244.0000 1.0000
9.9200 230.0000 1.0000
9.9400 237.0000 1.0000
9.9600 216.0000 1.0000
9.9800 243.0000 1.0000
10.0000 262.0000 1.0000
10.0200 265.0000 1.0000
10.0400 279.0000 1.0000
10.0600 247.0000 1.0000
10.0800 254.0000 1.0000
10.1000 242.0000 1.0000
10.1200 235.0000 1.0000
10.1400 275.0000 1.0000
10.1600 270.0000 1.0000
10.1800 222.0000 1.0000
10.2000 258.0000 1.0000
10.2200 278.0000 1.0000
10.2400 261.0000 1.0000
10.2600 275.0000 1.0000
10.2800 284.0000 1.0000
10.3000 263.0000 1.0000
10.3200 235.0000 1.0000
10.3400 226.0000 1.0000
10.3600 240.0000 1.0000
10.3800 231.0000 1.0000
10.4000 214.0000 1.0000
10.4200 194.0000 1.0000
10.4400 217.0000 1.0000
10.4600 193.0000 1.0000
10.4800 216.0000 1.0000
10.5000 199.0000 1.0000
10.5200 204.0000 1.0000
10.5400 186.0000 1.0000
10.5600 186.0000 1.0000
10.5800 191.0000 1.0000
10.6000 162.0000 1.0000
10.6200 180.0000 1.0000
10.6400 183.0000 1.0000
10.6600 195.0000 1.0000
10.6800 254.0000 1.0000
10.7000 192.0000 1.0000
10.7200 209.0000 1.0000
10.7400 181.0000 1.0000
10.7600 175.0000 1.0000
10.7800 219.0000 1.0000
10.8000 182.0000 1.0000
10.8200 178.0000 1.0000
10.8400 186.0000 1.0000
10.8600 191.0000 1.0000
10.8800 172.0000 1.0000
10.9000 173.0000 1.0000
10.9200 178.0000 1.0000
10.9400 166.0000 1.0000
10.9600 206.0000 1.0000
10.9800 177.0000 1.0000
11.0000 148.0000 1.0000
11.0200 173.0000 1.0000
11.0400 227.0000 1.0000
11.0600 169.0000 1.0000
11.0800 143.0000 1.0000
11.1000 160.0000 1.0000
11.1200 185.0000 1.0000
11.1400 161.0000 1.0000
11.1600 178.0000 1.0000
11.1800 166.0000 1.0000
11.2000 202.0000 1.0000
11.2200 210.0000 1.0000
11.2400 185.0000 1.0000
11.2600 169.0000 1.0000
11.2800 187.0000 1.0000
11.3000 170.0000 1.0000
11.3200 175.0000 1.0000
11.3400 165.0000 1.0000
11.3600 146.0000 1.0000
11.3800 186.0000 1.0000
11.4000 154.0000 1.0000
11.4200 182.0000 1.0000
11.4400 163.0000 1.0000
11.4600 170.0000 1.0000
11.4800 192.0000 1.0000
11.5000 176.0000 1.0000
11.5200 162.0000 1.0000
11.5400 186.0000 1.0000
11.5600 194.0000 1.0000
11.5800 181.0000 1.0000
11.6000 166.0000 1.0000
11.6200 167.0000 1.0000
11.6400 148.0000 1.0000
11.6600 165.0000 1.0000
11.6800 171.0000 1.0000
11.7000 144.0000 1.0000
11.7200 183.0000 1.0000
11.7400 164.0000 1.0000
11.7600 183.0000 1.0000
11.7800 173.0000 1.0000
11.8000 177.0000 1.0000
11.8200 198.0000 1.0000
11.8400 202.0000 1.0000
11.8600 184.0000 1.0000
11.8800 189.0000 1.0000
11.9000 173.0000 1.0000
11.9200 185.0000 1.0000
11.9400 196.0000 1.0000
11.9600 188.0000 1.0000
11.9800 228.0000 1.0000
12.0000 223.0000 1.0000
12.0200 230.0000 1.0000
12.0400 225.0000 1.0000
12.0600 219.0000 1.0000
12.0800 209.0000 1.0000
12.1000 236.0000 1.0000
12.1200 201.0000 1.0000
12.1400 213.0000 1.0000
12.1600 243.0000 1.0000
12.1800 236.0000 1.0000
12.2000 258.0000 1.0000
12.2200 249.0000 1.0000
12.2400 280.0000 1.0000
12.2600 291.0000 1.0000
12.2800 282.0000 1.0000
12.3000 269.0000 1.0000
12.3200 238.0000 1.0000
12.3400 239.0000 1.0000
12.3600 239.0000 1.0000
12.3800 212.0000 1.0000
12.4000 214.0000 1.0000
12.4200 214.0000 1.0000
12.4400 197.0000 1.0000
12.4600 221.0000 1.0000
12.4800 175.0000 1.0000
12.5000 183.0000 1.0000
12.5200 182.0000 1.0000
12.5400 170.0000 1.0000
12.5600 201.0000 1.0000
12.5800 183.0000 1.0000
12.6000 190.0000 1.0000
12.6200 176.0000 1.0000
12.6400 185.0000 1.0000
12.6600 176.0000 1.0000
12.6800 189.0000 1.0000
12.7000 205.0000 1.0000
12.7200 226.0000 1.0000
12.7400 232.0000 1.0000
12.7600 226.0000 1.0000
12.7800 230.0000 1.0000
12.8000 189.0000 1.0000
12.8200 188.0000 1.0000
12.8400 194.0000 1.0000
12.8600 172.0000 1.0000
12.8800 177.0000 1.0000
12.9000 152.0000 1.0000
12.9200 142.0000 1.0000
12.9400 156.0000 1.0000
12.9600 173.0000 1.0000
12.9800 160.0000 1.0000
13.0000 170.0000 1.0000
13.0200 157.0000 1.0000
13.0400 172.0000 1.0000
13.0600 145.0000 1.0000
13.0800 162.0000 1.0000
13.1000 149.0000 1.0000
13.1200 140.0000 1.0000
13.1400 164.0000 1.0000
13.1600 189.0000 1.0000
13.1800 180.0000 1.0000
13.2000 172.0000 1.0000
13.2200 161.0000 1.0000
13.2400 182.0000 1.0000
13.2600 179.0000 1.0000
13.2800 185.0000 1.0000
13.3000 196.0000 1.0000
13.3200 206.0000 1.0000
13.3400 213.0000 1.0000
13.3600 245.0000 1.0000
13.3800 210.0000 1.0000
13.4000 207.0000 1.0000
13.4200 243.0000 1.0000
13.4400 253.0000 1.0000
13.4600 260.0000 1.0000
13.4800 275.0000 1.0000
13.5000 245.0000 1.0000
13.5200 219.0000 1.0000
13.5400 240.0000 1.0000
13.5600 235.0000 1.0000
13.5800 236.0000 1.0000
13.6000 224.0000 1.0000
13.6200 225.0000 1.0000
13.6400 248.0000 1.0000
13.6600 258.0000 1.0000
13.6800 242.0000 1.0000
13.7000 238.0000 1.0000
13.7200 221.0000 1.0000
13.7400 188.0000 1.0000
13.7600 186.0000 1.0000
13.7800 181.0000 1.0000
13.8000 175.0000 1.0000
13.8200 165.0000 1.0000
13.8400 157.0000 1.0000
13.8600 140.0000 1.0000
13.8800 139.0000 1.0000
13.9000 141.0000 1.0000
13.9200 138.0000 1.0000
13.9400 152.0000 1.0000
13.9600 145.0000 1.0000
13.9800 143.0000 1.0000
14.0000 144.0000 1.0000
14.0200 137.0000 1.0000
14.0400 133.0000 1.0000
14.0600 157.0000 1.0000
14.0800 158.0000 1.0000
14.1000 146.0000 1.0000
14.1200 150.0000 1.0000
14.1400 147.0000 1.0000
14.1600 169.0000 1.0000
14.1800 176.0000 1.0000
14.2000 150.0000 1.0000
14.2200 145.0000 1.0000
14.2400 145.0000 1.0000
14.2600 137.0000 1.0000
14.2800 131.0000 1.0000
14.3000 135.0000 1.0000
14.3200 144.0000 1.0000
14.3400 137.0000 1.0000
14.3600 142.0000 1.0000
14.3800 141.0000 1.0000
14.4000 121.0000 1.0000
14.4200 113.0000 1.0000
14.4400 111.0000 1.0000
14.4600 127.0000 1.0000
14.4800 149.0000 1.0000
14.5000 150.0000 1.0000
14.5200 151.0000 1.0000
14.5400 145.0000 1.0000
14.5600 122.0000 1.0000
14.5800 114.0000 1.0000
14.6000 121.0000 1.0000
14.6200 131.0000 1.0000
14.6400 134.0000 1.0000
14.6600 143.0000 1.0000
14.6800 149.0000 1.0000
14.7000 149.0000 1.0000
14.7200 146.0000 1.0000
14.7400 142.0000 1.0000
14.7600 141.0000 1.0000
14.7800 147.0000 1.0000
14.8000 159.0000 1.0000
14.8200 155.0000 1.0000
14.8400 154.0000 1.0000
14.8600 152.0000 1.0000
14.8800 152.0000 1.0000
14.9000 165.0000 1.0000
14.9200 166.0000 1.0000
14.9400 155.0000 1.0000
14.9600 146.0000 1.0000
14.9800 155.0000 1.0000
15.0000 151.0000 1.0000
15.0200 142.0000 1.0000
15.0400 153.0000 1.0000
15.0600 149.0000 1.0000
15.0800 129.0000 1.0000
15.1000 125.0000 1.0000
15.1200 128.0000 1.0000
15.1400 127.0000 1.0000
15.1600 117.0000 1.0000
15.1800 109.0000 1.0000
15.2000 111.0000 1.0000
15.2200 114.0000 1.0000
15.2400 111.0000 1.0000
15.2600 103.0000 1.0000
15.2800 119.0000 1.0000
15.3000 120.0000 1.0000
15.3200 117.0000 1.0000
15.3400 128.0000 1.0000
15.3600 137.0000 1.0000
15.3800 133.0000 1.0000
15.4000 134.0000 1.0000
15.4200 134.0000 1.0000
15.4400 133.0000 1.0000
15.4600 137.0000 1.0000
15.4800 132.0000 1.0000
15.5000 132.0000 1.0000
15.5200 132.0000 1.0000
15.5400 134.0000 1.0000
15.5600 141.0000 1.0000
15.5800 138.0000 1.0000
15.6000 131.0000 1.0000
15.6200 129.0000 1.0000
15.6400 138.0000 1.0000
15.6600 147.0000 1.0000
15.6800 134.0000 1.0000
15.7000 130.0000 1.0000
15.7200 143.0000 1.0000
15.7400 128.0000 1.0000
15.7600 116.0000 1.0000
15.7800 126.0000 1.0000
15.8000 111.0000 1.0000
15.8200 112.0000 1.0000
15.8400 121.0000 1.0000
15.8600 125.0000 1.0000
15.8800 125.0000 1.0000
15.9000 107.0000 1.0000
15.9200 109.0000 1.0000
15.9400 115.0000 1.0000
15.9600 123.0000 1.0000
15.9800 123.0000 1.0000
16.0000 128.0000 1.0000
16.0200 120.0000 1.0000
16.0400 118.0000 1.0000
16.0600 120.0000 1.0000
16.0800 122.0000 1.0000
16.1000 124.0000 1.0000
16.1200 129.0000 1.0000
16.1400 128.0000 1.0000
16.1600 105.0000 1.0000
16.1800 107.0000 1.0000
16.2000 114.0000 1.0000
16.2200 112.0000 1.0000
16.2400 107.0000 1.0000
16.2600 119.0000 1.0000
16.2800 125.0000 1.0000
16.3000 120.0000 1.0000
16.3200 115.0000 1.0000
16.3400 118.0000 1.0000
16.3600 123.0000 1.0000
16.3800 105.0000 1.0000
16.4000 106.0000 1.0000
16.4200 102.0000 1.0000
16.4400 99.0000 1.0000
16.4600 129.0000 1.0000
16.4800 124.0000 1.0000
16.5000 133.0000 1.0000
16.5200 137.0000 1.0000
16.5400 127.0000 1.0000
16.5600 135.0000 1.0000
16.5800 123.0000 1.0000
16.6000 117.0000 1.0000
16.6200 109.0000 1.0000
16.6400 104.0000 1.0000
16.6600 119.0000 1.0000
16.6800 120.0000 1.0000
16.7000 110.0000 1.0000
16.7200 122.0000 1.0000
16.7400 119.0000 1.0000
16.7600 114.0000 1.0000
16.7800 131.0000 1.0000
16.8000 126.0000 1.0000
16.8200 119.0000 1.0000
16.8400 121.0000 1.0000
16.8600 118.0000 1.0000
16.8800 132.0000 1.0000
16.9000 124.0000 1.0000
16.9200 120.0000 1.0000
16.9400 137.0000 1.0000
16.9600 127.0000 1.0000
16.9800 127.0000 1.0000
17.0000 119.0000 1.0000
17.0200 129.0000 1.0000
17.0400 126.0000 1.0000
17.0600 130.0000 1.0000
17.0800 149.0000 1.0000
17.1000 124.0000 1.0000
17.1200 124.0000 1.0000
17.1400 122.0000 1.0000
17.1600 118.0000 1.0000
17.1800 133.0000 1.0000
17.2000 141.0000 1.0000
17.2200 148.0000 1.0000
17.2400 141.0000 1.0000
17.2600 136.0000 1.0000
17.2800 149.0000 1.0000
17.3000 142.0000 1.0000
17.3200 142.0000 1.0000
17.3400 148.0000 1.0000
17.3600 157.0000 1.0000
17.3800 166.0000 1.0000
17.4000 172.0000 1.0000
17.4200 164.0000 1.0000
17.4400 176.0000 1.0000
17.4600 157.0000 1.0000
17.4800 155.0000 1.0000
17.5000 163.0000 1.0000
17.5200 170.0000 1.0000
17.5400 168.0000 1.0000
17.5600 164.0000 1.0000
17.5800 159.0000 1.0000
17.6000 159.0000 1.0000
17.6200 151.0000 1.0000
17.6400 161.0000 1.0000
17.6600 152.0000 1.0000
17.6800 137.0000 1.0000
17.7000 139.0000 1.0000
17.7200 140.0000 1.0000
17.7400 136.0000 1.0000
17.7600 130.0000 1.0000
17.7800 133.0000 1.0000
17.8000 137.0000 1.0000
17.8200 154.0000 1.0000
17.8400 150.0000 1.0000
17.8600 151.0000 1.0000
17.8800 147.0000 1.0000
17.9000 140.0000 1.0000
17.9200 134.0000 1.0000
17.9400 126.0000 1.0000
17.9600 136.0000 1.0000
17.9800 130.0000 1.0000
18.0000 129.0000 1.0000
18.0200 131.0000 1.0000
18.0400 122.0000 1.0000
18.0600 123.0000 1.0000
18.0800 123.0000 1.0000
18.1000 135.0000 1.0000
18.1200 111.0000 1.0000
18.1400 137.0000 1.0000
18.1600 161.0000 1.0000
18.1800 136.0000 1.0000
18.2000 124.0000 1.0000
18.2200 138.0000 1.0000
18.2400 122.0000 1.0000
18.2600 131.0000 1.0000
18.2800 121.0000 1.0000
18.3000 115.0000 1.0000
18.3200 133.0000 1.0000
18.3400 142.0000 1.0000
18.3600 155.0000 1.0000
18.3800 132.0000 1.0000
18.4000 140.0000 1.0000
18.4200 127.0000 1.0000
18.4400 153.0000 1.0000
18.4600 155.0000 1.0000
18.4800 138.0000 1.0000
18.5000 151.0000 1.0000
18.5200 178.0000 1.0000
18.5400 175.0000 1.0000
18.5600 161.0000 1.0000
18.5800 176.0000 1.0000
18.6000 176.0000 1.0000
18.6200 184.0000 1.0000
18.6400 178.0000 1.0000
18.6600 190.0000 1.0000
18.6800 210.0000 1.0000
18.7000 223.0000 1.0000
18.7200 226.0000 1.0000
18.7400 205.0000 1.0000
18.7600 189.0000 1.0000
18.7800 197.0000 1.0000
18.8000 177.0000 1.0000
18.8200 164.0000 1.0000
18.8400 158.0000 1.0000
18.8600 144.0000 1.0000
18.8800 177.0000 1.0000
18.9000 158.0000 1.0000
18.9200 149.0000 1.0000
18.9400 165.0000 1.0000
18.9600 177.0000 1.0000
18.9800 160.0000 1.0000
19.0000 186.0000 1.0000
19.0200 206.0000 1.0000
19.0400 197.0000 1.0000
19.0600 186.0000 1.0000
19.0800 192.0000 1.0000
19.1000 201.0000 1.0000
19.1200 203.0000 1.0000
19.1400 209.0000 1.0000
19.1600 210.0000 1.0000
19.1800 222.0000 1.0000
19.2000 222.0000 1.0000
19.2200 210.0000 1.0000
19.2400 212.0000 1.0000
19.2600 198.0000 1.0000
19.2800 178.0000 1.0000
19.3000 192.0000 1.0000
19.3200 211.0000 1.0000
19.3400 184.0000 1.0000
19.3600 207.0000 1.0000
19.3800 219.0000 1.0000
19.4000 215.0000 1.0000
19.4200 211.0000 1.0000
19.4400 221.0000 1.0000
19.4600 231.0000 1.0000
19.4800 259.0000 1.0000
19.5000 283.0000 1.0000
19.5200 306.0000 1.0000
19.5400 307.0000 1.0000
19.5600 318.0000 1.0000
19.5800 348.0000 1.0000
19.6000 355.0000 1.0000
19.6200 328.0000 1.0000
19.6400 328.0000 1.0000
19.6600 332.0000 1.0000
19.6800 340.0000 1.0000
19.7000 302.0000 1.0000
19.7200 297.0000 1.0000
19.7400 302.0000 1.0000
19.7600 278.0000 1.0000
19.7800 281.0000 1.0000
19.8000 250.0000 1.0000
19.8200 266.0000 1.0000
19.8400 254.0000 1.0000
19.8600 263.0000 1.0000
19.8800 228.0000 1.0000
19.9000 242.0000 1.0000
19.9200 274.0000 1.0000
19.9400 227.0000 1.0000
19.9600 223.0000 1.0000
19.9800 231.0000 1.0000
20.0000 214.0000 1.0000
20.0200 190.0000 1.0000
20.0400 197.0000 1.0000
20.0600 209.0000 1.0000
20.0800 234.0000 1.0000
20.1000 211.0000 1.0000
20.1200 211.0000 1.0000
20.1400 218.0000 1.0000
20.1600 233.0000 1.0000
20.1800 241.0000 1.0000
20.2000 196.0000 1.0000
20.2200 190.0000 1.0000
20.2400 232.0000 1.0000
20.2600 201.0000 1.0000
20.2800 246.0000 1.0000
20.3000 249.0000 1.0000
20.3200 273.0000 1.0000
20.3400 249.0000 1.0000
20.3600 283.0000 1.0000
20.3800 266.0000 1.0000
20.4000 298.0000 1.0000
20.4200 299.0000 1.0000
20.4400 327.0000 1.0000
20.4600 337.0000 1.0000
20.4800 376.0000 1.0000
20.5000 387.0000 1.0000
20.5200 520.0000 1.0000
20.5400 505.0000 1.0000
20.5600 651.0000 1.0000
20.5800 831.0000 1.0000
20.6000 998.0000 1.0000
20.6200 1156.0000 1.0000
20.6400 1302.0000 1.0000
20.6600 1380.0000 1.0000
20.6800 1487.0000 1.0000
20.7000 1423.0000 1.0000
20.7200 1227.0000 1.0000
20.7400 1069.0000 1.0000
20.7600 772.0000 1.0000
20.7800 572.0000 1.0000
20.8000 454.0000 1.0000
20.8200 390.0000 1.0000
20.8400 320.0000 1.0000
20.8600 352.0000 1.0000
20.8800 288.0000 1.0000
20.9000 265.0000 1.0000
20.9200 314.0000 1.0000
20.9400 288.0000 1.0000
20.9600 271.0000 1.0000
20.9800 230.0000 1.0000
21.0000 227.0000 1.0000
21.0200 234.0000 1.0000
21.0400 251.0000 1.0000
21.0600 235.0000 1.0000
21.0800 235.0000 1.0000
21.1000 261.0000 1.0000
21.1200 231.0000 1.0000
21.1400 273.0000 1.0000
21.1600 240.0000 1.0000
21.1800 224.0000 1.0000
21.2000 219.0000 1.0000
21.2200 212.0000 1.0000
21.2400 244.0000 1.0000
21.2600 215.0000 1.0000
21.2800 198.0000 1.0000
21.3000 188.0000 1.0000
21.3200 195.0000 1.0000
21.3400 208.0000 1.0000
21.3600 197.0000 1.0000
21.3800 204.0000 1.0000
21.4000 212.0000 1.0000
21.4200 198.0000 1.0000
21.4400 185.0000 1.0000
21.4600 199.0000 1.0000
21.4800 196.0000 1.0000
21.5000 217.0000 1.0000
21.5200 208.0000 1.0000
21.5400 214.0000 1.0000
21.5600 220.0000 1.0000
21.5800 244.0000 1.0000
21.6000 294.0000 1.0000
21.6200 298.0000 1.0000
21.6400 326.0000 1.0000
21.6600 347.0000 1.0000
21.6800 386.0000 1.0000
21.7000 465.0000 1.0000
21.7200 498.0000 1.0000
21.7400 611.0000 1.0000
21.7600 700.0000 1.0000
21.7800 739.0000 1.0000
21.8000 743.0000 1.0000
21.8200 681.0000 1.0000
21.8400 683.0000 1.0000
21.8600 570.0000 1.0000
21.8800 482.0000 1.0000
21.9000 435.0000 1.0000
21.9200 333.0000 1.0000
21.9400 324.0000 1.0000
21.9600 256.0000 1.0000
21.9800 235.0000 1.0000
22.0000 213.0000 1.0000
22.0200 180.0000 1.0000
22.0400 199.0000 1.0000
22.0600 175.0000 1.0000
22.0800 164.0000 1.0000
22.1000 167.0000 1.0000
22.1200 161.0000 1.0000
22.1400 179.0000 1.0000
22.1600 180.0000 1.0000
22.1800 184.0000 1.0000
22.2000 185.0000 1.0000
22.2200 174.0000 1.0000
22.2400 164.0000 1.0000
22.2600 172.0000 1.0000
22.2800 182.0000 1.0000
22.3000 181.0000 1.0000
22.3200 216.0000 1.0000
22.3400 176.0000 1.0000
22.3600 168.0000 1.0000
22.3800 193.0000 1.0000
22.4000 193.0000 1.0000
22.4200 192.0000 1.0000
22.4400 204.0000 1.0000
22.4600 195.0000 1.0000
22.4800 195.0000 1.0000
22.5000 186.0000 1.0000
22.5200 202.0000 1.0000
22.5400 217.0000 1.0000
22.5600 217.0000 1.0000
22.5800 237.0000 1.0000
22.6000 232.0000 1.0000
22.6200 219.0000 1.0000
22.6400 255.0000 1.0000
22.6600 237.0000 1.0000
22.6800 235.0000 1.0000
22.7000 223.0000 1.0000
22.7200 237.0000 1.0000
22.7400 224.0000 1.0000
22.7600 237.0000 1.0000
22.7800 227.0000 1.0000
22.8000 219.0000 1.0000
22.8200 228.0000 1.0000
22.8400 236.0000 1.0000
22.8600 220.0000 1.0000
22.8800 214.0000 1.0000
22.9000 225.0000 1.0000
22.9200 235.0000 1.0000
22.9400 210.0000 1.0000
22.9600 221.0000 1.0000
22.9800 198.0000 1.0000
23.0000 184.0000 1.0000
23.0200 182.0000 1.0000
23.0400 199.0000 1.0000
23.0600 188.0000 1.0000
23.0800 179.0000 1.0000
23.1000 210.0000 1.0000
23.1200 202.0000 1.0000
23.1400 228.0000 1.0000
23.1600 232.0000 1.0000
23.1800 230.0000 1.0000
23.2000 242.0000 1.0000
23.2200 267.0000 1.0000
23.2400 308.0000 1.0000
23.2600 315.0000 1.0000
23.2800 350.0000 1.0000
23.3000 400.0000 1.0000
23.3200 458.0000 1.0000
23.3400 501.0000 1.0000
23.3600 540.0000 1.0000
23.3800 565.0000 1.0000
23.4000 630.0000 1.0000
23.4200 611.0000 1.0000
23.4400 649.0000 1.0000
23.4600 623.0000 1.0000
23.4800 598.0000 1.0000
23.5000 565.0000 1.0000
23.5200 517.0000 1.0000
23.5400 482.0000 1.0000
23.5600 447.0000 1.0000
23.5800 388.0000 1.0000
23.6000 333.0000 1.0000
23.6200 303.0000 1.0000
23.6400 283.0000 1.0000
23.6600 260.0000 1.0000
23.6800 252.0000 1.0000
23.7000 253.0000 1.0000
23.7200 250.0000 1.0000
23.7400 231.0000 1.0000
23.7600 238.0000 1.0000
23.7800 244.0000 1.0000
23.8000 228.0000 1.0000
23.8200 246.0000 1.0000
23.8400 239.0000 1.0000
23.8600 251.0000 1.0000
23.8800 259.0000 1.0000
23.9000 260.0000 1.0000
23.9200 301.0000 1.0000
23.9400 327.0000 1.0000
23.9600 323.0000 1.0000
23.9800 342.0000 1.0000
24.0000 362.0000 1.0000
24.0200 374.0000 1.0000
24.0400 354.0000 1.0000
24.0600 410.0000 1.0000
24.0800 435.0000 1.0000
24.1000 427.0000 1.0000
24.1200 393.0000 1.0000
24.1400 414.0000 1.0000
24.1600 425.0000 1.0000
24.1800 426.0000 1.0000
24.2000 437.0000 1.0000
24.2200 389.0000 1.0000
24.2400 398.0000 1.0000
24.2600 390.0000 1.0000
24.2800 390.0000 1.0000
24.3000 413.0000 1.0000
24.3200 363.0000 1.0000
24.3400 356.0000 1.0000
24.3600 319.0000 1.0000
24.3800 291.0000 1.0000
24.4000 278.0000 1.0000
24.4200 279.0000 1.0000
24.4400 249.0000 1.0000
24.4600 232.0000 1.0000
24.4800 241.0000 1.0000
24.5000 221.0000 1.0000
24.5200 214.0000 1.0000
24.5400 195.0000 1.0000
24.5600 186.0000 1.0000
24.5800 190.0000 1.0000
24.6000 194.0000 1.0000
24.6200 187.0000 1.0000
24.6400 187.0000 1.0000
24.6600 180.0000 1.0000
24.6800 180.0000 1.0000
24.7000 175.0000 1.0000
24.7200 200.0000 1.0000
24.7400 222.0000 1.0000
24.7600 218.0000 1.0000
24.7800 199.0000 1.0000
24.8000 190.0000 1.0000
24.8200 192.0000 1.0000
24.8400 202.0000 1.0000
24.8600 228.0000 1.0000
24.8800 207.0000 1.0000
24.9000 229.0000 1.0000
24.9200 232.0000 1.0000
24.9400 252.0000 1.0000
24.9600 266.0000 1.0000
24.9800 254.0000 1.0000
25.0000 258.0000 1.0000
25.0200 264.0000 1.0000
25.0400 274.0000 1.0000
25.0600 271.0000 1.0000
25.0800 291.0000 1.0000
25.1000 307.0000 1.0000
25.1200 302.0000 1.0000
25.1400 319.0000 1.0000
25.1600 322.0000 1.0000
25.1800 393.0000 1.0000
25.2000 418.0000 1.0000
25.2200 465.0000 1.0000
25.2400 540.0000 1.0000
25.2600 616.0000 1.0000
25.2800 676.0000 1.0000
25.3000 806.0000 1.0000
25.3200 937.0000 1.0000
25.3400 1028.0000 1.0000
25.3600 1163.0000 1.0000
25.3800 1283.0000 1.0000
25.4000 1284.0000 1.0000
25.4200 1254.0000 1.0000
25.4400 1165.0000 1.0000
25.4600 977.0000 1.0000
25.4800 823.0000 1.0000
25.5000 706.0000 1.0000
25.5200 585.0000 1.0000
25.5400 480.0000 1.0000
25.5600 437.0000 1.0000
25.5800 372.0000 1.0000
25.6000 325.0000 1.0000
25.6200 286.0000 1.0000
25.6400 297.0000 1.0000
25.6600 303.0000 1.0000
25.6800 267.0000 1.0000
25.7000 257.0000 1.0000
25.7200 273.0000 1.0000
25.7400 273.0000 1.0000
25.7600 267.0000 1.0000
25.7800 274.0000 1.0000
25.8000 277.0000 1.0000
25.8200 248.0000 1.0000
25.8400 271.0000 1.0000
25.8600 286.0000 1.0000
25.8800 277.0000 1.0000
25.9000 280.0000 1.0000
25.9200 298.0000 1.0000
25.9400 303.0000 1.0000
25.9600 311.0000 1.0000
25.9800 300.0000 1.0000
26.0000 319.0000 1.0000
26.0200 342.0000 1.0000
26.0400 378.0000 1.0000
26.0600 415.0000 1.0000
26.0800 422.0000 1.0000
26.1000 464.0000 1.0000
26.1200 541.0000 1.0000
26.1400 574.0000 1.0000
26.1600 613.0000 1.0000
26.1800 689.0000 1.0000
26.2000 806.0000 1.0000
26.2200 901.0000 1.0000
26.2400 1044.0000 1.0000
26.2600 1213.0000 1.0000
26.2800 1403.0000 1.0000
26.3000 1679.0000 1.0000
26.3200 2052.0000 1.0000
26.3400 2482.0000 1.0000
26.3600 3164.0000 1.0000
26.3800 4044.0000 1.0000
26.4000 4934.0000 1.0000
26.4200 5717.0000 1.0000
26.4400 6385.0000 1.0000
26.4600 6660.0000 1.0000
26.4800 6424.0000 1.0000
26.5000 5803.0000 1.0000
26.5200 4849.0000 1.0000
26.5400 3728.0000 1.0000
26.5600 2759.0000 1.0000
26.5800 2014.0000 1.0000
26.6000 1417.0000 1.0000
26.6200 1029.0000 1.0000
26.6400 835.0000 1.0000
26.6600 721.0000 1.0000
26.6800 669.0000 1.0000
26.7000 650.0000 1.0000
26.7200 626.0000 1.0000
26.7400 616.0000 1.0000
26.7600 613.0000 1.0000
26.7800 559.0000 1.0000
26.8000 532.0000 1.0000
26.8200 527.0000 1.0000
26.8400 504.0000 1.0000
26.8600 459.0000 1.0000
26.8800 449.0000 1.0000
26.9000 455.0000 1.0000
26.9200 431.0000 1.0000
26.9400 417.0000 1.0000
26.9600 417.0000 1.0000
26.9800 418.0000 1.0000
27.0000 419.0000 1.0000
27.0200 398.0000 1.0000
27.0400 380.0000 1.0000
27.0600 392.0000 1.0000
27.0800 411.0000 1.0000
27.1000 413.0000 1.0000
27.1200 399.0000 1.0000
27.1400 414.0000 1.0000
27.1600 436.0000 1.0000
27.1800 467.0000 1.0000
27.2000 518.0000 1.0000
27.2200 527.0000 1.0000
27.2400 568.0000 1.0000
27.2600 624.0000 1.0000
27.2800 652.0000 1.0000
27.3000 695.0000 1.0000
27.3200 754.0000 1.0000
27.3400 790.0000 1.0000
27.3600 815.0000 1.0000
27.3800 849.0000 1.0000
27.4000 903.0000 1.0000
27.4200 961.0000 1.0000
27.4400 959.0000 1.0000
27.4600 968.0000 1.0000
27.4800 1016.0000 1.0000
27.5000 1056.0000 1.0000
27.5200 1123.0000 1.0000
27.5400 1213.0000 1.0000
27.5600 1323.0000 1.0000
27.5800 1441.0000 1.0000
27.6000 1521.0000 1.0000
27.6200 1564.0000 1.0000
27.6400 1605.0000 1.0000
27.6600 1613.0000 1.0000
27.6800 1534.0000 1.0000
27.7000 1452.0000 1.0000
27.7200 1428.0000 1.0000
27.7400 1436.0000 1.0000
27.7600 1405.0000 1.0000
27.7800 1412.0000 1.0000
27.8000 1432.0000 1.0000
27.8200 1442.0000 1.0000
27.8400 1428.0000 1.0000
27.8600 1346.0000 1.0000
27.8800 1290.0000 1.0000
27.9000 1169.0000 1.0000
27.9200 1000.0000 1.0000
27.9400 831.0000 1.0000
27.9600 712.0000 1.0000
27.9800 639.0000 1.0000
28.0000 548.0000 1.0000
28.0200 475.0000 1.0000
28.0400 431.0000 1.0000
28.0600 409.0000 1.0000
28.0800 418.0000 1.0000
28.1000 430.0000 1.0000
28.1200 415.0000 1.0000
28.1400 400.0000 1.0000
28.1600 408.0000 1.0000
28.1800 420.0000 1.0000
28.2000 432.0000 1.0000
28.2200 446.0000 1.0000
28.2400 430.0000 1.0000
28.2600 401.0000 1.0000
28.2800 376.0000 1.0000
28.3000 349.0000 1.0000
28.3200 330.0000 1.0000
28.3400 299.0000 1.0000
28.3600 283.0000 1.0000
28.3800 269.0000 1.0000
28.4000 241.0000 1.0000
28.4200 204.0000 1.0000
28.4400 218.0000 1.0000
28.4600 213.0000 1.0000
28.4800 182.0000 1.0000
28.5000 178.0000 1.0000
28.5200 176.0000 1.0000
28.5400 171.0000 1.0000
28.5600 173.0000 1.0000
28.5800 180.0000 1.0000
28.6000 175.0000 1.0000
28.6200 173.0000 1.0000
28.6400 176.0000 1.0000
28.6600 175.0000 1.0000
28.6800 182.0000 1.0000
28.7000 183.0000 1.0000
28.7200 194.0000 1.0000
28.7400 205.0000 1.0000
28.7600 193.0000 1.0000
28.7800 191.0000 1.0000
28.8000 194.0000 1.0000
28.8200 194.0000 1.0000
28.8400 198.0000 1.0000
28.8600 192.0000 1.0000
28.8800 198.0000 1.0000
28.9000 219.0000 1.0000
28.9200 200.0000 1.0000
28.9400 194.0000 1.0000
28.9600 207.0000 1.0000
28.9800 228.0000 1.0000
29.0000 227.0000 1.0000
29.0200 207.0000 1.0000
29.0400 198.0000 1.0000
29.0600 224.0000 1.0000
29.0800 242.0000 1.0000
29.1000 255.0000 1.0000
29.1200 267.0000 1.0000
29.1400 266.0000 1.0000
29.1600 282.0000 1.0000
29.1800 303.0000 1.0000
29.2000 339.0000 1.0000
29.2200 372.0000 1.0000
29.2400 426.0000 1.0000
29.2600 421.0000 1.0000
29.2800 427.0000 1.0000
29.3000 433.0000 1.0000
29.3200 454.0000 1.0000
29.3400 491.0000 1.0000
29.3600 489.0000 1.0000
29.3800 505.0000 1.0000
29.4000 520.0000 1.0000
29.4200 499.0000 1.0000
29.4400 506.0000 1.0000
29.4600 545.0000 1.0000
29.4800 570.0000 1.0000
29.5000 593.0000 1.0000
29.5200 632.0000 1.0000
29.5400 672.0000 1.0000
29.5600 712.0000 1.0000
29.5800 719.0000 1.0000
29.6000 774.0000 1.0000
29.6200 763.0000 1.0000
29.6400 699.0000 1.0000
29.6600 673.0000 1.0000
29.6800 650.0000 1.0000
29.7000 591.0000 1.0000
29.7200 562.0000 1.0000
29.7400 555.0000 1.0000
29.7600 502.0000 1.0000
29.7800 462.0000 1.0000
29.8000 434.0000 1.0000
29.8200 424.0000 1.0000
29.8400 401.0000 1.0000
29.8600 383.0000 1.0000
29.8800 386.0000 1.0000
29.9000 379.0000 1.0000
29.9200 384.0000 1.0000
29.9400 407.0000 1.0000
29.9600 415.0000 1.0000
29.9800 456.0000 1.0000
30.0000 478.0000 1.0000
30.0200 478.0000 1.0000
30.0400 520.0000 1.0000
30.0600 572.0000 1.0000
30.0800 569.0000 1.0000
30.1000 589.0000 1.0000
30.1200 546.0000 1.0000
30.1400 543.0000 1.0000
30.1600 515.0000 1.0000
30.1800 489.0000 1.0000
30.2000 502.0000 1.0000
30.2200 494.0000 1.0000
30.2400 471.0000 1.0000
30.2600 467.0000 1.0000
30.2800 484.0000 1.0000
30.3000 436.0000 1.0000
30.3200 431.0000 1.0000
30.3400 418.0000 1.0000
30.3600 417.0000 1.0000
30.3800 396.0000 1.0000
30.4000 402.0000 1.0000
30.4200 358.0000 1.0000
30.4400 356.0000 1.0000
30.4600 372.0000 1.0000
30.4800 380.0000 1.0000
30.5000 382.0000 1.0000
30.5200 399.0000 1.0000
30.5400 385.0000 1.0000
30.5600 398.0000 1.0000
30.5800 429.0000 1.0000
30.6000 456.0000 1.0000
30.6200 480.0000 1.0000
30.6400 497.0000 1.0000
30.6600 465.0000 1.0000
30.6800 466.0000 1.0000
30.7000 445.0000 1.0000
30.7200 423.0000 1.0000
30.7400 371.0000 1.0000
30.7600 366.0000 1.0000
30.7800 356.0000 1.0000
30.8000 316.0000 1.0000
30.8200 302.0000 1.0000
30.8400 276.0000 1.0000
30.8600 269.0000 1.0000
30.8800 242.0000 1.0000
30.9000 251.0000 1.0000
30.9200 236.0000 1.0000
30.9400 207.0000 1.0000
30.9600 210.0000 1.0000
30.9800 216.0000 1.0000
31.0000 212.0000 1.0000
31.0200 181.0000 1.0000
31.0400 186.0000 1.0000
31.0600 195.0000 1.0000
31.0800 207.0000 1.0000
31.1000 209.0000 1.0000
31.1200 214.0000 1.0000
31.1400 205.0000 1.0000
31.1600 220.0000 1.0000
31.1800 225.0000 1.0000
31.2000 219.0000 1.0000
31.2200 241.0000 1.0000
31.2400 263.0000 1.0000
31.2600 246.0000 1.0000
31.2800 223.0000 1.0000
31.3000 233.0000 1.0000
31.3200 268.0000 1.0000
31.3400 237.0000 1.0000
31.3600 261.0000 1.0000
31.3800 269.0000 1.0000
31.4000 260.0000 1.0000
31.4200 224.0000 1.0000
31.4400 197.0000 1.0000
31.4600 194.0000 1.0000
31.4800 212.0000 1.0000
31.5000 198.0000 1.0000
31.5200 200.0000 1.0000
31.5400 177.0000 1.0000
31.5600 175.0000 1.0000
31.5800 172.0000 1.0000
31.6000 193.0000 1.0000
31.6200 161.0000 1.0000
31.6400 173.0000 1.0000
31.6600 159.0000 1.0000
31.6800 153.0000 1.0000
31.7000 157.0000 1.0000
31.7200 163.0000 1.0000
31.7400 157.0000 1.0000
31.7600 156.0000 1.0000
31.7800 146.0000 1.0000
31.8000 165.0000 1.0000
31.8200 152.0000 1.0000
31.8400 153.0000 1.0000
31.8600 138.0000 1.0000
31.8800 153.0000 1.0000
31.9000 149.0000 1.0000
31.9200 149.0000 1.0000
31.9400 138.0000 1.0000
31.9600 153.0000 1.0000
31.9800 134.0000 1.0000
32.0000 149.0000 1.0000
32.0200 168.0000 1.0000
32.0400 165.0000 1.0000
32.0600 143.0000 1.0000
32.0800 143.0000 1.0000
32.1000 169.0000 1.0000
32.1200 147.0000 1.0000
32.1400 162.0000 1.0000
32.1600 156.0000 1.0000
32.1800 159.0000 1.0000
32.2000 182.0000 1.0000
32.2200 181.0000 1.0000
32.2400 168.0000 1.0000
32.2600 186.0000 1.0000
32.2800 169.0000 1.0000
32.3000 150.0000 1.0000
32.3200 170.0000 1.0000
32.3400 173.0000 1.0000
32.3600 169.0000 1.0000
32.3800 173.0000 1.0000
32.4000 178.0000 1.0000
32.4200 159.0000 1.0000
32.4400 179.0000 1.0000
32.4600 171.0000 1.0000
32.4800 165.0000 1.0000
32.5000 148.0000 1.0000
32.5200 149.0000 1.0000
32.5400 138.0000 1.0000
32.5600 130.0000 1.0000
32.5800 139.0000 1.0000
32.6000 136.0000 1.0000
32.6200 132.0000 1.0000
32.6400 145.0000 1.0000
32.6600 147.0000 1.0000
32.6800 148.0000 1.0000
32.7000 135.0000 1.0000
32.7200 142.0000 1.0000
32.7400 137.0000 1.0000
32.7600 130.0000 1.0000
32.7800 132.0000 1.0000
32.8000 126.0000 1.0000
32.8200 118.0000 1.0000
32.8400 135.0000 1.0000
32.8600 136.0000 1.0000
32.8800 142.0000 1.0000
32.9000 120.0000 1.0000
32.9200 149.0000 1.0000
32.9400 140.0000 1.0000
32.9600 136.0000 1.0000
32.9800 123.0000 1.0000
33.0000 113.0000 1.0000
33.0200 110.0000 1.0000
33.0400 111.0000 1.0000
33.0600 112.0000 1.0000
33.0800 107.0000 1.0000
33.1000 143.0000 1.0000
33.1200 142.0000 1.0000
33.1400 126.0000 1.0000
33.1600 117.0000 1.0000
33.1800 130.0000 1.0000
33.2000 128.0000 1.0000
33.2200 120.0000 1.0000
33.2400 132.0000 1.0000
33.2600 129.0000 1.0000
33.2800 125.0000 1.0000
33.3000 122.0000 1.0000
33.3200 148.0000 1.0000
33.3400 121.0000 1.0000
33.3600 125.0000 1.0000
33.3800 116.0000 1.0000
33.4000 146.0000 1.0000
33.4200 153.0000 1.0000
33.4400 147.0000 1.0000
33.4600 144.0000 1.0000
33.4800 147.0000 1.0000
33.5000 179.0000 1.0000
33.5200 173.0000 1.0000
33.5400 194.0000 1.0000
33.5600 218.0000 1.0000
33.5800 200.0000 1.0000
33.6000 220.0000 1.0000
33.6200 216.0000 1.0000
33.6400 193.0000 1.0000
33.6600 216.0000 1.0000
33.6800 197.0000 1.0000
33.7000 209.0000 1.0000
33.7200 220.0000 1.0000
33.7400 185.0000 1.0000
33.7600 180.0000 1.0000
33.7800 189.0000 1.0000
33.8000 160.0000 1.0000
33.8200 182.0000 1.0000
33.8400 148.0000 1.0000
33.8600 173.0000 1.0000
33.8800 179.0000 1.0000
33.9000 173.0000 1.0000
33.9200 184.0000 1.0000
33.9400 166.0000 1.0000
33.9600 141.0000 1.0000
33.9800 190.0000 1.0000
34.0000 186.0000 1.0000
34.0200 165.0000 1.0000
34.0400 177.0000 1.0000
34.0600 180.0000 1.0000
34.0800 203.0000 1.0000
34.1000 204.0000 1.0000
34.1200 219.0000 1.0000
34.1400 204.0000 1.0000
34.1600 219.0000 1.0000
34.1800 227.0000 1.0000
34.2000 213.0000 1.0000
34.2200 224.0000 1.0000
34.2400 224.0000 1.0000
34.2600 228.0000 1.0000
34.2800 258.0000 1.0000
34.3000 252.0000 1.0000
34.3200 293.0000 1.0000
34.3400 258.0000 1.0000
34.3600 286.0000 1.0000
34.3800 261.0000 1.0000
34.4000 325.0000 1.0000
34.4200 305.0000 1.0000
34.4400 321.0000 1.0000
34.4600 330.0000 1.0000
34.4800 324.0000 1.0000
34.5000 327.0000 1.0000
34.5200 375.0000 1.0000
34.5400 382.0000 1.0000
34.5600 431.0000 1.0000
34.5800 429.0000 1.0000
34.6000 487.0000 1.0000
34.6200 484.0000 1.0000
34.6400 513.0000 1.0000
34.6600 507.0000 1.0000
34.6800 568.0000 1.0000
34.7000 530.0000 1.0000
34.7200 519.0000 1.0000
34.7400 573.0000 1.0000
34.7600 564.0000 1.0000
34.7800 628.0000 1.0000
34.8000 642.0000 1.0000
34.8200 712.0000 1.0000
34.8400 768.0000 1.0000
34.8600 864.0000 1.0000
34.8800 991.0000 1.0000
34.9000 1207.0000 1.0000
34.9200 1394.0000 1.0000
34.9400 1640.0000 1.0000
34.9600 1759.0000 1.0000
34.9800 1749.0000 1.0000
35.0000 1806.0000 1.0000
35.0200 1698.0000 1.0000
35.0400 1482.0000 1.0000
35.0600 1256.0000 1.0000
35.0800 1139.0000 1.0000
35.1000 927.0000 1.0000
35.1200 777.0000 1.0000
35.1400 716.0000 1.0000
35.1600 616.0000 1.0000
35.1800 538.0000 1.0000
35.2000 496.0000 1.0000
35.2200 565.0000 1.0000
35.2400 528.0000 1.0000
35.2600 574.0000 1.0000
35.2800 606.0000 1.0000
35.3000 632.0000 1.0000
35.3200 673.0000 1.0000
35.3400 706.0000 1.0000
35.3600 669.0000 1.0000
35.3800 656.0000 1.0000
35.4000 681.0000 1.0000
35.4200 661.0000 1.0000
35.4400 687.0000 1.0000
35.4600 638.0000 1.0000
35.4800 618.0000 1.0000
35.5000 567.0000 1.0000
35.5200 558.0000 1.0000
35.5400 553.0000 1.0000
35.5600 488.0000 1.0000
35.5800 421.0000 1.0000
35.6000 429.0000 1.0000
35.6200 447.0000 1.0000
35.6400 417.0000 1.0000
35.6600 376.0000 1.0000
35.6800 338.0000 1.0000
35.7000 314.0000 1.0000
35.7200 308.0000 1.0000
35.7400 280.0000 1.0000
35.7600 264.0000 1.0000
35.7800 256.0000 1.0000
35.8000 273.0000 1.0000
35.8200 243.0000 1.0000
35.8400 249.0000 1.0000
35.8600 236.0000 1.0000
35.8800 226.0000 1.0000
35.9000 225.0000 1.0000
35.9200 234.0000 1.0000
35.9400 250.0000 1.0000
35.9600 247.0000 1.0000
35.9800 242.0000 1.0000
36.0000 262.0000 1.0000
36.0200 254.0000 1.0000
36.0400 258.0000 1.0000
36.0600 239.0000 1.0000
36.0800 248.0000 1.0000
36.1000 252.0000 1.0000
36.1200 268.0000 1.0000
36.1400 277.0000 1.0000
36.1600 255.0000 1.0000
36.1800 297.0000 1.0000
36.2000 299.0000 1.0000
36.2200 306.0000 1.0000
36.2400 367.0000 1.0000
36.2600 377.0000 1.0000
36.2800 431.0000 1.0000
36.3000 538.0000 1.0000
36.3200 539.0000 1.0000
36.3400 596.0000 1.0000
36.3600 646.0000 1.0000
36.3800 655.0000 1.0000
36.4000 625.0000 1.0000
36.4200 566.0000 1.0000
36.4400 566.0000 1.0000
36.4600 509.0000 1.0000
36.4800 451.0000 1.0000
36.5000 394.0000 1.0000
36.5200 357.0000 1.0000
36.5400 326.0000 1.0000
36.5600 288.0000 1.0000
36.5800 285.0000 1.0000
36.6000 280.0000 1.0000
36.6200 274.0000 1.0000
36.6400 280.0000 1.0000
36.6600 250.0000 1.0000
36.6800 223.0000 1.0000
36.7000 229.0000 1.0000
36.7200 243.0000 1.0000
36.7400 249.0000 1.0000
36.7600 224.0000 1.0000
36.7800 205.0000 1.0000
36.8000 200.0000 1.0000
36.8200 222.0000 1.0000
36.8400 208.0000 1.0000
36.8600 201.0000 1.0000
36.8800 196.0000 1.0000
36.9000 201.0000 1.0000
36.9200 218.0000 1.0000
36.9400 213.0000 1.0000
36.9600 198.0000 1.0000
36.9800 218.0000 1.0000
37.0000 200.0000 1.0000
37.0200 202.0000 1.0000
37.0400 232.0000 1.0000
37.0600 212.0000 1.0000
37.0800 184.0000 1.0000
37.1000 188.0000 1.0000
37.1200 195.0000 1.0000
37.1400 203.0000 1.0000
37.1600 199.0000 1.0000
37.1800 200.0000 1.0000
37.2000 206.0000 1.0000
37.2200 231.0000 1.0000
37.2400 227.0000 1.0000
37.2600 202.0000 1.0000
37.2800 223.0000 1.0000
37.3000 209.0000 1.0000
37.3200 199.0000 1.0000
37.3400 210.0000 1.0000
37.3600 221.0000 1.0000
37.3800 236.0000 1.0000
37.4000 238.0000 1.0000
37.4200 263.0000 1.0000
37.4400 271.0000 1.0000
37.4600 309.0000 1.0000
37.4800 385.0000 1.0000
37.5000 430.0000 1.0000
37.5200 510.0000 1.0000
37.5400 572.0000 1.0000
37.5600 660.0000 1.0000
37.5800 717.0000 1.0000
37.6000 740.0000 1.0000
37.6200 715.0000 1.0000
37.6400 691.0000 1.0000
37.6600 658.0000 1.0000
37.6800 595.0000 1.0000
37.7000 525.0000 1.0000
37.7200 458.0000 1.0000
37.7400 384.0000 1.0000
37.7600 311.0000 1.0000
37.7800 259.0000 1.0000
37.8000 214.0000 1.0000
37.8200 201.0000 1.0000
37.8400 176.0000 1.0000
37.8600 166.0000 1.0000
37.8800 156.0000 1.0000
37.9000 175.0000 1.0000
37.9200 172.0000 1.0000
37.9400 162.0000 1.0000
37.9600 167.0000 1.0000
37.9800 168.0000 1.0000
38.0000 142.0000 1.0000
38.0200 133.0000 1.0000
38.0400 134.0000 1.0000
38.0600 147.0000 1.0000
38.0800 137.0000 1.0000
38.1000 150.0000 1.0000
38.1200 156.0000 1.0000
38.1400 157.0000 1.0000
38.1600 136.0000 1.0000
38.1800 137.0000 1.0000
38.2000 143.0000 1.0000
38.2200 134.0000 1.0000
38.2400 124.0000 1.0000
38.2600 130.0000 1.0000
38.2800 112.0000 1.0000
38.3000 117.0000 1.0000
38.3200 138.0000 1.0000
38.3400 136.0000 1.0000
38.3600 128.0000 1.0000
38.3800 126.0000 1.0000
38.4000 135.0000 1.0000
38.4200 120.0000 1.0000
38.4400 129.0000 1.0000
38.4600 132.0000 1.0000
38.4800 122.0000 1.0000
38.5000 137.0000 1.0000
38.5200 136.0000 1.0000
38.5400 127.0000 1.0000
38.5600 130.0000 1.0000
38.5800 145.0000 1.0000
38.6000 152.0000 1.0000
38.6200 154.0000 1.0000
38.6400 158.0000 1.0000
38.6600 146.0000 1.0000
38.6800 148.0000 1.0000
38.7000 159.0000 1.0000
38.7200 153.0000 1.0000
38.7400 148.0000 1.0000
38.7600 161.0000 1.0000
38.7800 173.0000 1.0000
38.8000 168.0000 1.0000
38.8200 187.0000 1.0000
38.8400 172.0000 1.0000
38.8600 165.0000 1.0000
38.8800 179.0000 1.0000
38.9000 192.0000 1.0000
38.9200 187.0000 1.0000
38.9400 182.0000 1.0000
38.9600 183.0000 1.0000
38.9800 195.0000 1.0000
39.0000 213.0000 1.0000
39.0200 207.0000 1.0000
39.0400 193.0000 1.0000
39.0600 195.0000 1.0000
39.0800 208.0000 1.0000
39.1000 215.0000 1.0000
39.1200 234.0000 1.0000
39.1400 243.0000 1.0000
39.1600 275.0000 1.0000
39.1800 290.0000 1.0000
39.2000 318.0000 1.0000
39.2200 382.0000 1.0000
39.2400 444.0000 1.0000
39.2600 485.0000 1.0000
39.2800 520.0000 1.0000
39.3000 522.0000 1.0000
39.3200 512.0000 1.0000
39.3400 481.0000 1.0000
39.3600 447.0000 1.0000
39.3800 393.0000 1.0000
39.4000 366.0000 1.0000
39.4200 336.0000 1.0000
39.4400 302.0000 1.0000
39.4600 278.0000 1.0000
39.4800 232.0000 1.0000
39.5000 186.0000 1.0000
39.5200 176.0000 1.0000
39.5400 179.0000 1.0000
39.5600 172.0000 1.0000
39.5800 172.0000 1.0000
39.6000 168.0000 1.0000
39.6200 155.0000 1.0000
39.6400 155.0000 1.0000
39.6600 154.0000 1.0000
39.6800 145.0000 1.0000
39.7000 150.0000 1.0000
39.7200 135.0000 1.0000
39.7400 133.0000 1.0000
39.7600 152.0000 1.0000
39.7800 152.0000 1.0000
39.8000 144.0000 1.0000
39.8200 154.0000 1.0000
39.8400 153.0000 1.0000
39.8600 161.0000 1.0000
39.8800 162.0000 1.0000
39.9000 150.0000 1.0000
39.9200 150.0000 1.0000
39.9400 156.0000 1.0000
39.9600 160.0000 1.0000
39.9800 177.0000 1.0000
40.0000 199.0000 1.0000
40.0200 230.0000 1.0000
40.0400 251.0000 1.0000
40.0600 265.0000 1.0000
40.0800 284.0000 1.0000
40.1000 314.0000 1.0000
40.1200 344.0000 1.0000
40.1400 322.0000 1.0000
40.1600 318.0000 1.0000
40.1800 315.0000 1.0000
40.2000 283.0000 1.0000
40.2200 282.0000 1.0000
40.2400 269.0000 1.0000
40.2600 232.0000 1.0000
40.2800 210.0000 1.0000
40.3000 196.0000 1.0000
40.3200 193.0000 1.0000
40.3400 212.0000 1.0000
40.3600 210.0000 1.0000
40.3800 190.0000 1.0000
40.4000 195.0000 1.0000
40.4200 198.0000 1.0000
40.4400 209.0000 1.0000
40.4600 218.0000 1.0000
40.4800 198.0000 1.0000
40.5000 194.0000 1.0000
40.5200 206.0000 1.0000
40.5400 199.0000 1.0000
40.5600 191.0000 1.0000
40.5800 191.0000 1.0000
40.6000 191.0000 1.0000
40.6200 189.0000 1.0000
40.6400 196.0000 1.0000
40.6600 192.0000 1.0000
40.6800 196.0000 1.0000
40.7000 188.0000 1.0000
40.7200 162.0000 1.0000
40.7400 174.0000 1.0000
40.7600 187.0000 1.0000
40.7800 181.0000 1.0000
40.8000 177.0000 1.0000
40.8200 177.0000 1.0000
40.8400 179.0000 1.0000
40.8600 180.0000 1.0000
40.8800 161.0000 1.0000
40.9000 159.0000 1.0000
40.9200 170.0000 1.0000
40.9400 161.0000 1.0000
40.9600 152.0000 1.0000
40.9800 149.0000 1.0000
41.0000 142.0000 1.0000
41.0200 153.0000 1.0000
41.0400 145.0000 1.0000
41.0600 139.0000 1.0000
41.0800 167.0000 1.0000
41.1000 179.0000 1.0000
41.1200 155.0000 1.0000
41.1400 148.0000 1.0000
41.1600 155.0000 1.0000
41.1800 150.0000 1.0000
41.2000 145.0000 1.0000
41.2200 143.0000 1.0000
41.2400 153.0000 1.0000
41.2600 167.0000 1.0000
41.2800 173.0000 1.0000
41.3000 160.0000 1.0000
41.3200 154.0000 1.0000
41.3400 162.0000 1.0000
41.3600 175.0000 1.0000
41.3800 166.0000 1.0000
41.4000 152.0000 1.0000
41.4200 182.0000 1.0000
41.4400 190.0000 1.0000
41.4600 197.0000 1.0000
41.4800 205.0000 1.0000
41.5000 213.0000 1.0000
41.5200 232.0000 1.0000
41.5400 241.0000 1.0000
41.5600 239.0000 1.0000
41.5800 222.0000 1.0000
41.6000 225.0000 1.0000
41.6200 217.0000 1.0000
41.6400 211.0000 1.0000
41.6600 210.0000 1.0000
41.6800 211.0000 1.0000
41.7000 225.0000 1.0000
41.7200 213.0000 1.0000
41.7400 204.0000 1.0000
41.7600 222.0000 1.0000
41.7800 242.0000 1.0000
41.8000 240.0000 1.0000
41.8200 229.0000 1.0000
41.8400 229.0000 1.0000
41.8600 221.0000 1.0000
41.8800 243.0000 1.0000
41.9000 264.0000 1.0000
41.9200 265.0000 1.0000
41.9400 293.0000 1.0000
41.9600 308.0000 1.0000
41.9800 312.0000 1.0000
42.0000 331.0000 1.0000
42.0200 339.0000 1.0000
42.0400 374.0000 1.0000
42.0600 362.0000 1.0000
42.0800 376.0000 1.0000
42.1000 374.0000 1.0000
42.1200 358.0000 1.0000
42.1400 388.0000 1.0000
42.1600 404.0000 1.0000
42.1800 440.0000 1.0000
42.2000 467.0000 1.0000
42.2200 474.0000 1.0000
42.2400 516.0000 1.0000
42.2600 581.0000 1.0000
42.2800 571.0000 1.0000
42.3000 525.0000 1.0000
42.3200 498.0000 1.0000
42.3400 487.0000 1.0000
42.3600 470.0000 1.0000
42.3800 445.0000 1.0000
42.4000 416.0000 1.0000
42.4200 362.0000 1.0000
42.4400 321.0000 1.0000
42.4600 299.0000 1.0000
42.4800 301.0000 1.0000
42.5000 277.0000 1.0000
42.5200 255.0000 1.0000
42.5400 219.0000 1.0000
42.5600 232.0000 1.0000
42.5800 240.0000 1.0000
42.6000 240.0000 1.0000
42.6200 250.0000 1.0000
42.6400 234.0000 1.0000
42.6600 243.0000 1.0000
42.6800 262.0000 1.0000
42.7000 254.0000 1.0000
42.7200 263.0000 1.0000
42.7400 256.0000 1.0000
42.7600 242.0000 1.0000
42.7800 232.0000 1.0000
42.8000 239.0000 1.0000
42.8200 246.0000 1.0000
42.8400 255.0000 1.0000
42.8600 260.0000 1.0000
42.8800 275.0000 1.0000
42.9000 276.0000 1.0000
42.9200 281.0000 1.0000
42.9400 281.0000 1.0000
42.9600 292.0000 1.0000
42.9800 304.0000 1.0000
43.0000 357.0000 1.0000
43.0200 414.0000 1.0000
43.0400 470.0000 1.0000
43.0600 572.0000 1.0000
43.0800 708.0000 1.0000
43.1000 869.0000 1.0000
43.1200 1114.0000 1.0000
43.1400 1296.0000 1.0000
43.1600 1451.0000 1.0000
43.1800 1524.0000 1.0000
43.2000 1546.0000 1.0000
43.2200 1464.0000 1.0000
43.2400 1316.0000 1.0000
43.2600 1184.0000 1.0000
43.2800 1065.0000 1.0000
43.3000 955.0000 1.0000
43.3200 788.0000 1.0000
43.3400 676.0000 1.0000
43.3600 569.0000 1.0000
43.3800 413.0000 1.0000
43.4000 313.0000 1.0000
43.4200 265.0000 1.0000
43.4400 240.0000 1.0000
43.4600 218.0000 1.0000
43.4800 188.0000 1.0000
43.5000 186.0000 1.0000
43.5200 170.0000 1.0000
43.5400 164.0000 1.0000
43.5600 186.0000 1.0000
43.5800 168.0000 1.0000
43.6000 133.0000 1.0000
43.6200 163.0000 1.0000
43.6400 175.0000 1.0000
43.6600 143.0000 1.0000
43.6800 147.0000 1.0000
43.7000 145.0000 1.0000
43.7200 146.0000 1.0000
43.7400 144.0000 1.0000
43.7600 151.0000 1.0000
43.7800 147.0000 1.0000
43.8000 149.0000 1.0000
43.8200 148.0000 1.0000
43.8400 134.0000 1.0000
43.8600 145.0000 1.0000
43.8800 147.0000 1.0000
43.9000 144.0000 1.0000
43.9200 142.0000 1.0000
43.9400 149.0000 1.0000
43.9600 165.0000 1.0000
43.9800 176.0000 1.0000
44.0000 153.0000 1.0000
44.0200 163.0000 1.0000
44.0400 171.0000 1.0000
44.0600 155.0000 1.0000
44.0800 179.0000 1.0000
44.1000 164.0000 1.0000
44.1200 168.0000 1.0000
44.1400 160.0000 1.0000
44.1600 160.0000 1.0000
44.1800 180.0000 1.0000
44.2000 171.0000 1.0000
44.2200 166.0000 1.0000
44.2400 169.0000 1.0000
44.2600 161.0000 1.0000
44.2800 163.0000 1.0000
44.3000 152.0000 1.0000
44.3200 143.0000 1.0000
44.3400 154.0000 1.0000
44.3600 173.0000 1.0000
44.3800 147.0000 1.0000
44.4000 163.0000 1.0000
44.4200 169.0000 1.0000
44.4400 161.0000 1.0000
44.4600 143.0000 1.0000
44.4800 148.0000 1.0000
44.5000 161.0000 1.0000
44.5200 179.0000 1.0000
44.5400 161.0000 1.0000
44.5600 166.0000 1.0000
44.5800 152.0000 1.0000
44.6000 189.0000 1.0000
44.6200 181.0000 1.0000
44.6400 179.0000 1.0000
44.6600 169.0000 1.0000
44.6800 180.0000 1.0000
44.7000 205.0000 1.0000
44.7200 204.0000 1.0000
44.7400 189.0000 1.0000
44.7600 184.0000 1.0000
44.7800 187.0000 1.0000
44.8000 181.0000 1.0000
44.8200 213.0000 1.0000
44.8400 193.0000 1.0000
44.8600 192.0000 1.0000
44.8800 172.0000 1.0000
44.9000 217.0000 1.0000
44.9200 195.0000 1.0000
44.9400 211.0000 1.0000
44.9600 210.0000 1.0000
44.9800 191.0000 1.0000
45.0000 193.0000 1.0000
45.0200 218.0000 1.0000
45.0400 180.0000 1.0000
45.0600 200.0000 1.0000
45.0800 187.0000 1.0000
45.1000 178.0000 1.0000
45.1200 183.0000 1.0000
45.1400 215.0000 1.0000
45.1600 190.0000 1.0000
45.1800 180.0000 1.0000
45.2000 168.0000 1.0000
45.2200 187.0000 1.0000
45.2400 193.0000 1.0000
45.2600 197.0000 1.0000
45.2800 181.0000 1.0000
45.3000 168.0000 1.0000
45.3200 178.0000 1.0000
45.3400 159.0000 1.0000
45.3600 157.0000 1.0000
45.3800 170.0000 1.0000
45.4000 191.0000 1.0000
45.4200 179.0000 1.0000
45.4400 198.0000 1.0000
45.4600 202.0000 1.0000
45.4800 188.0000 1.0000
45.5000 201.0000 1.0000
45.5200 212.0000 1.0000
45.5400 228.0000 1.0000
45.5600 278.0000 1.0000
45.5800 307.0000 1.0000
45.6000 303.0000 1.0000
45.6200 333.0000 1.0000
45.6400 341.0000 1.0000
45.6600 287.0000 1.0000
45.6800 299.0000 1.0000
45.7000 277.0000 1.0000
45.7200 267.0000 1.0000
45.7400 268.0000 1.0000
45.7600 240.0000 1.0000
45.7800 253.0000 1.0000
45.8000 193.0000 1.0000
45.8200 201.0000 1.0000
45.8400 203.0000 1.0000
45.8600 156.0000 1.0000
45.8800 162.0000 1.0000
45.9000 149.0000 1.0000
45.9200 170.0000 1.0000
45.9400 168.0000 1.0000
45.9600 160.0000 1.0000
45.9800 166.0000 1.0000
46.0000 156.0000 1.0000
46.0200 151.0000 1.0000
46.0400 168.0000 1.0000
46.0600 153.0000 1.0000
46.0800 154.0000 1.0000
46.1000 157.0000 1.0000
46.1200 154.0000 1.0000
46.1400 146.0000 1.0000
46.1600 118.0000 1.0000
46.1800 125.0000 1.0000
46.2000 129.0000 1.0000
46.2200 132.0000 1.0000
46.2400 128.0000 1.0000
46.2600 134.0000 1.0000
46.2800 128.0000 1.0000
46.3000 114.0000 1.0000
46.3200 110.0000 1.0000
46.3400 121.0000 1.0000
46.3600 136.0000 1.0000
46.3800 123.0000 1.0000
46.4000 127.0000 1.0000
46.4200 125.0000 1.0000
46.4400 113.0000 1.0000
46.4600 117.0000 1.0000
46.4800 108.0000 1.0000
46.5000 127.0000 1.0000
46.5200 111.0000 1.0000
46.5400 139.0000 1.0000
46.5600 137.0000 1.0000
46.5800 136.0000 1.0000
46.6000 136.0000 1.0000
46.6200 127.0000 1.0000
46.6400 119.0000 1.0000
46.6600 131.0000 1.0000
46.6800 135.0000 1.0000
46.7000 106.0000 1.0000
46.7200 128.0000 1.0000
46.7400 137.0000 1.0000
46.7600 147.0000 1.0000
46.7800 137.0000 1.0000
46.8000 149.0000 1.0000
46.8200 141.0000 1.0000
46.8400 143.0000 1.0000
46.8600 146.0000 1.0000
46.8800 133.0000 1.0000
46.9000 146.0000 1.0000
46.9200 146.0000 1.0000
46.9400 141.0000 1.0000
46.9600 140.0000 1.0000
46.9800 146.0000 1.0000
47.0000 156.0000 1.0000
47.0200 151.0000 1.0000
47.0400 144.0000 1.0000
47.0600 149.0000 1.0000
47.0800 151.0000 1.0000
47.1000 154.0000 1.0000
47.1200 134.0000 1.0000
47.1400 119.0000 1.0000
47.1600 128.0000 1.0000
47.1800 132.0000 1.0000
47.2000 135.0000 1.0000
47.2200 112.0000 1.0000
47.2400 114.0000 1.0000
47.2600 131.0000 1.0000
47.2800 130.0000 1.0000
47.3000 119.0000 1.0000
47.3200 107.0000 1.0000
47.3400 98.0000 1.0000
47.3600 111.0000 1.0000
47.3800 107.0000 1.0000
47.4000 110.0000 1.0000
47.4200 116.0000 1.0000
47.4400 101.0000 1.0000
47.4600 107.0000 1.0000
47.4800 114.0000 1.0000
47.5000 121.0000 1.0000
47.5200 119.0000 1.0000
47.5400 119.0000 1.0000
47.5600 112.0000 1.0000
47.5800 109.0000 1.0000
47.6000 112.0000 1.0000
47.6200 107.0000 1.0000
47.6400 96.0000 1.0000
47.6600 105.0000 1.0000
47.6800 111.0000 1.0000
47.7000 107.0000 1.0000
47.7200 106.0000 1.0000
47.7400 110.0000 1.0000
47.7600 115.0000 1.0000
47.7800 119.0000 1.0000
47.8000 115.0000 1.0000
47.8200 106.0000 1.0000
47.8400 112.0000 1.0000
47.8600 113.0000 1.0000
47.8800 109.0000 1.0000
47.9000 114.0000 1.0000
47.9200 120.0000 1.0000
47.9400 125.0000 1.0000
47.9600 125.0000 1.0000
47.9800 124.0000 1.0000
48.0000 117.0000 1.0000
48.0200 125.0000 1.0000
48.0400 142.0000 1.0000
48.0600 137.0000 1.0000
48.0800 139.0000 1.0000
48.1000 151.0000 1.0000
48.1200 160.0000 1.0000
48.1400 158.0000 1.0000
48.1600 160.0000 1.0000
48.1800 162.0000 1.0000
48.2000 148.0000 1.0000
48.2200 150.0000 1.0000
48.2400 167.0000 1.0000
48.2600 154.0000 1.0000
48.2800 147.0000 1.0000
48.3000 150.0000 1.0000
48.3200 144.0000 1.0000
48.3400 150.0000 1.0000
48.3600 137.0000 1.0000
48.3800 133.0000 1.0000
48.4000 147.0000 1.0000
48.4200 149.0000 1.0000
48.4400 150.0000 1.0000
48.4600 152.0000 1.0000
48.4800 141.0000 1.0000
48.5000 131.0000 1.0000
48.5200 129.0000 1.0000
48.5400 119.0000 1.0000
48.5600 131.0000 1.0000
48.5800 138.0000 1.0000
48.6000 135.0000 1.0000
48.6200 148.0000 1.0000
48.6400 152.0000 1.0000
48.6600 145.0000 1.0000
48.6800 139.0000 1.0000
48.7000 140.0000 1.0000
48.7200 133.0000 1.0000
48.7400 135.0000 1.0000
48.7600 140.0000 1.0000
48.7800 131.0000 1.0000
48.8000 125.0000 1.0000
48.8200 126.0000 1.0000
48.8400 128.0000 1.0000
48.8600 136.0000 1.0000
48.8800 139.0000 1.0000
48.9000 136.0000 1.0000
48.9200 143.0000 1.0000
48.9400 157.0000 1.0000
48.9600 164.0000 1.0000
48.9800 162.0000 1.0000
49.0000 167.0000 1.0000
49.0200 185.0000 1.0000
49.0400 201.0000 1.0000
49.0600 200.0000 1.0000
49.0800 190.0000 1.0000
49.1000 178.0000 1.0000
49.1200 183.0000 1.0000
49.1400 188.0000 1.0000
49.1600 191.0000 1.0000
49.1800 192.0000 1.0000
49.2000 173.0000 1.0000
49.2200 149.0000 1.0000
49.2400 163.0000 1.0000
49.2600 171.0000 1.0000
49.2800 160.0000 1.0000
49.3000 164.0000 1.0000
49.3200 167.0000 1.0000
49.3400 168.0000 1.0000
49.3600 167.0000 1.0000
49.3800 167.0000 1.0000
49.4000 177.0000 1.0000
49.4200 188.0000 1.0000
49.4400 209.0000 1.0000
49.4600 211.0000 1.0000
49.4800 209.0000 1.0000
49.5000 219.0000 1.0000
49.5200 222.0000 1.0000
49.5400 246.0000 1.0000
49.5600 254.0000 1.0000
49.5800 255.0000 1.0000
49.6000 246.0000 1.0000
49.6200 244.0000 1.0000
49.6400 235.0000 1.0000
49.6600 223.0000 1.0000
49.6800 248.0000 1.0000
49.7000 264.0000 1.0000
49.7200 259.0000 1.0000
49.7400 275.0000 1.0000
49.7600 278.0000 1.0000
49.7800 276.0000 1.0000
49.8000 289.0000 1.0000
49.8200 307.0000 1.0000
49.8400 359.0000 1.0000
49.8600 423.0000 1.0000
49.8800 478.0000 1.0000
49.9000 538.0000 1.0000
49.9200 657.0000 1.0000
49.9400 721.0000 1.0000
49.9600 737.0000 1.0000
49.9800 798.0000 1.0000
50.0000 765.0000 1.0000
50.0200 697.0000 1.0000
50.0400 651.0000 1.0000
50.0600 598.0000 1.0000
50.0800 548.0000 1.0000
50.1000 511.0000 1.0000
50.1200 456.0000 1.0000
50.1400 405.0000 1.0000
50.1600 382.0000 1.0000
50.1800 338.0000 1.0000
50.2000 251.0000 1.0000
50.2200 213.0000 1.0000
50.2400 191.0000 1.0000
50.2600 178.0000 1.0000
50.2800 176.0000 1.0000
50.3000 168.0000 1.0000
50.3200 164.0000 1.0000
50.3400 176.0000 1.0000
50.3600 168.0000 1.0000
50.3800 157.0000 1.0000
50.4000 162.0000 1.0000
50.4200 178.0000 1.0000
50.4400 177.0000 1.0000
50.4600 196.0000 1.0000
50.4800 210.0000 1.0000
50.5000 181.0000 1.0000
50.5200 203.0000 1.0000
50.5400 198.0000 1.0000
50.5600 216.0000 1.0000
50.5800 228.0000 1.0000
50.6000 232.0000 1.0000
50.6200 239.0000 1.0000
50.6400 235.0000 1.0000
50.6600 226.0000 1.0000
50.6800 205.0000 1.0000
50.7000 205.0000 1.0000
50.7200 194.0000 1.0000
50.7400 187.0000 1.0000
50.7600 187.0000 1.0000
50.7800 164.0000 1.0000
50.8000 158.0000 1.0000
50.8200 148.0000 1.0000
50.8400 144.0000 1.0000
50.8600 149.0000 1.0000
50.8800 149.0000 1.0000
50.9000 146.0000 1.0000
50.9200 152.0000 1.0000
50.9400 141.0000 1.0000
50.9600 150.0000 1.0000
50.9800 146.0000 1.0000
51.0000 129.0000 1.0000
51.0200 165.0000 1.0000
51.0400 168.0000 1.0000
51.0600 154.0000 1.0000
51.0800 177.0000 1.0000
51.1000 163.0000 1.0000
51.1200 155.0000 1.0000
51.1400 156.0000 1.0000
51.1600 178.0000 1.0000
51.1800 186.0000 1.0000
51.2000 180.0000 1.0000
51.2200 184.0000 1.0000
51.2400 192.0000 1.0000
51.2600 188.0000 1.0000
51.2800 218.0000 1.0000
51.3000 216.0000 1.0000
51.3200 215.0000 1.0000
51.3400 243.0000 1.0000
51.3600 217.0000 1.0000
51.3800 218.0000 1.0000
51.4000 207.0000 1.0000
51.4200 207.0000 1.0000
51.4400 194.0000 1.0000
51.4600 219.0000 1.0000
51.4800 191.0000 1.0000
51.5000 187.0000 1.0000
51.5200 184.0000 1.0000
51.5400 188.0000 1.0000
51.5600 164.0000 1.0000
51.5800 147.0000 1.0000
51.6000 154.0000 1.0000
51.6200 146.0000 1.0000
51.6400 144.0000 1.0000
51.6600 140.0000 1.0000
51.6800 151.0000 1.0000
51.7000 140.0000 1.0000
51.7200 144.0000 1.0000
51.7400 165.0000 1.0000
51.7600 170.0000 1.0000
51.7800 154.0000 1.0000
51.8000 182.0000 1.0000
51.8200 164.0000 1.0000
51.8400 158.0000 1.0000
51.8600 186.0000 1.0000
51.8800 150.0000 1.0000
51.9000 167.0000 1.0000
51.9200 176.0000 1.0000
51.9400 178.0000 1.0000
51.9600 166.0000 1.0000
51.9800 174.0000 1.0000
52.0000 179.0000 1.0000
52.0200 165.0000 1.0000
52.0400 181.0000 1.0000
52.0600 192.0000 1.0000
52.0800 163.0000 1.0000
52.1000 202.0000 1.0000
52.1200 195.0000 1.0000
52.1400 181.0000 1.0000
52.1600 199.0000 1.0000
52.1800 233.0000 1.0000
52.2000 219.0000 1.0000
52.2200 229.0000 1.0000
52.2400 255.0000 1.0000
52.2600 286.0000 1.0000
52.2800 349.0000 1.0000
52.3000 379.0000 1.0000
52.3200 481.0000 1.0000
52.3400 555.0000 1.0000
52.3600 641.0000 1.0000
52.3800 697.0000 1.0000
52.4000 669.0000 1.0000
52.4200 691.0000 1.0000
52.4400 630.0000 1.0000
52.4600 594.0000 1.0000
52.4800 599.0000 1.0000
52.5000 507.0000 1.0000
52.5200 514.0000 1.0000
52.5400 502.0000 1.0000
52.5600 409.0000 1.0000
52.5800 396.0000 1.0000
52.6000 327.0000 1.0000
52.6200 302.0000 1.0000
52.6400 212.0000 1.0000
52.6600 217.0000 1.0000
52.6800 177.0000 1.0000
52.7000 177.0000 1.0000
52.7200 192.0000 1.0000
52.7400 172.0000 1.0000
52.7600 158.0000 1.0000
52.7800 155.0000 1.0000
52.8000 168.0000 1.0000
52.8200 147.0000 1.0000
52.8400 152.0000 1.0000
52.8600 163.0000 1.0000
52.8800 141.0000 1.0000
52.9000 166.0000 1.0000
52.9200 151.0000 1.0000
52.9400 147.0000 1.0000
52.9600 169.0000 1.0000
52.9800 170.0000 1.0000
53.0000 174.0000 1.0000
53.0200 165.0000 1.0000
53.0400 179.0000 1.0000
53.0600 168.0000 1.0000
53.0800 179.0000 1.0000
53.1000 176.0000 1.0000
53.1200 172.0000 1.0000
53.1400 191.0000 1.0000
53.1600 159.0000 1.0000
53.1800 156.0000 1.0000
53.2000 171.0000 1.0000
53.2200 188.0000 1.0000
53.2400 176.0000 1.0000
53.2600 159.0000 1.0000
53.2800 146.0000 1.0000
53.3000 158.0000 1.0000
53.3200 142.0000 1.0000
53.3400 143.0000 1.0000
53.3600 144.0000 1.0000
53.3800 153.0000 1.0000
53.4000 148.0000 1.0000
53.4200 144.0000 1.0000
53.4400 139.0000 1.0000
53.4600 147.0000 1.0000
53.4800 126.0000 1.0000
53.5000 144.0000 1.0000
53.5200 149.0000 1.0000
53.5400 130.0000 1.0000
53.5600 128.0000 1.0000
53.5800 131.0000 1.0000
53.6000 120.0000 1.0000
53.6200 119.0000 1.0000
53.6400 129.0000 1.0000
53.6600 140.0000 1.0000
53.6800 132.0000 1.0000
53.7000 138.0000 1.0000
53.7200 134.0000 1.0000
53.7400 113.0000 1.0000
53.7600 113.0000 1.0000
53.7800 144.0000 1.0000
53.8000 133.0000 1.0000
53.8200 129.0000 1.0000
53.8400 120.0000 1.0000
53.8600 141.0000 1.0000
53.8800 136.0000 1.0000
53.9000 129.0000 1.0000
53.9200 126.0000 1.0000
53.9400 129.0000 1.0000
53.9600 133.0000 1.0000
53.9800 130.0000 1.0000
54.0000 132.0000 1.0000
54.0200 137.0000 1.0000
54.0400 140.0000 1.0000
54.0600 133.0000 1.0000
54.0800 140.0000 1.0000
54.1000 148.0000 1.0000
54.1200 133.0000 1.0000
54.1400 150.0000 1.0000
54.1600 144.0000 1.0000
54.1800 141.0000 1.0000
54.2000 143.0000 1.0000
54.2200 139.0000 1.0000
54.2400 148.0000 1.0000
54.2600 134.0000 1.0000
54.2800 134.0000 1.0000
54.3000 139.0000 1.0000
54.3200 157.0000 1.0000
54.3400 162.0000 1.0000
54.3600 147.0000 1.0000
54.3800 142.0000 1.0000
54.4000 144.0000 1.0000
54.4200 147.0000 1.0000
54.4400 143.0000 1.0000
54.4600 141.0000 1.0000
54.4800 158.0000 1.0000
54.5000 151.0000 1.0000
54.5200 157.0000 1.0000
54.5400 166.0000 1.0000
54.5600 166.0000 1.0000
54.5800 177.0000 1.0000
54.6000 196.0000 1.0000
54.6200 252.0000 1.0000
54.6400 268.0000 1.0000
54.6600 275.0000 1.0000
54.6800 306.0000 1.0000
54.7000 346.0000 1.0000
54.7200 342.0000 1.0000
54.7400 354.0000 1.0000
54.7600 332.0000 1.0000
54.7800 297.0000 1.0000
54.8000 287.0000 1.0000
54.8200 265.0000 1.0000
54.8400 247.0000 1.0000
54.8600 253.0000 1.0000
54.8800 237.0000 1.0000
54.9000 213.0000 1.0000
54.9200 213.0000 1.0000
54.9400 194.0000 1.0000
54.9600 173.0000 1.0000
54.9800 171.0000 1.0000
55.0000 175.0000 1.0000
55.0200 160.0000 1.0000
55.0400 171.0000 1.0000
55.0600 179.0000 1.0000
55.0800 182.0000 1.0000
55.1000 207.0000 1.0000
55.1200 223.0000 1.0000
55.1400 223.0000 1.0000
55.1600 230.0000 1.0000
55.1800 220.0000 1.0000
55.2000 218.0000 1.0000
55.2200 222.0000 1.0000
55.2400 200.0000 1.0000
55.2600 183.0000 1.0000
55.2800 181.0000 1.0000
55.3000 191.0000 1.0000
55.3200 185.0000 1.0000
55.3400 182.0000 1.0000
55.3600 179.0000 1.0000
55.3800 176.0000 1.0000
55.4000 166.0000 1.0000
55.4200 162.0000 1.0000
55.4400 157.0000 1.0000
55.4600 153.0000 1.0000
55.4800 144.0000 1.0000
55.5000 141.0000 1.0000
55.5200 137.0000 1.0000
55.5400 135.0000 1.0000
55.5600 138.0000 1.0000
55.5800 140.0000 1.0000
55.6000 145.0000 1.0000
55.6200 151.0000 1.0000
55.6400 151.0000 1.0000
55.6600 133.0000 1.0000
55.6800 135.0000 1.0000
55.7000 145.0000 1.0000
55.7200 137.0000 1.0000
55.7400 125.0000 1.0000
55.7600 135.0000 1.0000
55.7800 141.0000 1.0000
55.8000 140.0000 1.0000
55.8200 149.0000 1.0000
55.8400 147.0000 1.0000
55.8600 143.0000 1.0000
55.8800 140.0000 1.0000
55.9000 134.0000 1.0000
55.9200 132.0000 1.0000
55.9400 143.0000 1.0000
55.9600 148.0000 1.0000
55.9800 150.0000 1.0000
56.0000 148.0000 1.0000
56.0200 139.0000 1.0000
56.0400 151.0000 1.0000
56.0600 162.0000 1.0000
56.0800 173.0000 1.0000
56.1000 174.0000 1.0000
56.1200 178.0000 1.0000
56.1400 186.0000 1.0000
56.1600 179.0000 1.0000
56.1800 185.0000 1.0000
56.2000 191.0000 1.0000
56.2200 190.0000 1.0000
56.2400 203.0000 1.0000
56.2600 226.0000 1.0000
56.2800 220.0000 1.0000
56.3000 216.0000 1.0000
56.3200 246.0000 1.0000
56.3400 264.0000 1.0000
56.3600 269.0000 1.0000
56.3800 251.0000 1.0000
56.4000 251.0000 1.0000
56.4200 274.0000 1.0000
56.4400 263.0000 1.0000
56.4600 251.0000 1.0000
56.4800 244.0000 1.0000
56.5000 235.0000 1.0000
56.5200 234.0000 1.0000
56.5400 239.0000 1.0000
56.5600 236.0000 1.0000
56.5800 232.0000 1.0000
56.6000 241.0000 1.0000
56.6200 230.0000 1.0000
56.6400 214.0000 1.0000
56.6600 206.0000 1.0000
56.6800 208.0000 1.0000
56.7000 206.0000 1.0000
56.7200 192.0000 1.0000
56.7400 193.0000 1.0000
56.7600 197.0000 1.0000
56.7800 193.0000 1.0000
56.8000 178.0000 1.0000
56.8200 175.0000 1.0000
56.8400 179.0000 1.0000
56.8600 187.0000 1.0000
56.8800 192.0000 1.0000
56.9000 189.0000 1.0000
56.9200 192.0000 1.0000
56.9400 198.0000 1.0000
56.9600 195.0000 1.0000
56.9800 193.0000 1.0000
57.0000 186.0000 1.0000
57.0200 189.0000 1.0000
57.0400 213.0000 1.0000
57.0600 210.0000 1.0000
57.0800 223.0000 1.0000
57.1000 232.0000 1.0000
57.1200 246.0000 1.0000
57.1400 284.0000 1.0000
57.1600 307.0000 1.0000
57.1800 303.0000 1.0000
57.2000 367.0000 1.0000
57.2200 449.0000 1.0000
57.2400 533.0000 1.0000
57.2600 643.0000 1.0000
57.2800 787.0000 1.0000
57.3000 1001.0000 1.0000
57.3200 1154.0000 1.0000
57.3400 1257.0000 1.0000
57.3600 1259.0000 1.0000
57.3800 1175.0000 1.0000
57.4000 1047.0000 1.0000
57.4200 959.0000 1.0000
57.4400 905.0000 1.0000
57.4600 842.0000 1.0000
57.4800 815.0000 1.0000
57.5000 778.0000 1.0000
57.5200 703.0000 1.0000
57.5400 623.0000 1.0000
57.5600 579.0000 1.0000
57.5800 463.0000 1.0000
57.6000 360.0000 1.0000
57.6200 283.0000 1.0000
57.6400 235.0000 1.0000
57.6600 215.0000 1.0000
57.6800 200.0000 1.0000
57.7000 221.0000 1.0000
57.7200 172.0000 1.0000
57.7400 165.0000 1.0000
57.7600 169.0000 1.0000
57.7800 153.0000 1.0000
57.8000 160.0000 1.0000
57.8200 147.0000 1.0000
57.8400 142.0000 1.0000
57.8600 145.0000 1.0000
57.8800 134.0000 1.0000
57.9000 145.0000 1.0000
57.9200 141.0000 1.0000
57.9400 126.0000 1.0000
57.9600 136.0000 1.0000
57.9800 126.0000 1.0000
58.0000 118.0000 1.0000
58.0200 123.0000 1.0000
58.0400 131.0000 1.0000
58.0600 126.0000 1.0000
58.0800 117.0000 1.0000
58.1000 131.0000 1.0000
58.1200 118.0000 1.0000
58.1400 133.0000 1.0000
58.1600 117.0000 1.0000
58.1800 132.0000 1.0000
58.2000 126.0000 1.0000
58.2200 108.0000 1.0000
58.2400 133.0000 1.0000
58.2600 128.0000 1.0000
58.2800 118.0000 1.0000
58.3000 114.0000 1.0000
58.3200 118.0000 1.0000
58.3400 105.0000 1.0000
58.3600 134.0000 1.0000
58.3800 136.0000 1.0000
58.4000 115.0000 1.0000
58.4200 120.0000 1.0000
58.4400 122.0000 1.0000
58.4600 120.0000 1.0000
58.4800 123.0000 1.0000
58.5000 148.0000 1.0000
58.5200 130.0000 1.0000
58.5400 128.0000 1.0000
58.5600 132.0000 1.0000
58.5800 129.0000 1.0000
58.6000 135.0000 1.0000
58.6200 147.0000 1.0000
58.6400 136.0000 1.0000
58.6600 146.0000 1.0000
58.6800 132.0000 1.0000
58.7000 144.0000 1.0000
58.7200 115.0000 1.0000
58.7400 120.0000 1.0000
58.7600 133.0000 1.0000
58.7800 140.0000 1.0000
58.8000 140.0000 1.0000
58.8200 157.0000 1.0000
58.8400 149.0000 1.0000
58.8600 131.0000 1.0000
58.8800 128.0000 1.0000
58.9000 150.0000 1.0000
58.9200 150.0000 1.0000
58.9400 139.0000 1.0000
58.9600 142.0000 1.0000
58.9800 128.0000 1.0000
59.0000 130.0000 1.0000
59.0200 133.0000 1.0000
59.0400 128.0000 1.0000
59.0600 133.0000 1.0000
59.0800 137.0000 1.0000
59.1000 127.0000 1.0000
59.1200 147.0000 1.0000
59.1400 149.0000 1.0000
59.1600 158.0000 1.0000
59.1800 138.0000 1.0000
59.2000 131.0000 1.0000
59.2200 131.0000 1.0000
59.2400 138.0000 1.0000
59.2600 143.0000 1.0000
59.2800 150.0000 1.0000
59.3000 127.0000 1.0000
59.3200 123.0000 1.0000
59.3400 176.0000 1.0000
59.3600 157.0000 1.0000
59.3800 139.0000 1.0000
59.4000 150.0000 1.0000
59.4200 166.0000 1.0000
59.4400 163.0000 1.0000
59.4600 164.0000 1.0000
59.4800 171.0000 1.0000
59.5000 203.0000 1.0000
59.5200 180.0000 1.0000
59.5400 209.0000 1.0000
59.5600 198.0000 1.0000
59.5800 195.0000 1.0000
59.6000 213.0000 1.0000
59.6200 213.0000 1.0000
59.6400 243.0000 1.0000
59.6600 282.0000 1.0000
59.6800 297.0000 1.0000
59.7000 326.0000 1.0000
59.7200 392.0000 1.0000
59.7400 490.0000 1.0000
59.7600 482.0000 1.0000
59.7800 528.0000 1.0000
59.8000 590.0000 1.0000
59.8200 629.0000 1.0000
59.8400 540.0000 1.0000
59.8600 499.0000 1.0000
59.8800 479.0000 1.0000
59.9000 455.0000 1.0000
59.9200 434.0000 1.0000
59.9400 420.0000 1.0000
59.9600 430.0000 1.0000
59.9800 374.0000 1.0000
60.0000 339.0000 1.0000
60.0200 298.0000 1.0000
60.0400 282.0000 1.0000
60.0600 262.0000 1.0000
60.0800 241.0000 1.0000
60.1000 201.0000 1.0000
60.1200 188.0000 1.0000
60.1400 204.0000 1.0000
60.1600 207.0000 1.0000
60.1800 207.0000 1.0000
60.2000 191.0000 1.0000
60.2200 196.0000 1.0000
60.2400 195.0000 1.0000
60.2600 186.0000 1.0000
60.2800 186.0000 1.0000
60.3000 196.0000 1.0000
60.3200 219.0000 1.0000
60.3400 165.0000 1.0000
60.3600 168.0000 1.0000
60.3800 180.0000 1.0000
60.4000 184.0000 1.0000
60.4200 186.0000 1.0000
60.4400 169.0000 1.0000
60.4600 167.0000 1.0000
60.4800 167.0000 1.0000
60.5000 177.0000 1.0000
60.5200 182.0000 1.0000
60.5400 156.0000 1.0000
60.5600 165.0000 1.0000
60.5800 181.0000 1.0000
60.6000 184.0000 1.0000
60.6200 173.0000 1.0000
60.6400 165.0000 1.0000
60.6600 178.0000 1.0000
60.6800 195.0000 1.0000
60.7000 167.0000 1.0000
60.7200 148.0000 1.0000
60.7400 176.0000 1.0000
60.7600 168.0000 1.0000
60.7800 182.0000 1.0000
60.8000 164.0000 1.0000
60.8200 159.0000 1.0000
60.8400 186.0000 1.0000
60.8600 174.0000 1.0000
60.8800 182.0000 1.0000
60.9000 177.0000 1.0000
60.9200 182.0000 1.0000
60.9400 190.0000 1.0000
60.9600 204.0000 1.0000
60.9800 220.0000 1.0000
61.0000 246.0000 1.0000
61.0200 210.0000 1.0000
61.0400 199.0000 1.0000
61.0600 232.0000 1.0000
61.0800 232.0000 1.0000
61.1000 209.0000 1.0000
61.1200 229.0000 1.0000
61.1400 249.0000 1.0000
61.1600 271.0000 1.0000
61.1800 287.0000 1.0000
61.2000 267.0000 1.0000
61.2200 246.0000 1.0000
61.2400 245.0000 1.0000
61.2600 215.0000 1.0000
61.2800 217.0000 1.0000
61.3000 246.0000 1.0000
61.3200 212.0000 1.0000
61.3400 242.0000 1.0000
61.3600 223.0000 1.0000
61.3800 218.0000 1.0000
61.4000 213.0000 1.0000
61.4200 227.0000 1.0000
61.4400 213.0000 1.0000
61.4600 208.0000 1.0000
61.4800 201.0000 1.0000
61.5000 234.0000 1.0000
61.5200 207.0000 1.0000
61.5400 209.0000 1.0000
61.5600 193.0000 1.0000
61.5800 222.0000 1.0000
61.6000 208.0000 1.0000
61.6200 235.0000 1.0000
61.6400 229.0000 1.0000
61.6600 222.0000 1.0000
61.6800 256.0000 1.0000
61.7000 224.0000 1.0000
61.7200 210.0000 1.0000
61.7400 245.0000 1.0000
61.7600 236.0000 1.0000
61.7800 263.0000 1.0000
61.8000 232.0000 1.0000
61.8200 221.0000 1.0000
61.8400 253.0000 1.0000
61.8600 260.0000 1.0000
61.8800 205.0000 1.0000
61.9000 242.0000 1.0000
61.9200 242.0000 1.0000
61.9400 236.0000 1.0000
61.9600 243.0000 1.0000
61.9800 227.0000 1.0000
62.0000 234.0000 1.0000
62.0200 214.0000 1.0000
62.0400 209.0000 1.0000
62.0600 216.0000 1.0000
62.0800 199.0000 1.0000
62.1000 227.0000 1.0000
62.1200 198.0000 1.0000
62.1400 205.0000 1.0000
62.1600 200.0000 1.0000
62.1800 210.0000 1.0000
62.2000 194.0000 1.0000
62.2200 201.0000 1.0000
62.2400 189.0000 1.0000
62.2600 193.0000 1.0000
62.2800 194.0000 1.0000
62.3000 201.0000 1.0000
62.3200 184.0000 1.0000
62.3400 164.0000 1.0000
62.3600 181.0000 1.0000
62.3800 155.0000 1.0000
62.4000 193.0000 1.0000
62.4200 179.0000 1.0000
62.4400 174.0000 1.0000
62.4600 169.0000 1.0000
62.4800 189.0000 1.0000
62.5000 154.0000 1.0000
62.5200 141.0000 1.0000
62.5400 155.0000 1.0000
62.5600 142.0000 1.0000
62.5800 156.0000 1.0000
62.6000 149.0000 1.0000
62.6200 165.0000 1.0000
62.6400 158.0000 1.0000
62.6600 145.0000 1.0000
62.6800 158.0000 1.0000
62.7000 144.0000 1.0000
62.7200 123.0000 1.0000
62.7400 154.0000 1.0000
62.7600 152.0000 1.0000
62.7800 146.0000 1.0000
62.8000 151.0000 1.0000
62.8200 145.0000 1.0000
62.8400 151.0000 1.0000
62.8600 147.0000 1.0000
62.8800 158.0000 1.0000
62.9000 146.0000 1.0000
62.9200 154.0000 1.0000
62.9400 137.0000 1.0000
62.9600 131.0000 1.0000
62.9800 146.0000 1.0000
63.0000 139.0000 1.0000
63.0200 145.0000 1.0000
63.0400 132.0000 1.0000
63.0600 134.0000 1.0000
63.0800 132.0000 1.0000
63.1000 152.0000 1.0000
63.1200 129.0000 1.0000
63.1400 147.0000 1.0000
63.1600 152.0000 1.0000
63.1800 137.0000 1.0000
63.2000 153.0000 1.0000
63.2200 119.0000 1.0000
63.2400 118.0000 1.0000
63.2600 143.0000 1.0000
63.2800 128.0000 1.0000
63.3000 149.0000 1.0000
63.3200 153.0000 1.0000
63.3400 131.0000 1.0000
63.3600 127.0000 1.0000
63.3800 144.0000 1.0000
63.4000 134.0000 1.0000
63.4200 129.0000 1.0000
63.4400 133.0000 1.0000
63.4600 145.0000 1.0000
63.4800 145.0000 1.0000
63.5000 150.0000 1.0000
63.5200 141.0000 1.0000
63.5400 136.0000 1.0000
63.5600 115.0000 1.0000
63.5800 142.0000 1.0000
63.6000 160.0000 1.0000
63.6200 167.0000 1.0000
63.6400 134.0000 1.0000
63.6600 169.0000 1.0000
63.6800 154.0000 1.0000
63.7000 152.0000 1.0000
63.7200 160.0000 1.0000
63.7400 190.0000 1.0000
63.7600 183.0000 1.0000
63.7800 183.0000 1.0000
63.8000 188.0000 1.0000
63.8200 191.0000 1.0000
63.8400 201.0000 1.0000
63.8600 213.0000 1.0000
63.8800 210.0000 1.0000
63.9000 194.0000 1.0000
63.9200 184.0000 1.0000
63.9400 216.0000 1.0000
63.9600 181.0000 1.0000
63.9800 168.0000 1.0000
64.0000 180.0000 1.0000
64.0200 182.0000 1.0000
64.0400 180.0000 1.0000
64.0600 177.0000 1.0000
64.0800 161.0000 1.0000
64.1000 154.0000 1.0000
64.1200 145.0000 1.0000
64.1400 146.0000 1.0000
64.1600 149.0000 1.0000
64.1800 132.0000 1.0000
64.2000 142.0000 1.0000
64.2200 129.0000 1.0000
64.2400 136.0000 1.0000
64.2600 129.0000 1.0000
64.2800 144.0000 1.0000
64.3000 151.0000 1.0000
64.3200 118.0000 1.0000
64.3400 126.0000 1.0000
64.3600 131.0000 1.0000
64.3800 131.0000 1.0000
64.4000 128.0000 1.0000
64.4200 128.0000 1.0000
64.4400 122.0000 1.0000
64.4600 114.0000 1.0000
64.4800 120.0000 1.0000
64.5000 125.0000 1.0000
64.5200 124.0000 1.0000
64.5400 132.0000 1.0000
64.5600 111.0000 1.0000
64.5800 119.0000 1.0000
64.6000 117.0000 1.0000
64.6200 134.0000 1.0000
64.6400 118.0000 1.0000
64.6600 134.0000 1.0000
64.6800 132.0000 1.0000
64.7000 137.0000 1.0000
64.7200 131.0000 1.0000
64.7400 136.0000 1.0000
64.7600 134.0000 1.0000
64.7800 133.0000 1.0000
64.8000 133.0000 1.0000
64.8200 135.0000 1.0000
64.8400 125.0000 1.0000
64.8600 134.0000 1.0000
64.8800 141.0000 1.0000
64.9000 130.0000 1.0000
64.9200 118.0000 1.0000
64.9400 121.0000 1.0000
64.9600 123.0000 1.0000
64.9800 123.0000 1.0000
65.0000 123.0000 1.0000
*RAS_INT_END
*RAS_DATA_END
