*RAS_DATA_START
*RAS_HEADER_START
*CORR_POS_DB_NAME "Angle Correction ASC6 SC WITH Mono_04082019"
*CORR_POS_GONIO_RADIUS ""
*CORR_POS_NODE_INDEX01 ""
*CORR_POS_NODE_INDEX02 ""
*CORR_POS_NODE_INDEX03 ""
*CORR_POS_NODE_INDEX04 ""
*CORR_POS_NODE_INDEX05 ""
*CORR_POS_NODE_INDEX06 ""
*CORR_POS_NODE_INDEX07 ""
*CORR_POS_NODE_INDEX08 ""
*CORR_POS_NODE_INDEX09 ""
*CORR_POS_NODE_INDEX10 ""
*CORR_POS_NODE_INDEX11 ""
*CORR_POS_NODE_LABEL01 "Si(111)"
*CORR_POS_NODE_LABEL02 "Si(220)"
*CORR_POS_NODE_LABEL03 "Si(311)"
*CORR_POS_NODE_LABEL04 "Si(400)"
*CORR_POS_NODE_LABEL05 "Si(331)"
*CORR_POS_NODE_LABEL06 "Si(422)"
*CORR_POS_NODE_LABEL07 "Si(511)"
*CORR_POS_NODE_LABEL08 "Si(440)"
*CORR_POS_NODE_LABEL09 "Si(531)"
*CORR_POS_NODE_LABEL10 "Si(620)"
*CORR_POS_NODE_LABEL11 "Si(533)"
*CORR_POS_NODE_POS_CALC01 "28.377"
*CORR_POS_NODE_POS_CALC02 "47.2506"
*CORR_POS_NODE_POS_CALC03 "56.0725"
*CORR_POS_NODE_POS_CALC04 "69.0822"
*CORR_POS_NODE_POS_CALC05 "76.3294"
*CORR_POS_NODE_POS_CALC06 "87.9853"
*CORR_POS_NODE_POS_CALC07 "94.9091"
*CORR_POS_NODE_POS_CALC08 "106.668"
*CORR_POS_NODE_POS_CALC09 "114.054"
*CORR_POS_NODE_POS_CALC10 "127.511"
*CORR_POS_NODE_POS_CALC11 "136.864"
*CORR_POS_NODE_POS_MEAS01 "28.5058"
*CORR_POS_NODE_POS_MEAS02 "47.345"
*CORR_POS_NODE_POS_MEAS03 "56.1421"
*CORR_POS_NODE_POS_MEAS04 "69.1304"
*CORR_POS_NODE_POS_MEAS05 "76.366"
*CORR_POS_NODE_POS_MEAS06 "88.0213"
*CORR_POS_NODE_POS_MEAS07 "94.9406"
*CORR_POS_NODE_POS_MEAS08 "106.689"
*CORR_POS_NODE_POS_MEAS09 "114.065"
*CORR_POS_NODE_POS_MEAS10 "127.518"
*CORR_POS_NODE_POS_MEAS11 "136.869"
*CORR_POS_OPT_ATTR "集中法"
*CORR_POS_PARAM_MU ""
*CORR_POS_PARAM_PL ""
*CORR_POS_SEMODEL_TYPE "0"
*CORR_POS_STANDARD_TYPE ""
*CORR_POS_VALUE_ANALYZER "None"
*CORR_POS_VALUE_CMONO "None"
*CORR_POS_VALUE_IMONO "None"
*CORR_POS_VALUE_IS "1.250deg"
*CORR_POS_VALUE_ISL "10.0mm"
*CORR_POS_VALUE_ISOLLER "5.0deg"
*CORR_POS_VALUE_RS1 "1.250deg"
*CORR_POS_VALUE_RS2 "0.3mm"
*CORR_POS_VALUE_RSOLLER "5.0deg"
*CORR_POS_XG_FOCUS_L ""
*CORR_POS_XG_WAVE_TYPE ""
*CORR_POS_XG_WAVE_VALUE ""
*DISP_FMT_X "%.2f"
*DISP_FMT_Y "%.0f"
*DISP_FULLSCALE "6433.8000000000"
*DISP_LINE_COLOR "255.0000000000"
*DISP_LINE_STYLE "0.0000000000"
*DISP_LINE_WIDTH "0.2500000000"
*DISP_NOTE "Collected Data-13"
*DISP_OFFSET_Y "0.0000000000"
*DISP_PEAKSEARCH_UNIT_Y "CPS"
*DISP_RANGE_BOTTOM "0.0000000000"
*DISP_RANGE_LEFT "5.0000000000"
*DISP_RANGE_LOGCUTOFF "0.0100000000"
*DISP_RANGE_RIGHT "65.0000000000"
*DISP_RANGE_TOP "6433.8000000000"
*DISP_SCALE_MODE_Y "0.0000000000"
*DISP_TAB_NAME "Theta/2-Theta"
*DISP_TITLE_Y "Intensity"
*DISP_UNIT_Y "CPS"
*DISP_WINDOW_NAME "MSG_MACROENGINE"
*FILE_COMMENT " "
*FILE_MD5 ""
*FILE_MEMO " "
*FILE_OPERATOR "Administrator"
*FILE_PART_ID "MEAS_PBEA_00223"
*FILE_SAMPLE " "
*FILE_TYPE "RAS_RAW"
*FILE_USERGROUP "System Manager"
*FILE_VERSION "1.0000000000"
*HW_ATTACHMENT_ID "ATT1031"
*HW_ATTACHMENT_NAME "6サンプルチェンジャ|ASC-6"
*HW_COUNTER_ID-0 "CUT0021"
*HW_COUNTER_ID-1 "CUT0020"
*HW_COUNTER_ID-2 "CUT0020"
*HW_COUNTER_ID-3 "CMC0021"
*HW_COUNTER_NAME-0 "SC-70|SC-70"
*HW_COUNTER_NAME-1 "None|None"
*HW_COUNTER_NAME-2 "None|None"
*HW_COUNTER_NAME-3 "検出器モノクロメータ|Detector monochromator"
*HW_COUNTER_SELECT_NAME "SC-70|SC-70"
*HW_ECP_HV "671.5000000000"
*HW_ECP_HV_UNIT "V"
*HW_GONIOMETER_ID "GON0070"
*HW_GONIOMETER_NAME "MiniFlex 300/600|MiniFlex 300/600"
*HW_GONIOMETER_RADIUS-0 "79.0"
*HW_GONIOMETER_RADIUS-1 "91.5"
*HW_GONIOMETER_RADIUS-2 "150.0"
*HW_GONIOMETER_RADIUS-3 "0"
*HW_GONIOMETER_RADIUS-4 "103.4"
*HW_GONIOMETER_RADIUS-5 "150.0"
*HW_GONIOMETER_RADIUS-6 "46.6"
*HW_GONIOMETER_RADIUS-7 "160.0"
*HW_I_OPT_ID-0 "ISL0021"
*HW_I_OPT_ID-1 "ISO0021"
*HW_I_OPT_NAME-0 "発散スリット|Divergence slit"
*HW_I_OPT_NAME-1 "入射平行スリット|Incident parallel slit"
*HW_R_ATTENUATER_AUTOMODE "0"
*HW_R_OPT_ID-0 "RSS0021"
*HW_R_OPT_ID-1 "RSO0021"
*HW_R_OPT_ID-2 "RRS0021"
*HW_R_OPT_NAME-0 "散乱スリット|Scattering slit"
*HW_R_OPT_NAME-1 "受光平行スリット|Receiving soller slit"
*HW_R_OPT_NAME-2 "受光スリット|Receiving slit"
*HW_SAMPLE_HOLDER_ID "SMP0000"
*HW_SAMPLE_HOLDER_NAME "無し|None"
*HW_XG_CURRENT_MAX "15"
*HW_XG_CURRENT_MIN "2"
*HW_XG_CURRENT_RESOLUTION "1"
*HW_XG_CURRENT_UNIT "mA"
*HW_XG_FOCUS "1mm x 10mm"
*HW_XG_FOCUS_TYPE "Normal"
*HW_XG_ID "1060"
*HW_XG_NAME "300W/600W 封入管-B|300W/600W Sealed tube-B"
*HW_XG_TARGET_ATOMIC_NUMBER "29.0000000000"
*HW_XG_TARGET_NAME "Cu"
*HW_XG_TYPE "Hermetic"
*HW_XG_VOLTAGE_MAX "40"
*HW_XG_VOLTAGE_MIN "20"
*HW_XG_VOLTAGE_RESOLUTION "1"
*HW_XG_VOLTAGE_UNIT "kV"
*HW_XG_WATT_MAX "0.600"
*HW_XG_WATT_UNIT "kW"
*HW_XG_WAVE_LENGTH_ALPHA1 "1.540593"
*HW_XG_WAVE_LENGTH_ALPHA2 "1.544414"
*HW_XG_WAVE_LENGTH_BETA "1.392250"
*MEAS_COND_AXIS_NAME-0 "Theta/2-Theta"
*MEAS_COND_AXIS_NAME-1 "Spin"
*MEAS_COND_AXIS_NAME-2 "Change"
*MEAS_COND_AXIS_NAME-3 "Soller(inc.)"
*MEAS_COND_AXIS_NAME-4 "IHS"
*MEAS_COND_AXIS_NAME-5 "DS"
*MEAS_COND_AXIS_NAME-6 "SS"
*MEAS_COND_AXIS_NAME-7 "Soller(rec.)"
*MEAS_COND_AXIS_NAME-8 "RS"
*MEAS_COND_AXIS_NAME-9 "Filter"
*MEAS_COND_AXIS_NAME-10 "Monochromator"
*MEAS_COND_AXIS_NAME-11 "HV"
*MEAS_COND_AXIS_NAME-12 "PHA"
*MEAS_COND_AXIS_NAME_INTERNAL-0 "TwoThetaTheta"
*MEAS_COND_AXIS_NAME_INTERNAL-1 "Spin"
*MEAS_COND_AXIS_NAME_INTERNAL-2 "Change"
*MEAS_COND_AXIS_NAME_INTERNAL-3 "IncidentSollerSlit"
*MEAS_COND_AXIS_NAME_INTERNAL-4 "IncidentAxdSlit"
*MEAS_COND_AXIS_NAME_INTERNAL-5 "IncidentSlitBox"
*MEAS_COND_AXIS_NAME_INTERNAL-6 "ReceivingSlitBox1"
*MEAS_COND_AXIS_NAME_INTERNAL-7 "ReceivingSollerSlit"
*MEAS_COND_AXIS_NAME_INTERNAL-8 "ReceivingSlitBox2"
*MEAS_COND_AXIS_NAME_INTERNAL-9 "Filter"
*MEAS_COND_AXIS_NAME_INTERNAL-10 "CounterMonochromator"
*MEAS_COND_AXIS_NAME_INTERNAL-11 "HV"
*MEAS_COND_AXIS_NAME_INTERNAL-12 "PHA"
*MEAS_COND_AXIS_NAME_MAGICNO-0 "268632064.0000000000"
*MEAS_COND_AXIS_NAME_MAGICNO-1 "16842752.0000000000"
*MEAS_COND_AXIS_NAME_MAGICNO-2 "16842752.0000000000"
*MEAS_COND_AXIS_NAME_MAGICNO-3 "20971521.0000000000"
*MEAS_COND_AXIS_NAME_MAGICNO-4 "22020097.0000000000"
*MEAS_COND_AXIS_NAME_MAGICNO-5 "22020097.0000000000"
*MEAS_COND_AXIS_NAME_MAGICNO-6 "23068673.0000000000"
*MEAS_COND_AXIS_NAME_MAGICNO-7 "20971521.0000000000"
*MEAS_COND_AXIS_NAME_MAGICNO-8 "23068673.0000000000"
*MEAS_COND_AXIS_NAME_MAGICNO-9 "20971521.0000000000"
*MEAS_COND_AXIS_NAME_MAGICNO-10 "20971521.0000000000"
*MEAS_COND_AXIS_NAME_MAGICNO-11 "0.0000000000"
*MEAS_COND_AXIS_NAME_MAGICNO-12 "0.0000000000"
*MEAS_COND_AXIS_OFFSET-0 "0.0000000000"
*MEAS_COND_AXIS_OFFSET-1 "-"
*MEAS_COND_AXIS_OFFSET-2 "-"
*MEAS_COND_AXIS_OFFSET-3 "-"
*MEAS_COND_AXIS_OFFSET-4 "-"
*MEAS_COND_AXIS_OFFSET-5 "-"
*MEAS_COND_AXIS_OFFSET-6 "-"
*MEAS_COND_AXIS_OFFSET-7 "-"
*MEAS_COND_AXIS_OFFSET-8 "-"
*MEAS_COND_AXIS_OFFSET-9 "-"
*MEAS_COND_AXIS_OFFSET-10 "-"
*MEAS_COND_AXIS_OFFSET-11 "-"
*MEAS_COND_AXIS_OFFSET-12 "-"
*MEAS_COND_AXIS_POSITION-0 "10.0000000000"
*MEAS_COND_AXIS_POSITION-1 "0.0000000000"
*MEAS_COND_AXIS_POSITION-2 "1.0000000000"
*MEAS_COND_AXIS_POSITION-3 "5.0deg"
*MEAS_COND_AXIS_POSITION-4 "10.0mm"
*MEAS_COND_AXIS_POSITION-5 "1.250deg"
*MEAS_COND_AXIS_POSITION-6 "1.250deg"
*MEAS_COND_AXIS_POSITION-7 "5.0deg"
*MEAS_COND_AXIS_POSITION-8 "0.3mm"
*MEAS_COND_AXIS_POSITION-9 "None"
*MEAS_COND_AXIS_POSITION-10 "Bent"
*MEAS_COND_AXIS_POSITION-11 "671.5000000000"
*MEAS_COND_AXIS_POSITION-12 "551.2500000000"
*MEAS_COND_AXIS_UNIT-0 "deg"
*MEAS_COND_AXIS_UNIT-1 ""
*MEAS_COND_AXIS_UNIT-2 ""
*MEAS_COND_AXIS_UNIT-3 ""
*MEAS_COND_AXIS_UNIT-4 ""
*MEAS_COND_AXIS_UNIT-5 ""
*MEAS_COND_AXIS_UNIT-6 ""
*MEAS_COND_AXIS_UNIT-7 ""
*MEAS_COND_AXIS_UNIT-8 ""
*MEAS_COND_AXIS_UNIT-9 ""
*MEAS_COND_AXIS_UNIT-10 ""
*MEAS_COND_AXIS_UNIT-11 "V"
*MEAS_COND_AXIS_UNIT-12 "mV"
*MEAS_COND_CORRECTION_SLIT_COUNTERMONO "None"
*MEAS_COND_CORRECTION_SLIT_DS "1.250deg"
*MEAS_COND_CORRECTION_SLIT_FILTER "None"
*MEAS_COND_CORRECTION_SLIT_IHS "10.0mm"
*MEAS_COND_CORRECTION_SLIT_RS "0.3mm"
*MEAS_COND_CORRECTION_SLIT_SOLLER_INC "5.0deg"
*MEAS_COND_CORRECTION_SLIT_SOLLER_REC "5.0deg"
*MEAS_COND_CORRECTION_SLIT_SS "1.250deg"
*MEAS_COND_COUNTER_CNTLOSS_CORR "0.0000000000"
*MEAS_COND_COUNTER_PHABASE "551.2500000000"
*MEAS_COND_COUNTER_PHAWINDOW "926.2500000000"
*MEAS_COND_COUNTER_PHA_UNIT "mV"
*MEAS_COND_COUNTER_TAUDIFF "0.2500000000"
*MEAS_COND_COUNTER_TAUINT "0.7500000000"
*MEAS_COND_IRRADIATION_MODE "OFF"
*MEAS_COND_IRRADIATION_WIDTH ""
*MEAS_COND_OPT_ATTR " "
*MEAS_COND_OPT_NAME ""
*MEAS_COND_UNSYMMETRIC_MODE "OFF"
*MEAS_COND_XG_CURRENT "15.0000000000"
*MEAS_COND_XG_VOLTAGE "40.0000000000"
*MEAS_COND_XG_WAVE_TYPE "Ka"
*MEAS_DATA_COUNT "3001.0000000000"
*MEAS_SCAN_AXIS_X "Theta/2-Theta"
*MEAS_SCAN_AXIS_X_INTERNAL "TwoThetaTheta"
*MEAS_SCAN_END_TIME "07/28/25 17:03:10"
*MEAS_SCAN_MODE "STEP"
*MEAS_SCAN_MONITOR "0"
*MEAS_SCAN_RESOLUTION_X "0.0025"
*MEAS_SCAN_SPEED "2.00"
*MEAS_SCAN_SPEED_UNIT "sec."
*MEAS_SCAN_SPEED_USER "2.00"
*MEAS_SCAN_START "5.0000000000"
*MEAS_SCAN_START_TIME "07/28/25 15:18:00"
*MEAS_SCAN_STEP "0.0200000000"
*MEAS_SCAN_STOP "65.0000000000"
*MEAS_SCAN_UNIT_X "deg"
*MEAS_SCAN_UNIT_Y "counts"
*SLIT_SYSTEM "0"
*RAS_HEADER_END
*RAS_INT_START
5.0000 919.0000 1.0000
5.0200 949.0000 1.0000
5.0400 882.0000 1.0000
5.0600 882.0000 1.0000
5.0800 890.0000 1.0000
5.1000 952.0000 1.0000
5.1200 806.0000 1.0000
5.1400 832.0000 1.0000
5.1600 879.0000 1.0000
5.1800 876.0000 1.0000
5.2000 855.0000 1.0000
5.2200 884.0000 1.0000
5.2400 866.0000 1.0000
5.2600 827.0000 1.0000
5.2800 732.0000 1.0000
5.3000 772.0000 1.0000
5.3200 835.0000 1.0000
5.3400 815.0000 1.0000
5.3600 874.0000 1.0000
5.3800 882.0000 1.0000
5.4000 823.0000 1.0000
5.4200 837.0000 1.0000
5.4400 748.0000 1.0000
5.4600 862.0000 1.0000
5.4800 821.0000 1.0000
5.5000 801.0000 1.0000
5.5200 795.0000 1.0000
5.5400 809.0000 1.0000
5.5600 816.0000 1.0000
5.5800 843.0000 1.0000
5.6000 860.0000 1.0000
5.6200 804.0000 1.0000
5.6400 765.0000 1.0000
5.6600 808.0000 1.0000
5.6800 901.0000 1.0000
5.7000 816.0000 1.0000
5.7200 708.0000 1.0000
5.7400 771.0000 1.0000
5.7600 762.0000 1.0000
5.7800 769.0000 1.0000
5.8000 808.0000 1.0000
5.8200 821.0000 1.0000
5.8400 771.0000 1.0000
5.8600 707.0000 1.0000
5.8800 823.0000 1.0000
5.9000 798.0000 1.0000
5.9200 785.0000 1.0000
5.9400 843.0000 1.0000
5.9600 808.0000 1.0000
5.9800 840.0000 1.0000
6.0000 803.0000 1.0000
6.0200 893.0000 1.0000
6.0400 798.0000 1.0000
6.0600 718.0000 1.0000
6.0800 682.0000 1.0000
6.1000 701.0000 1.0000
6.1200 677.0000 1.0000
6.1400 684.0000 1.0000
6.1600 682.0000 1.0000
6.1800 610.0000 1.0000
6.2000 633.0000 1.0000
6.2200 670.0000 1.0000
6.2400 620.0000 1.0000
6.2600 665.0000 1.0000
6.2800 613.0000 1.0000
6.3000 590.0000 1.0000
6.3200 606.0000 1.0000
6.3400 592.0000 1.0000
6.3600 623.0000 1.0000
6.3800 597.0000 1.0000
6.4000 575.0000 1.0000
6.4200 599.0000 1.0000
6.4400 577.0000 1.0000
6.4600 572.0000 1.0000
6.4800 579.0000 1.0000
6.5000 601.0000 1.0000
6.5200 582.0000 1.0000
6.5400 568.0000 1.0000
6.5600 544.0000 1.0000
6.5800 576.0000 1.0000
6.6000 574.0000 1.0000
6.6200 604.0000 1.0000
6.6400 549.0000 1.0000
6.6600 480.0000 1.0000
6.6800 542.0000 1.0000
6.7000 571.0000 1.0000
6.7200 536.0000 1.0000
6.7400 496.0000 1.0000
6.7600 464.0000 1.0000
6.7800 504.0000 1.0000
6.8000 516.0000 1.0000
6.8200 523.0000 1.0000
6.8400 552.0000 1.0000
6.8600 512.0000 1.0000
6.8800 510.0000 1.0000
6.9000 517.0000 1.0000
6.9200 464.0000 1.0000
6.9400 484.0000 1.0000
6.9600 518.0000 1.0000
6.9800 530.0000 1.0000
7.0000 534.0000 1.0000
7.0200 508.0000 1.0000
7.0400 475.0000 1.0000
7.0600 487.0000 1.0000
7.0800 499.0000 1.0000
7.1000 484.0000 1.0000
7.1200 496.0000 1.0000
7.1400 463.0000 1.0000
7.1600 451.0000 1.0000
7.1800 453.0000 1.0000
7.2000 488.0000 1.0000
7.2200 512.0000 1.0000
7.2400 470.0000 1.0000
7.2600 463.0000 1.0000
7.2800 452.0000 1.0000
7.3000 443.0000 1.0000
7.3200 467.0000 1.0000
7.3400 450.0000 1.0000
7.3600 457.0000 1.0000
7.3800 481.0000 1.0000
7.4000 467.0000 1.0000
7.4200 425.0000 1.0000
7.4400 394.0000 1.0000
7.4600 436.0000 1.0000
7.4800 432.0000 1.0000
7.5000 428.0000 1.0000
7.5200 425.0000 1.0000
7.5400 456.0000 1.0000
7.5600 504.0000 1.0000
7.5800 461.0000 1.0000
7.6000 423.0000 1.0000
7.6200 431.0000 1.0000
7.6400 467.0000 1.0000
7.6600 451.0000 1.0000
7.6800 426.0000 1.0000
7.7000 439.0000 1.0000
7.7200 448.0000 1.0000
7.7400 449.0000 1.0000
7.7600 443.0000 1.0000
7.7800 435.0000 1.0000
7.8000 434.0000 1.0000
7.8200 463.0000 1.0000
7.8400 479.0000 1.0000
7.8600 449.0000 1.0000
7.8800 443.0000 1.0000
7.9000 445.0000 1.0000
7.9200 474.0000 1.0000
7.9400 445.0000 1.0000
7.9600 448.0000 1.0000
7.9800 466.0000 1.0000
8.0000 448.0000 1.0000
8.0200 419.0000 1.0000
8.0400 458.0000 1.0000
8.0600 475.0000 1.0000
8.0800 488.0000 1.0000
8.1000 484.0000 1.0000
8.1200 474.0000 1.0000
8.1400 457.0000 1.0000
8.1600 462.0000 1.0000
8.1800 484.0000 1.0000
8.2000 497.0000 1.0000
8.2200 477.0000 1.0000
8.2400 463.0000 1.0000
8.2600 461.0000 1.0000
8.2800 487.0000 1.0000
8.3000 520.0000 1.0000
8.3200 559.0000 1.0000
8.3400 587.0000 1.0000
8.3600 577.0000 1.0000
8.3800 584.0000 1.0000
8.4000 616.0000 1.0000
8.4200 635.0000 1.0000
8.4400 651.0000 1.0000
8.4600 700.0000 1.0000
8.4800 751.0000 1.0000
8.5000 772.0000 1.0000
8.5200 785.0000 1.0000
8.5400 860.0000 1.0000
8.5600 901.0000 1.0000
8.5800 945.0000 1.0000
8.6000 993.0000 1.0000
8.6200 973.0000 1.0000
8.6400 897.0000 1.0000
8.6600 809.0000 1.0000
8.6800 715.0000 1.0000
8.7000 672.0000 1.0000
8.7200 540.0000 1.0000
8.7400 472.0000 1.0000
8.7600 450.0000 1.0000
8.7800 398.0000 1.0000
8.8000 357.0000 1.0000
8.8200 347.0000 1.0000
8.8400 353.0000 1.0000
8.8600 331.0000 1.0000
8.8800 354.0000 1.0000
8.9000 386.0000 1.0000
8.9200 350.0000 1.0000
8.9400 303.0000 1.0000
8.9600 307.0000 1.0000
8.9800 331.0000 1.0000
9.0000 330.0000 1.0000
9.0200 367.0000 1.0000
9.0400 362.0000 1.0000
9.0600 347.0000 1.0000
9.0800 385.0000 1.0000
9.1000 427.0000 1.0000
9.1200 402.0000 1.0000
9.1400 376.0000 1.0000
9.1600 373.0000 1.0000
9.1800 387.0000 1.0000
9.2000 292.0000 1.0000
9.2200 314.0000 1.0000
9.2400 297.0000 1.0000
9.2600 293.0000 1.0000
9.2800 298.0000 1.0000
9.3000 297.0000 1.0000
9.3200 323.0000 1.0000
9.3400 268.0000 1.0000
9.3600 264.0000 1.0000
9.3800 281.0000 1.0000
9.4000 245.0000 1.0000
9.4200 238.0000 1.0000
9.4400 253.0000 1.0000
9.4600 279.0000 1.0000
9.4800 264.0000 1.0000
9.5000 287.0000 1.0000
9.5200 275.0000 1.0000
9.5400 263.0000 1.0000
9.5600 239.0000 1.0000
9.5800 256.0000 1.0000
9.6000 234.0000 1.0000
9.6200 253.0000 1.0000
9.6400 266.0000 1.0000
9.6600 236.0000 1.0000
9.6800 230.0000 1.0000
9.7000 237.0000 1.0000
9.7200 269.0000 1.0000
9.7400 253.0000 1.0000
9.7600 287.0000 1.0000
9.7800 258.0000 1.0000
9.8000 219.0000 1.0000
9.8200 240.0000 1.0000
9.8400 243.0000 1.0000
9.8600 260.0000 1.0000
9.8800 233.0000 1.0000
9.9000 247.0000 1.0000
9.9200 237.0000 1.0000
9.9400 216.0000 1.0000
9.9600 235.0000 1.0000
9.9800 212.0000 1.0000
10.0000 243.0000 1.0000
10.0200 229.0000 1.0000
10.0400 236.0000 1.0000
10.0600 208.0000 1.0000
10.0800 223.0000 1.0000
10.1000 241.0000 1.0000
10.1200 248.0000 1.0000
10.1400 219.0000 1.0000
10.1600 201.0000 1.0000
10.1800 206.0000 1.0000
10.2000 235.0000 1.0000
10.2200 252.0000 1.0000
10.2400 265.0000 1.0000
10.2600 239.0000 1.0000
10.2800 258.0000 1.0000
10.3000 232.0000 1.0000
10.3200 255.0000 1.0000
10.3400 231.0000 1.0000
10.3600 202.0000 1.0000
10.3800 227.0000 1.0000
10.4000 266.0000 1.0000
10.4200 206.0000 1.0000
10.4400 192.0000 1.0000
10.4600 263.0000 1.0000
10.4800 191.0000 1.0000
10.5000 207.0000 1.0000
10.5200 181.0000 1.0000
10.5400 220.0000 1.0000
10.5600 191.0000 1.0000
10.5800 168.0000 1.0000
10.6000 231.0000 1.0000
10.6200 218.0000 1.0000
10.6400 232.0000 1.0000
10.6600 251.0000 1.0000
10.6800 179.0000 1.0000
10.7000 185.0000 1.0000
10.7200 208.0000 1.0000
10.7400 240.0000 1.0000
10.7600 193.0000 1.0000
10.7800 194.0000 1.0000
10.8000 213.0000 1.0000
10.8200 209.0000 1.0000
10.8400 219.0000 1.0000
10.8600 203.0000 1.0000
10.8800 204.0000 1.0000
10.9000 213.0000 1.0000
10.9200 204.0000 1.0000
10.9400 232.0000 1.0000
10.9600 206.0000 1.0000
10.9800 216.0000 1.0000
11.0000 194.0000 1.0000
11.0200 202.0000 1.0000
11.0400 188.0000 1.0000
11.0600 206.0000 1.0000
11.0800 223.0000 1.0000
11.1000 190.0000 1.0000
11.1200 214.0000 1.0000
11.1400 205.0000 1.0000
11.1600 186.0000 1.0000
11.1800 224.0000 1.0000
11.2000 209.0000 1.0000
11.2200 200.0000 1.0000
11.2400 218.0000 1.0000
11.2600 213.0000 1.0000
11.2800 207.0000 1.0000
11.3000 207.0000 1.0000
11.3200 177.0000 1.0000
11.3400 170.0000 1.0000
11.3600 198.0000 1.0000
11.3800 209.0000 1.0000
11.4000 223.0000 1.0000
11.4200 175.0000 1.0000
11.4400 216.0000 1.0000
11.4600 219.0000 1.0000
11.4800 202.0000 1.0000
11.5000 197.0000 1.0000
11.5200 203.0000 1.0000
11.5400 204.0000 1.0000
11.5600 181.0000 1.0000
11.5800 187.0000 1.0000
11.6000 208.0000 1.0000
11.6200 211.0000 1.0000
11.6400 188.0000 1.0000
11.6600 180.0000 1.0000
11.6800 183.0000 1.0000
11.7000 189.0000 1.0000
11.7200 182.0000 1.0000
11.7400 199.0000 1.0000
11.7600 191.0000 1.0000
11.7800 192.0000 1.0000
11.8000 228.0000 1.0000
11.8200 190.0000 1.0000
11.8400 161.0000 1.0000
11.8600 237.0000 1.0000
11.8800 213.0000 1.0000
11.9000 217.0000 1.0000
11.9200 198.0000 1.0000
11.9400 216.0000 1.0000
11.9600 227.0000 1.0000
11.9800 231.0000 1.0000
12.0000 240.0000 1.0000
12.0200 196.0000 1.0000
12.0400 228.0000 1.0000
12.0600 217.0000 1.0000
12.0800 245.0000 1.0000
12.1000 240.0000 1.0000
12.1200 233.0000 1.0000
12.1400 233.0000 1.0000
12.1600 251.0000 1.0000
12.1800 284.0000 1.0000
12.2000 346.0000 1.0000
12.2200 390.0000 1.0000
12.2400 394.0000 1.0000
12.2600 391.0000 1.0000
12.2800 384.0000 1.0000
12.3000 383.0000 1.0000
12.3200 377.0000 1.0000
12.3400 341.0000 1.0000
12.3600 262.0000 1.0000
12.3800 254.0000 1.0000
12.4000 234.0000 1.0000
12.4200 214.0000 1.0000
12.4400 167.0000 1.0000
12.4600 189.0000 1.0000
12.4800 184.0000 1.0000
12.5000 205.0000 1.0000
12.5200 193.0000 1.0000
12.5400 169.0000 1.0000
12.5600 171.0000 1.0000
12.5800 171.0000 1.0000
12.6000 196.0000 1.0000
12.6200 200.0000 1.0000
12.6400 158.0000 1.0000
12.6600 222.0000 1.0000
12.6800 238.0000 1.0000
12.7000 191.0000 1.0000
12.7200 175.0000 1.0000
12.7400 209.0000 1.0000
12.7600 199.0000 1.0000
12.7800 205.0000 1.0000
12.8000 210.0000 1.0000
12.8200 193.0000 1.0000
12.8400 194.0000 1.0000
12.8600 189.0000 1.0000
12.8800 205.0000 1.0000
12.9000 204.0000 1.0000
12.9200 197.0000 1.0000
12.9400 181.0000 1.0000
12.9600 185.0000 1.0000
12.9800 216.0000 1.0000
13.0000 209.0000 1.0000
13.0200 177.0000 1.0000
13.0400 188.0000 1.0000
13.0600 203.0000 1.0000
13.0800 177.0000 1.0000
13.1000 174.0000 1.0000
13.1200 187.0000 1.0000
13.1400 202.0000 1.0000
13.1600 181.0000 1.0000
13.1800 193.0000 1.0000
13.2000 204.0000 1.0000
13.2200 190.0000 1.0000
13.2400 203.0000 1.0000
13.2600 205.0000 1.0000
13.2800 223.0000 1.0000
13.3000 231.0000 1.0000
13.3200 222.0000 1.0000
13.3400 261.0000 1.0000
13.3600 298.0000 1.0000
13.3800 312.0000 1.0000
13.4000 328.0000 1.0000
13.4200 361.0000 1.0000
13.4400 349.0000 1.0000
13.4600 334.0000 1.0000
13.4800 350.0000 1.0000
13.5000 315.0000 1.0000
13.5200 299.0000 1.0000
13.5400 315.0000 1.0000
13.5600 322.0000 1.0000
13.5800 335.0000 1.0000
13.6000 382.0000 1.0000
13.6200 447.0000 1.0000
13.6400 460.0000 1.0000
13.6600 438.0000 1.0000
13.6800 424.0000 1.0000
13.7000 384.0000 1.0000
13.7200 344.0000 1.0000
13.7400 285.0000 1.0000
13.7600 249.0000 1.0000
13.7800 232.0000 1.0000
13.8000 205.0000 1.0000
13.8200 186.0000 1.0000
13.8400 176.0000 1.0000
13.8600 173.0000 1.0000
13.8800 158.0000 1.0000
13.9000 140.0000 1.0000
13.9200 132.0000 1.0000
13.9400 132.0000 1.0000
13.9600 137.0000 1.0000
13.9800 131.0000 1.0000
14.0000 144.0000 1.0000
14.0200 143.0000 1.0000
14.0400 136.0000 1.0000
14.0600 142.0000 1.0000
14.0800 130.0000 1.0000
14.1000 137.0000 1.0000
14.1200 151.0000 1.0000
14.1400 146.0000 1.0000
14.1600 127.0000 1.0000
14.1800 123.0000 1.0000
14.2000 124.0000 1.0000
14.2200 137.0000 1.0000
14.2400 152.0000 1.0000
14.2600 139.0000 1.0000
14.2800 125.0000 1.0000
14.3000 114.0000 1.0000
14.3200 125.0000 1.0000
14.3400 125.0000 1.0000
14.3600 124.0000 1.0000
14.3800 144.0000 1.0000
14.4000 140.0000 1.0000
14.4200 136.0000 1.0000
14.4400 135.0000 1.0000
14.4600 135.0000 1.0000
14.4800 149.0000 1.0000
14.5000 142.0000 1.0000
14.5200 146.0000 1.0000
14.5400 144.0000 1.0000
14.5600 143.0000 1.0000
14.5800 154.0000 1.0000
14.6000 172.0000 1.0000
14.6200 184.0000 1.0000
14.6400 182.0000 1.0000
14.6600 192.0000 1.0000
14.6800 199.0000 1.0000
14.7000 205.0000 1.0000
14.7200 214.0000 1.0000
14.7400 216.0000 1.0000
14.7600 242.0000 1.0000
14.7800 238.0000 1.0000
14.8000 216.0000 1.0000
14.8200 219.0000 1.0000
14.8400 218.0000 1.0000
14.8600 214.0000 1.0000
14.8800 195.0000 1.0000
14.9000 181.0000 1.0000
14.9200 176.0000 1.0000
14.9400 162.0000 1.0000
14.9600 151.0000 1.0000
14.9800 164.0000 1.0000
15.0000 160.0000 1.0000
15.0200 150.0000 1.0000
15.0400 143.0000 1.0000
15.0600 129.0000 1.0000
15.0800 138.0000 1.0000
15.1000 154.0000 1.0000
15.1200 140.0000 1.0000
15.1400 120.0000 1.0000
15.1600 132.0000 1.0000
15.1800 138.0000 1.0000
15.2000 137.0000 1.0000
15.2200 139.0000 1.0000
15.2400 135.0000 1.0000
15.2600 131.0000 1.0000
15.2800 130.0000 1.0000
15.3000 127.0000 1.0000
15.3200 142.0000 1.0000
15.3400 160.0000 1.0000
15.3600 152.0000 1.0000
15.3800 133.0000 1.0000
15.4000 118.0000 1.0000
15.4200 128.0000 1.0000
15.4400 150.0000 1.0000
15.4600 149.0000 1.0000
15.4800 126.0000 1.0000
15.5000 133.0000 1.0000
15.5200 145.0000 1.0000
15.5400 155.0000 1.0000
15.5600 164.0000 1.0000
15.5800 161.0000 1.0000
15.6000 166.0000 1.0000
15.6200 157.0000 1.0000
15.6400 148.0000 1.0000
15.6600 148.0000 1.0000
15.6800 136.0000 1.0000
15.7000 120.0000 1.0000
15.7200 123.0000 1.0000
15.7400 140.0000 1.0000
15.7600 133.0000 1.0000
15.7800 114.0000 1.0000
15.8000 119.0000 1.0000
15.8200 137.0000 1.0000
15.8400 136.0000 1.0000
15.8600 130.0000 1.0000
15.8800 130.0000 1.0000
15.9000 128.0000 1.0000
15.9200 109.0000 1.0000
15.9400 108.0000 1.0000
15.9600 129.0000 1.0000
15.9800 138.0000 1.0000
16.0000 132.0000 1.0000
16.0200 123.0000 1.0000
16.0400 117.0000 1.0000
16.0600 117.0000 1.0000
16.0800 126.0000 1.0000
16.1000 116.0000 1.0000
16.1200 108.0000 1.0000
16.1400 128.0000 1.0000
16.1600 126.0000 1.0000
16.1800 110.0000 1.0000
16.2000 112.0000 1.0000
16.2200 121.0000 1.0000
16.2400 115.0000 1.0000
16.2600 106.0000 1.0000
16.2800 109.0000 1.0000
16.3000 120.0000 1.0000
16.3200 115.0000 1.0000
16.3400 108.0000 1.0000
16.3600 109.0000 1.0000
16.3800 110.0000 1.0000
16.4000 119.0000 1.0000
16.4200 110.0000 1.0000
16.4400 112.0000 1.0000
16.4600 131.0000 1.0000
16.4800 123.0000 1.0000
16.5000 117.0000 1.0000
16.5200 118.0000 1.0000
16.5400 133.0000 1.0000
16.5600 132.0000 1.0000
16.5800 124.0000 1.0000
16.6000 131.0000 1.0000
16.6200 127.0000 1.0000
16.6400 132.0000 1.0000
16.6600 134.0000 1.0000
16.6800 143.0000 1.0000
16.7000 139.0000 1.0000
16.7200 119.0000 1.0000
16.7400 119.0000 1.0000
16.7600 133.0000 1.0000
16.7800 123.0000 1.0000
16.8000 109.0000 1.0000
16.8200 123.0000 1.0000
16.8400 120.0000 1.0000
16.8600 116.0000 1.0000
16.8800 124.0000 1.0000
16.9000 130.0000 1.0000
16.9200 131.0000 1.0000
16.9400 122.0000 1.0000
16.9600 130.0000 1.0000
16.9800 125.0000 1.0000
17.0000 129.0000 1.0000
17.0200 124.0000 1.0000
17.0400 126.0000 1.0000
17.0600 126.0000 1.0000
17.0800 114.0000 1.0000
17.1000 103.0000 1.0000
17.1200 124.0000 1.0000
17.1400 130.0000 1.0000
17.1600 126.0000 1.0000
17.1800 121.0000 1.0000
17.2000 138.0000 1.0000
17.2200 131.0000 1.0000
17.2400 122.0000 1.0000
17.2600 124.0000 1.0000
17.2800 130.0000 1.0000
17.3000 130.0000 1.0000
17.3200 138.0000 1.0000
17.3400 147.0000 1.0000
17.3600 161.0000 1.0000
17.3800 161.0000 1.0000
17.4000 149.0000 1.0000
17.4200 159.0000 1.0000
17.4400 164.0000 1.0000
17.4600 172.0000 1.0000
17.4800 175.0000 1.0000
17.5000 170.0000 1.0000
17.5200 153.0000 1.0000
17.5400 185.0000 1.0000
17.5600 190.0000 1.0000
17.5800 167.0000 1.0000
17.6000 170.0000 1.0000
17.6200 149.0000 1.0000
17.6400 142.0000 1.0000
17.6600 122.0000 1.0000
17.6800 121.0000 1.0000
17.7000 137.0000 1.0000
17.7200 118.0000 1.0000
17.7400 125.0000 1.0000
17.7600 134.0000 1.0000
17.7800 139.0000 1.0000
17.8000 132.0000 1.0000
17.8200 140.0000 1.0000
17.8400 111.0000 1.0000
17.8600 108.0000 1.0000
17.8800 125.0000 1.0000
17.9000 134.0000 1.0000
17.9200 117.0000 1.0000
17.9400 133.0000 1.0000
17.9600 113.0000 1.0000
17.9800 116.0000 1.0000
18.0000 117.0000 1.0000
18.0200 115.0000 1.0000
18.0400 118.0000 1.0000
18.0600 133.0000 1.0000
18.0800 124.0000 1.0000
18.1000 115.0000 1.0000
18.1200 121.0000 1.0000
18.1400 126.0000 1.0000
18.1600 136.0000 1.0000
18.1800 126.0000 1.0000
18.2000 126.0000 1.0000
18.2200 117.0000 1.0000
18.2400 124.0000 1.0000
18.2600 111.0000 1.0000
18.2800 114.0000 1.0000
18.3000 122.0000 1.0000
18.3200 123.0000 1.0000
18.3400 130.0000 1.0000
18.3600 119.0000 1.0000
18.3800 129.0000 1.0000
18.4000 143.0000 1.0000
18.4200 136.0000 1.0000
18.4400 154.0000 1.0000
18.4600 147.0000 1.0000
18.4800 154.0000 1.0000
18.5000 151.0000 1.0000
18.5200 139.0000 1.0000
18.5400 182.0000 1.0000
18.5600 175.0000 1.0000
18.5800 182.0000 1.0000
18.6000 155.0000 1.0000
18.6200 171.0000 1.0000
18.6400 167.0000 1.0000
18.6600 147.0000 1.0000
18.6800 146.0000 1.0000
18.7000 153.0000 1.0000
18.7200 141.0000 1.0000
18.7400 150.0000 1.0000
18.7600 151.0000 1.0000
18.7800 181.0000 1.0000
18.8000 168.0000 1.0000
18.8200 136.0000 1.0000
18.8400 160.0000 1.0000
18.8600 162.0000 1.0000
18.8800 166.0000 1.0000
18.9000 168.0000 1.0000
18.9200 154.0000 1.0000
18.9400 179.0000 1.0000
18.9600 164.0000 1.0000
18.9800 161.0000 1.0000
19.0000 162.0000 1.0000
19.0200 159.0000 1.0000
19.0400 181.0000 1.0000
19.0600 179.0000 1.0000
19.0800 169.0000 1.0000
19.1000 174.0000 1.0000
19.1200 176.0000 1.0000
19.1400 178.0000 1.0000
19.1600 171.0000 1.0000
19.1800 181.0000 1.0000
19.2000 172.0000 1.0000
19.2200 163.0000 1.0000
19.2400 149.0000 1.0000
19.2600 150.0000 1.0000
19.2800 153.0000 1.0000
19.3000 166.0000 1.0000
19.3200 154.0000 1.0000
19.3400 158.0000 1.0000
19.3600 164.0000 1.0000
19.3800 157.0000 1.0000
19.4000 166.0000 1.0000
19.4200 196.0000 1.0000
19.4400 174.0000 1.0000
19.4600 166.0000 1.0000
19.4800 207.0000 1.0000
19.5000 208.0000 1.0000
19.5200 173.0000 1.0000
19.5400 199.0000 1.0000
19.5600 233.0000 1.0000
19.5800 202.0000 1.0000
19.6000 215.0000 1.0000
19.6200 187.0000 1.0000
19.6400 202.0000 1.0000
19.6600 194.0000 1.0000
19.6800 193.0000 1.0000
19.7000 197.0000 1.0000
19.7200 189.0000 1.0000
19.7400 175.0000 1.0000
19.7600 165.0000 1.0000
19.7800 169.0000 1.0000
19.8000 189.0000 1.0000
19.8200 179.0000 1.0000
19.8400 158.0000 1.0000
19.8600 156.0000 1.0000
19.8800 154.0000 1.0000
19.9000 154.0000 1.0000
19.9200 166.0000 1.0000
19.9400 157.0000 1.0000
19.9600 142.0000 1.0000
19.9800 148.0000 1.0000
20.0000 160.0000 1.0000
20.0200 164.0000 1.0000
20.0400 163.0000 1.0000
20.0600 164.0000 1.0000
20.0800 173.0000 1.0000
20.1000 186.0000 1.0000
20.1200 175.0000 1.0000
20.1400 170.0000 1.0000
20.1600 188.0000 1.0000
20.1800 188.0000 1.0000
20.2000 205.0000 1.0000
20.2200 189.0000 1.0000
20.2400 189.0000 1.0000
20.2600 197.0000 1.0000
20.2800 241.0000 1.0000
20.3000 258.0000 1.0000
20.3200 257.0000 1.0000
20.3400 245.0000 1.0000
20.3600 291.0000 1.0000
20.3800 343.0000 1.0000
20.4000 324.0000 1.0000
20.4200 373.0000 1.0000
20.4400 388.0000 1.0000
20.4600 447.0000 1.0000
20.4800 478.0000 1.0000
20.5000 579.0000 1.0000
20.5200 716.0000 1.0000
20.5400 851.0000 1.0000
20.5600 1053.0000 1.0000
20.5800 1337.0000 1.0000
20.6000 1584.0000 1.0000
20.6200 1946.0000 1.0000
20.6400 2227.0000 1.0000
20.6600 2384.0000 1.0000
20.6800 2397.0000 1.0000
20.7000 2291.0000 1.0000
20.7200 1870.0000 1.0000
20.7400 1449.0000 1.0000
20.7600 1198.0000 1.0000
20.7800 984.0000 1.0000
20.8000 804.0000 1.0000
20.8200 668.0000 1.0000
20.8400 695.0000 1.0000
20.8600 604.0000 1.0000
20.8800 573.0000 1.0000
20.9000 514.0000 1.0000
20.9200 446.0000 1.0000
20.9400 348.0000 1.0000
20.9600 332.0000 1.0000
20.9800 264.0000 1.0000
21.0000 282.0000 1.0000
21.0200 259.0000 1.0000
21.0400 237.0000 1.0000
21.0600 259.0000 1.0000
21.0800 248.0000 1.0000
21.1000 226.0000 1.0000
21.1200 206.0000 1.0000
21.1400 236.0000 1.0000
21.1600 232.0000 1.0000
21.1800 216.0000 1.0000
21.2000 229.0000 1.0000
21.2200 240.0000 1.0000
21.2400 195.0000 1.0000
21.2600 202.0000 1.0000
21.2800 211.0000 1.0000
21.3000 220.0000 1.0000
21.3200 189.0000 1.0000
21.3400 172.0000 1.0000
21.3600 210.0000 1.0000
21.3800 200.0000 1.0000
21.4000 210.0000 1.0000
21.4200 201.0000 1.0000
21.4400 198.0000 1.0000
21.4600 209.0000 1.0000
21.4800 228.0000 1.0000
21.5000 223.0000 1.0000
21.5200 258.0000 1.0000
21.5400 241.0000 1.0000
21.5600 258.0000 1.0000
21.5800 256.0000 1.0000
21.6000 284.0000 1.0000
21.6200 316.0000 1.0000
21.6400 341.0000 1.0000
21.6600 409.0000 1.0000
21.6800 505.0000 1.0000
21.7000 612.0000 1.0000
21.7200 693.0000 1.0000
21.7400 757.0000 1.0000
21.7600 923.0000 1.0000
21.7800 1045.0000 1.0000
21.8000 1116.0000 1.0000
21.8200 1112.0000 1.0000
21.8400 1071.0000 1.0000
21.8600 956.0000 1.0000
21.8800 847.0000 1.0000
21.9000 674.0000 1.0000
21.9200 527.0000 1.0000
21.9400 414.0000 1.0000
21.9600 327.0000 1.0000
21.9800 287.0000 1.0000
22.0000 286.0000 1.0000
22.0200 260.0000 1.0000
22.0400 264.0000 1.0000
22.0600 283.0000 1.0000
22.0800 266.0000 1.0000
22.1000 251.0000 1.0000
22.1200 298.0000 1.0000
22.1400 336.0000 1.0000
22.1600 323.0000 1.0000
22.1800 298.0000 1.0000
22.2000 295.0000 1.0000
22.2200 264.0000 1.0000
22.2400 265.0000 1.0000
22.2600 235.0000 1.0000
22.2800 239.0000 1.0000
22.3000 250.0000 1.0000
22.3200 243.0000 1.0000
22.3400 228.0000 1.0000
22.3600 234.0000 1.0000
22.3800 223.0000 1.0000
22.4000 239.0000 1.0000
22.4200 211.0000 1.0000
22.4400 214.0000 1.0000
22.4600 230.0000 1.0000
22.4800 217.0000 1.0000
22.5000 217.0000 1.0000
22.5200 238.0000 1.0000
22.5400 217.0000 1.0000
22.5600 202.0000 1.0000
22.5800 218.0000 1.0000
22.6000 229.0000 1.0000
22.6200 246.0000 1.0000
22.6400 251.0000 1.0000
22.6600 289.0000 1.0000
22.6800 295.0000 1.0000
22.7000 345.0000 1.0000
22.7200 372.0000 1.0000
22.7400 377.0000 1.0000
22.7600 385.0000 1.0000
22.7800 414.0000 1.0000
22.8000 394.0000 1.0000
22.8200 383.0000 1.0000
22.8400 370.0000 1.0000
22.8600 356.0000 1.0000
22.8800 351.0000 1.0000
22.9000 369.0000 1.0000
22.9200 340.0000 1.0000
22.9400 354.0000 1.0000
22.9600 357.0000 1.0000
22.9800 351.0000 1.0000
23.0000 390.0000 1.0000
23.0200 348.0000 1.0000
23.0400 358.0000 1.0000
23.0600 364.0000 1.0000
23.0800 359.0000 1.0000
23.1000 373.0000 1.0000
23.1200 361.0000 1.0000
23.1400 347.0000 1.0000
23.1600 337.0000 1.0000
23.1800 329.0000 1.0000
23.2000 351.0000 1.0000
23.2200 382.0000 1.0000
23.2400 413.0000 1.0000
23.2600 425.0000 1.0000
23.2800 480.0000 1.0000
23.3000 547.0000 1.0000
23.3200 605.0000 1.0000
23.3400 646.0000 1.0000
23.3600 682.0000 1.0000
23.3800 806.0000 1.0000
23.4000 779.0000 1.0000
23.4200 776.0000 1.0000
23.4400 767.0000 1.0000
23.4600 712.0000 1.0000
23.4800 636.0000 1.0000
23.5000 561.0000 1.0000
23.5200 466.0000 1.0000
23.5400 434.0000 1.0000
23.5600 405.0000 1.0000
23.5800 394.0000 1.0000
23.6000 408.0000 1.0000
23.6200 490.0000 1.0000
23.6400 486.0000 1.0000
23.6600 526.0000 1.0000
23.6800 551.0000 1.0000
23.7000 584.0000 1.0000
23.7200 584.0000 1.0000
23.7400 620.0000 1.0000
23.7600 595.0000 1.0000
23.7800 617.0000 1.0000
23.8000 572.0000 1.0000
23.8200 582.0000 1.0000
23.8400 540.0000 1.0000
23.8600 513.0000 1.0000
23.8800 512.0000 1.0000
23.9000 527.0000 1.0000
23.9200 540.0000 1.0000
23.9400 535.0000 1.0000
23.9600 563.0000 1.0000
23.9800 602.0000 1.0000
24.0000 646.0000 1.0000
24.0200 688.0000 1.0000
24.0400 739.0000 1.0000
24.0600 797.0000 1.0000
24.0800 786.0000 1.0000
24.1000 821.0000 1.0000
24.1200 789.0000 1.0000
24.1400 740.0000 1.0000
24.1600 699.0000 1.0000
24.1800 618.0000 1.0000
24.2000 533.0000 1.0000
24.2200 477.0000 1.0000
24.2400 429.0000 1.0000
24.2600 379.0000 1.0000
24.2800 329.0000 1.0000
24.3000 296.0000 1.0000
24.3200 279.0000 1.0000
24.3400 269.0000 1.0000
24.3600 264.0000 1.0000
24.3800 257.0000 1.0000
24.4000 241.0000 1.0000
24.4200 240.0000 1.0000
24.4400 217.0000 1.0000
24.4600 238.0000 1.0000
24.4800 232.0000 1.0000
24.5000 245.0000 1.0000
24.5200 240.0000 1.0000
24.5400 250.0000 1.0000
24.5600 255.0000 1.0000
24.5800 239.0000 1.0000
24.6000 222.0000 1.0000
24.6200 243.0000 1.0000
24.6400 228.0000 1.0000
24.6600 238.0000 1.0000
24.6800 221.0000 1.0000
24.7000 215.0000 1.0000
24.7200 234.0000 1.0000
24.7400 232.0000 1.0000
24.7600 219.0000 1.0000
24.7800 217.0000 1.0000
24.8000 243.0000 1.0000
24.8200 254.0000 1.0000
24.8400 251.0000 1.0000
24.8600 256.0000 1.0000
24.8800 273.0000 1.0000
24.9000 286.0000 1.0000
24.9200 292.0000 1.0000
24.9400 291.0000 1.0000
24.9600 299.0000 1.0000
24.9800 315.0000 1.0000
25.0000 315.0000 1.0000
25.0200 308.0000 1.0000
25.0400 306.0000 1.0000
25.0600 352.0000 1.0000
25.0800 362.0000 1.0000
25.1000 359.0000 1.0000
25.1200 380.0000 1.0000
25.1400 419.0000 1.0000
25.1600 484.0000 1.0000
25.1800 512.0000 1.0000
25.2000 572.0000 1.0000
25.2200 661.0000 1.0000
25.2400 768.0000 1.0000
25.2600 900.0000 1.0000
25.2800 1079.0000 1.0000
25.3000 1260.0000 1.0000
25.3200 1427.0000 1.0000
25.3400 1671.0000 1.0000
25.3600 1850.0000 1.0000
25.3800 1902.0000 1.0000
25.4000 1828.0000 1.0000
25.4200 1668.0000 1.0000
25.4400 1508.0000 1.0000
25.4600 1263.0000 1.0000
25.4800 1019.0000 1.0000
25.5000 828.0000 1.0000
25.5200 692.0000 1.0000
25.5400 610.0000 1.0000
25.5600 499.0000 1.0000
25.5800 395.0000 1.0000
25.6000 339.0000 1.0000
25.6200 319.0000 1.0000
25.6400 309.0000 1.0000
25.6600 324.0000 1.0000
25.6800 332.0000 1.0000
25.7000 326.0000 1.0000
25.7200 301.0000 1.0000
25.7400 270.0000 1.0000
25.7600 272.0000 1.0000
25.7800 274.0000 1.0000
25.8000 282.0000 1.0000
25.8200 295.0000 1.0000
25.8400 319.0000 1.0000
25.8600 336.0000 1.0000
25.8800 338.0000 1.0000
25.9000 351.0000 1.0000
25.9200 377.0000 1.0000
25.9400 386.0000 1.0000
25.9600 400.0000 1.0000
25.9800 458.0000 1.0000
26.0000 492.0000 1.0000
26.0200 509.0000 1.0000
26.0400 547.0000 1.0000
26.0600 624.0000 1.0000
26.0800 711.0000 1.0000
26.1000 774.0000 1.0000
26.1200 865.0000 1.0000
26.1400 940.0000 1.0000
26.1600 1066.0000 1.0000
26.1800 1209.0000 1.0000
26.2000 1391.0000 1.0000
26.2200 1622.0000 1.0000
26.2400 1882.0000 1.0000
26.2600 2166.0000 1.0000
26.2800 2578.0000 1.0000
26.3000 3041.0000 1.0000
26.3200 3673.0000 1.0000
26.3400 4523.0000 1.0000
26.3600 5633.0000 1.0000
26.3800 7140.0000 1.0000
26.4000 8713.0000 1.0000
26.4200 10020.0000 1.0000
26.4400 10723.0000 1.0000
26.4600 10598.0000 1.0000
26.4800 9768.0000 1.0000
26.5000 8288.0000 1.0000
26.5200 6517.0000 1.0000
26.5400 4847.0000 1.0000
26.5600 3499.0000 1.0000
26.5800 2518.0000 1.0000
26.6000 1791.0000 1.0000
26.6200 1295.0000 1.0000
26.6400 1066.0000 1.0000
26.6600 971.0000 1.0000
26.6800 898.0000 1.0000
26.7000 822.0000 1.0000
26.7200 796.0000 1.0000
26.7400 758.0000 1.0000
26.7600 759.0000 1.0000
26.7800 785.0000 1.0000
26.8000 854.0000 1.0000
26.8200 904.0000 1.0000
26.8400 909.0000 1.0000
26.8600 940.0000 1.0000
26.8800 952.0000 1.0000
26.9000 895.0000 1.0000
26.9200 828.0000 1.0000
26.9400 787.0000 1.0000
26.9600 728.0000 1.0000
26.9800 693.0000 1.0000
27.0000 663.0000 1.0000
27.0200 656.0000 1.0000
27.0400 670.0000 1.0000
27.0600 640.0000 1.0000
27.0800 650.0000 1.0000
27.1000 706.0000 1.0000
27.1200 767.0000 1.0000
27.1400 856.0000 1.0000
27.1600 945.0000 1.0000
27.1800 1064.0000 1.0000
27.2000 1203.0000 1.0000
27.2200 1375.0000 1.0000
27.2400 1586.0000 1.0000
27.2600 1758.0000 1.0000
27.2800 1823.0000 1.0000
27.3000 1806.0000 1.0000
27.3200 1768.0000 1.0000
27.3400 1672.0000 1.0000
27.3600 1504.0000 1.0000
27.3800 1327.0000 1.0000
27.4000 1194.0000 1.0000
27.4200 1103.0000 1.0000
27.4400 1045.0000 1.0000
27.4600 1049.0000 1.0000
27.4800 1104.0000 1.0000
27.5000 1235.0000 1.0000
27.5200 1416.0000 1.0000
27.5400 1613.0000 1.0000
27.5600 1771.0000 1.0000
27.5800 1945.0000 1.0000
27.6000 2141.0000 1.0000
27.6200 2201.0000 1.0000
27.6400 2277.0000 1.0000
27.6600 2353.0000 1.0000
27.6800 2439.0000 1.0000
27.7000 2544.0000 1.0000
27.7200 2621.0000 1.0000
27.7400 2709.0000 1.0000
27.7600 2766.0000 1.0000
27.7800 2729.0000 1.0000
27.8000 2583.0000 1.0000
27.8200 2446.0000 1.0000
27.8400 2196.0000 1.0000
27.8600 1829.0000 1.0000
27.8800 1510.0000 1.0000
27.9000 1274.0000 1.0000
27.9200 1077.0000 1.0000
27.9400 921.0000 1.0000
27.9600 796.0000 1.0000
27.9800 727.0000 1.0000
28.0000 712.0000 1.0000
28.0200 722.0000 1.0000
28.0400 726.0000 1.0000
28.0600 712.0000 1.0000
28.0800 713.0000 1.0000
28.1000 701.0000 1.0000
28.1200 690.0000 1.0000
28.1400 665.0000 1.0000
28.1600 596.0000 1.0000
28.1800 545.0000 1.0000
28.2000 496.0000 1.0000
28.2200 399.0000 1.0000
28.2400 342.0000 1.0000
28.2600 286.0000 1.0000
28.2800 260.0000 1.0000
28.3000 238.0000 1.0000
28.3200 212.0000 1.0000
28.3400 203.0000 1.0000
28.3600 195.0000 1.0000
28.3800 186.0000 1.0000
28.4000 173.0000 1.0000
28.4200 169.0000 1.0000
28.4400 173.0000 1.0000
28.4600 163.0000 1.0000
28.4800 154.0000 1.0000
28.5000 166.0000 1.0000
28.5200 178.0000 1.0000
28.5400 178.0000 1.0000
28.5600 179.0000 1.0000
28.5800 164.0000 1.0000
28.6000 165.0000 1.0000
28.6200 178.0000 1.0000
28.6400 174.0000 1.0000
28.6600 180.0000 1.0000
28.6800 181.0000 1.0000
28.7000 174.0000 1.0000
28.7200 177.0000 1.0000
28.7400 182.0000 1.0000
28.7600 178.0000 1.0000
28.7800 181.0000 1.0000
28.8000 183.0000 1.0000
28.8200 204.0000 1.0000
28.8400 203.0000 1.0000
28.8600 199.0000 1.0000
28.8800 203.0000 1.0000
28.9000 211.0000 1.0000
28.9200 216.0000 1.0000
28.9400 217.0000 1.0000
28.9600 199.0000 1.0000
28.9800 207.0000 1.0000
29.0000 194.0000 1.0000
29.0200 188.0000 1.0000
29.0400 210.0000 1.0000
29.0600 198.0000 1.0000
29.0800 187.0000 1.0000
29.1000 209.0000 1.0000
29.1200 212.0000 1.0000
29.1400 227.0000 1.0000
29.1600 229.0000 1.0000
29.1800 261.0000 1.0000
29.2000 276.0000 1.0000
29.2200 262.0000 1.0000
29.2400 288.0000 1.0000
29.2600 328.0000 1.0000
29.2800 322.0000 1.0000
29.3000 320.0000 1.0000
29.3200 317.0000 1.0000
29.3400 298.0000 1.0000
29.3600 277.0000 1.0000
29.3800 294.0000 1.0000
29.4000 291.0000 1.0000
29.4200 279.0000 1.0000
29.4400 277.0000 1.0000
29.4600 293.0000 1.0000
29.4800 312.0000 1.0000
29.5000 319.0000 1.0000
29.5200 344.0000 1.0000
29.5400 375.0000 1.0000
29.5600 379.0000 1.0000
29.5800 388.0000 1.0000
29.6000 390.0000 1.0000
29.6200 399.0000 1.0000
29.6400 416.0000 1.0000
29.6600 395.0000 1.0000
29.6800 373.0000 1.0000
29.7000 382.0000 1.0000
29.7200 389.0000 1.0000
29.7400 364.0000 1.0000
29.7600 369.0000 1.0000
29.7800 381.0000 1.0000
29.8000 388.0000 1.0000
29.8200 382.0000 1.0000
29.8400 399.0000 1.0000
29.8600 408.0000 1.0000
29.8800 420.0000 1.0000
29.9000 454.0000 1.0000
29.9200 440.0000 1.0000
29.9400 439.0000 1.0000
29.9600 444.0000 1.0000
29.9800 437.0000 1.0000
30.0000 451.0000 1.0000
30.0200 483.0000 1.0000
30.0400 502.0000 1.0000
30.0600 499.0000 1.0000
30.0800 522.0000 1.0000
30.1000 519.0000 1.0000
30.1200 527.0000 1.0000
30.1400 541.0000 1.0000
30.1600 566.0000 1.0000
30.1800 573.0000 1.0000
30.2000 604.0000 1.0000
30.2200 633.0000 1.0000
30.2400 634.0000 1.0000
30.2600 627.0000 1.0000
30.2800 591.0000 1.0000
30.3000 590.0000 1.0000
30.3200 565.0000 1.0000
30.3400 541.0000 1.0000
30.3600 497.0000 1.0000
30.3800 390.0000 1.0000
30.4000 358.0000 1.0000
30.4200 340.0000 1.0000
30.4400 310.0000 1.0000
30.4600 324.0000 1.0000
30.4800 331.0000 1.0000
30.5000 344.0000 1.0000
30.5200 349.0000 1.0000
30.5400 370.0000 1.0000
30.5600 395.0000 1.0000
30.5800 395.0000 1.0000
30.6000 398.0000 1.0000
30.6200 388.0000 1.0000
30.6400 408.0000 1.0000
30.6600 384.0000 1.0000
30.6800 352.0000 1.0000
30.7000 350.0000 1.0000
30.7200 303.0000 1.0000
30.7400 286.0000 1.0000
30.7600 284.0000 1.0000
30.7800 246.0000 1.0000
30.8000 240.0000 1.0000
30.8200 232.0000 1.0000
30.8400 218.0000 1.0000
30.8600 201.0000 1.0000
30.8800 182.0000 1.0000
30.9000 182.0000 1.0000
30.9200 175.0000 1.0000
30.9400 184.0000 1.0000
30.9600 185.0000 1.0000
30.9800 199.0000 1.0000
31.0000 204.0000 1.0000
31.0200 214.0000 1.0000
31.0400 227.0000 1.0000
31.0600 252.0000 1.0000
31.0800 249.0000 1.0000
31.1000 284.0000 1.0000
31.1200 298.0000 1.0000
31.1400 296.0000 1.0000
31.1600 297.0000 1.0000
31.1800 303.0000 1.0000
31.2000 310.0000 1.0000
31.2200 291.0000 1.0000
31.2400 274.0000 1.0000
31.2600 255.0000 1.0000
31.2800 251.0000 1.0000
31.3000 250.0000 1.0000
31.3200 224.0000 1.0000
31.3400 236.0000 1.0000
31.3600 231.0000 1.0000
31.3800 200.0000 1.0000
31.4000 197.0000 1.0000
31.4200 211.0000 1.0000
31.4400 184.0000 1.0000
31.4600 175.0000 1.0000
31.4800 171.0000 1.0000
31.5000 153.0000 1.0000
31.5200 139.0000 1.0000
31.5400 140.0000 1.0000
31.5600 175.0000 1.0000
31.5800 162.0000 1.0000
31.6000 148.0000 1.0000
31.6200 170.0000 1.0000
31.6400 171.0000 1.0000
31.6600 176.0000 1.0000
31.6800 190.0000 1.0000
31.7000 194.0000 1.0000
31.7200 175.0000 1.0000
31.7400 183.0000 1.0000
31.7600 183.0000 1.0000
31.7800 164.0000 1.0000
31.8000 166.0000 1.0000
31.8200 167.0000 1.0000
31.8400 172.0000 1.0000
31.8600 155.0000 1.0000
31.8800 145.0000 1.0000
31.9000 165.0000 1.0000
31.9200 172.0000 1.0000
31.9400 191.0000 1.0000
31.9600 186.0000 1.0000
31.9800 209.0000 1.0000
32.0000 207.0000 1.0000
32.0200 216.0000 1.0000
32.0400 215.0000 1.0000
32.0600 214.0000 1.0000
32.0800 192.0000 1.0000
32.1000 203.0000 1.0000
32.1200 209.0000 1.0000
32.1400 206.0000 1.0000
32.1600 210.0000 1.0000
32.1800 193.0000 1.0000
32.2000 199.0000 1.0000
32.2200 179.0000 1.0000
32.2400 188.0000 1.0000
32.2600 197.0000 1.0000
32.2800 197.0000 1.0000
32.3000 178.0000 1.0000
32.3200 170.0000 1.0000
32.3400 165.0000 1.0000
32.3600 143.0000 1.0000
32.3800 150.0000 1.0000
32.4000 135.0000 1.0000
32.4200 146.0000 1.0000
32.4400 126.0000 1.0000
32.4600 113.0000 1.0000
32.4800 116.0000 1.0000
32.5000 125.0000 1.0000
32.5200 110.0000 1.0000
32.5400 105.0000 1.0000
32.5600 121.0000 1.0000
32.5800 105.0000 1.0000
32.6000 135.0000 1.0000
32.6200 103.0000 1.0000
32.6400 112.0000 1.0000
32.6600 104.0000 1.0000
32.6800 109.0000 1.0000
32.7000 119.0000 1.0000
32.7200 112.0000 1.0000
32.7400 131.0000 1.0000
32.7600 117.0000 1.0000
32.7800 121.0000 1.0000
32.8000 121.0000 1.0000
32.8200 138.0000 1.0000
32.8400 126.0000 1.0000
32.8600 122.0000 1.0000
32.8800 127.0000 1.0000
32.9000 126.0000 1.0000
32.9200 135.0000 1.0000
32.9400 129.0000 1.0000
32.9600 116.0000 1.0000
32.9800 113.0000 1.0000
33.0000 121.0000 1.0000
33.0200 128.0000 1.0000
33.0400 129.0000 1.0000
33.0600 110.0000 1.0000
33.0800 117.0000 1.0000
33.1000 115.0000 1.0000
33.1200 117.0000 1.0000
33.1400 118.0000 1.0000
33.1600 135.0000 1.0000
33.1800 109.0000 1.0000
33.2000 118.0000 1.0000
33.2200 120.0000 1.0000
33.2400 109.0000 1.0000
33.2600 123.0000 1.0000
33.2800 111.0000 1.0000
33.3000 119.0000 1.0000
33.3200 126.0000 1.0000
33.3400 116.0000 1.0000
33.3600 135.0000 1.0000
33.3800 138.0000 1.0000
33.4000 128.0000 1.0000
33.4200 141.0000 1.0000
33.4400 142.0000 1.0000
33.4600 142.0000 1.0000
33.4800 142.0000 1.0000
33.5000 155.0000 1.0000
33.5200 152.0000 1.0000
33.5400 174.0000 1.0000
33.5600 187.0000 1.0000
33.5800 207.0000 1.0000
33.6000 194.0000 1.0000
33.6200 227.0000 1.0000
33.6400 243.0000 1.0000
33.6600 227.0000 1.0000
33.6800 250.0000 1.0000
33.7000 253.0000 1.0000
33.7200 254.0000 1.0000
33.7400 256.0000 1.0000
33.7600 229.0000 1.0000
33.7800 260.0000 1.0000
33.8000 237.0000 1.0000
33.8200 250.0000 1.0000
33.8400 218.0000 1.0000
33.8600 244.0000 1.0000
33.8800 249.0000 1.0000
33.9000 245.0000 1.0000
33.9200 230.0000 1.0000
33.9400 241.0000 1.0000
33.9600 230.0000 1.0000
33.9800 285.0000 1.0000
34.0000 273.0000 1.0000
34.0200 279.0000 1.0000
34.0400 281.0000 1.0000
34.0600 295.0000 1.0000
34.0800 268.0000 1.0000
34.1000 288.0000 1.0000
34.1200 272.0000 1.0000
34.1400 267.0000 1.0000
34.1600 262.0000 1.0000
34.1800 272.0000 1.0000
34.2000 240.0000 1.0000
34.2200 277.0000 1.0000
34.2400 248.0000 1.0000
34.2600 283.0000 1.0000
34.2800 295.0000 1.0000
34.3000 301.0000 1.0000
34.3200 232.0000 1.0000
34.3400 265.0000 1.0000
34.3600 282.0000 1.0000
34.3800 259.0000 1.0000
34.4000 289.0000 1.0000
34.4200 271.0000 1.0000
34.4400 308.0000 1.0000
34.4600 302.0000 1.0000
34.4800 287.0000 1.0000
34.5000 295.0000 1.0000
34.5200 277.0000 1.0000
34.5400 280.0000 1.0000
34.5600 334.0000 1.0000
34.5800 326.0000 1.0000
34.6000 323.0000 1.0000
34.6200 325.0000 1.0000
34.6400 359.0000 1.0000
34.6600 361.0000 1.0000
34.6800 391.0000 1.0000
34.7000 383.0000 1.0000
34.7200 453.0000 1.0000
34.7400 458.0000 1.0000
34.7600 497.0000 1.0000
34.7800 589.0000 1.0000
34.8000 638.0000 1.0000
34.8200 737.0000 1.0000
34.8400 850.0000 1.0000
34.8600 1060.0000 1.0000
34.8800 1269.0000 1.0000
34.9000 1489.0000 1.0000
34.9200 1696.0000 1.0000
34.9400 1896.0000 1.0000
34.9600 1959.0000 1.0000
34.9800 1910.0000 1.0000
35.0000 1804.0000 1.0000
35.0200 1631.0000 1.0000
35.0400 1440.0000 1.0000
35.0600 1206.0000 1.0000
35.0800 1027.0000 1.0000
35.1000 950.0000 1.0000
35.1200 723.0000 1.0000
35.1400 667.0000 1.0000
35.1600 578.0000 1.0000
35.1800 503.0000 1.0000
35.2000 485.0000 1.0000
35.2200 435.0000 1.0000
35.2400 437.0000 1.0000
35.2600 369.0000 1.0000
35.2800 378.0000 1.0000
35.3000 388.0000 1.0000
35.3200 321.0000 1.0000
35.3400 357.0000 1.0000
35.3600 337.0000 1.0000
35.3800 312.0000 1.0000
35.4000 318.0000 1.0000
35.4200 312.0000 1.0000
35.4400 309.0000 1.0000
35.4600 291.0000 1.0000
35.4800 295.0000 1.0000
35.5000 259.0000 1.0000
35.5200 243.0000 1.0000
35.5400 245.0000 1.0000
35.5600 233.0000 1.0000
35.5800 236.0000 1.0000
35.6000 214.0000 1.0000
35.6200 203.0000 1.0000
35.6400 205.0000 1.0000
35.6600 192.0000 1.0000
35.6800 213.0000 1.0000
35.7000 193.0000 1.0000
35.7200 225.0000 1.0000
35.7400 180.0000 1.0000
35.7600 193.0000 1.0000
35.7800 210.0000 1.0000
35.8000 215.0000 1.0000
35.8200 208.0000 1.0000
35.8400 182.0000 1.0000
35.8600 182.0000 1.0000
35.8800 208.0000 1.0000
35.9000 230.0000 1.0000
35.9200 217.0000 1.0000
35.9400 224.0000 1.0000
35.9600 249.0000 1.0000
35.9800 236.0000 1.0000
36.0000 222.0000 1.0000
36.0200 243.0000 1.0000
36.0400 215.0000 1.0000
36.0600 230.0000 1.0000
36.0800 221.0000 1.0000
36.1000 229.0000 1.0000
36.1200 226.0000 1.0000
36.1400 220.0000 1.0000
36.1600 272.0000 1.0000
36.1800 257.0000 1.0000
36.2000 300.0000 1.0000
36.2200 344.0000 1.0000
36.2400 382.0000 1.0000
36.2600 472.0000 1.0000
36.2800 555.0000 1.0000
36.3000 719.0000 1.0000
36.3200 770.0000 1.0000
36.3400 895.0000 1.0000
36.3600 896.0000 1.0000
36.3800 911.0000 1.0000
36.4000 882.0000 1.0000
36.4200 812.0000 1.0000
36.4400 760.0000 1.0000
36.4600 618.0000 1.0000
36.4800 575.0000 1.0000
36.5000 496.0000 1.0000
36.5200 416.0000 1.0000
36.5400 380.0000 1.0000
36.5600 318.0000 1.0000
36.5800 283.0000 1.0000
36.6000 275.0000 1.0000
36.6200 277.0000 1.0000
36.6400 270.0000 1.0000
36.6600 269.0000 1.0000
36.6800 268.0000 1.0000
36.7000 251.0000 1.0000
36.7200 256.0000 1.0000
36.7400 263.0000 1.0000
36.7600 273.0000 1.0000
36.7800 258.0000 1.0000
36.8000 255.0000 1.0000
36.8200 292.0000 1.0000
36.8400 287.0000 1.0000
36.8600 280.0000 1.0000
36.8800 261.0000 1.0000
36.9000 249.0000 1.0000
36.9200 237.0000 1.0000
36.9400 231.0000 1.0000
36.9600 229.0000 1.0000
36.9800 228.0000 1.0000
37.0000 217.0000 1.0000
37.0200 219.0000 1.0000
37.0400 211.0000 1.0000
37.0600 204.0000 1.0000
37.0800 219.0000 1.0000
37.1000 219.0000 1.0000
37.1200 201.0000 1.0000
37.1400 203.0000 1.0000
37.1600 226.0000 1.0000
37.1800 211.0000 1.0000
37.2000 207.0000 1.0000
37.2200 227.0000 1.0000
37.2400 229.0000 1.0000
37.2600 248.0000 1.0000
37.2800 226.0000 1.0000
37.3000 272.0000 1.0000
37.3200 259.0000 1.0000
37.3400 278.0000 1.0000
37.3600 282.0000 1.0000
37.3800 296.0000 1.0000
37.4000 306.0000 1.0000
37.4200 356.0000 1.0000
37.4400 385.0000 1.0000
37.4600 388.0000 1.0000
37.4800 481.0000 1.0000
37.5000 562.0000 1.0000
37.5200 631.0000 1.0000
37.5400 738.0000 1.0000
37.5600 812.0000 1.0000
37.5800 860.0000 1.0000
37.6000 819.0000 1.0000
37.6200 796.0000 1.0000
37.6400 705.0000 1.0000
37.6600 602.0000 1.0000
37.6800 516.0000 1.0000
37.7000 461.0000 1.0000
37.7200 445.0000 1.0000
37.7400 333.0000 1.0000
37.7600 259.0000 1.0000
37.7800 210.0000 1.0000
37.8000 176.0000 1.0000
37.8200 163.0000 1.0000
37.8400 152.0000 1.0000
37.8600 163.0000 1.0000
37.8800 157.0000 1.0000
37.9000 156.0000 1.0000
37.9200 147.0000 1.0000
37.9400 155.0000 1.0000
37.9600 164.0000 1.0000
37.9800 149.0000 1.0000
38.0000 148.0000 1.0000
38.0200 133.0000 1.0000
38.0400 135.0000 1.0000
38.0600 129.0000 1.0000
38.0800 136.0000 1.0000
38.1000 137.0000 1.0000
38.1200 136.0000 1.0000
38.1400 135.0000 1.0000
38.1600 132.0000 1.0000
38.1800 153.0000 1.0000
38.2000 151.0000 1.0000
38.2200 161.0000 1.0000
38.2400 168.0000 1.0000
38.2600 186.0000 1.0000
38.2800 179.0000 1.0000
38.3000 161.0000 1.0000
38.3200 164.0000 1.0000
38.3400 175.0000 1.0000
38.3600 188.0000 1.0000
38.3800 196.0000 1.0000
38.4000 179.0000 1.0000
38.4200 181.0000 1.0000
38.4400 191.0000 1.0000
38.4600 201.0000 1.0000
38.4800 192.0000 1.0000
38.5000 167.0000 1.0000
38.5200 172.0000 1.0000
38.5400 161.0000 1.0000
38.5600 156.0000 1.0000
38.5800 158.0000 1.0000
38.6000 171.0000 1.0000
38.6200 183.0000 1.0000
38.6400 177.0000 1.0000
38.6600 163.0000 1.0000
38.6800 166.0000 1.0000
38.7000 169.0000 1.0000
38.7200 167.0000 1.0000
38.7400 161.0000 1.0000
38.7600 156.0000 1.0000
38.7800 151.0000 1.0000
38.8000 158.0000 1.0000
38.8200 168.0000 1.0000
38.8400 165.0000 1.0000
38.8600 168.0000 1.0000
38.8800 172.0000 1.0000
38.9000 187.0000 1.0000
38.9200 199.0000 1.0000
38.9400 199.0000 1.0000
38.9600 167.0000 1.0000
38.9800 185.0000 1.0000
39.0000 201.0000 1.0000
39.0200 181.0000 1.0000
39.0400 181.0000 1.0000
39.0600 203.0000 1.0000
39.0800 211.0000 1.0000
39.1000 229.0000 1.0000
39.1200 239.0000 1.0000
39.1400 261.0000 1.0000
39.1600 320.0000 1.0000
39.1800 390.0000 1.0000
39.2000 449.0000 1.0000
39.2200 548.0000 1.0000
39.2400 652.0000 1.0000
39.2600 706.0000 1.0000
39.2800 712.0000 1.0000
39.3000 713.0000 1.0000
39.3200 687.0000 1.0000
39.3400 658.0000 1.0000
39.3600 617.0000 1.0000
39.3800 519.0000 1.0000
39.4000 446.0000 1.0000
39.4200 408.0000 1.0000
39.4400 362.0000 1.0000
39.4600 326.0000 1.0000
39.4800 265.0000 1.0000
39.5000 222.0000 1.0000
39.5200 211.0000 1.0000
39.5400 203.0000 1.0000
39.5600 175.0000 1.0000
39.5800 164.0000 1.0000
39.6000 176.0000 1.0000
39.6200 164.0000 1.0000
39.6400 161.0000 1.0000
39.6600 154.0000 1.0000
39.6800 167.0000 1.0000
39.7000 153.0000 1.0000
39.7200 147.0000 1.0000
39.7400 168.0000 1.0000
39.7600 154.0000 1.0000
39.7800 140.0000 1.0000
39.8000 146.0000 1.0000
39.8200 143.0000 1.0000
39.8400 146.0000 1.0000
39.8600 151.0000 1.0000
39.8800 157.0000 1.0000
39.9000 161.0000 1.0000
39.9200 167.0000 1.0000
39.9400 177.0000 1.0000
39.9600 201.0000 1.0000
39.9800 223.0000 1.0000
40.0000 244.0000 1.0000
40.0200 275.0000 1.0000
40.0400 323.0000 1.0000
40.0600 389.0000 1.0000
40.0800 414.0000 1.0000
40.1000 435.0000 1.0000
40.1200 462.0000 1.0000
40.1400 432.0000 1.0000
40.1600 394.0000 1.0000
40.1800 359.0000 1.0000
40.2000 325.0000 1.0000
40.2200 304.0000 1.0000
40.2400 252.0000 1.0000
40.2600 212.0000 1.0000
40.2800 188.0000 1.0000
40.3000 176.0000 1.0000
40.3200 155.0000 1.0000
40.3400 132.0000 1.0000
40.3600 137.0000 1.0000
40.3800 137.0000 1.0000
40.4000 133.0000 1.0000
40.4200 138.0000 1.0000
40.4400 142.0000 1.0000
40.4600 132.0000 1.0000
40.4800 136.0000 1.0000
40.5000 141.0000 1.0000
40.5200 137.0000 1.0000
40.5400 155.0000 1.0000
40.5600 158.0000 1.0000
40.5800 144.0000 1.0000
40.6000 158.0000 1.0000
40.6200 157.0000 1.0000
40.6400 140.0000 1.0000
40.6600 148.0000 1.0000
40.6800 154.0000 1.0000
40.7000 143.0000 1.0000
40.7200 144.0000 1.0000
40.7400 150.0000 1.0000
40.7600 143.0000 1.0000
40.7800 133.0000 1.0000
40.8000 133.0000 1.0000
40.8200 144.0000 1.0000
40.8400 143.0000 1.0000
40.8600 129.0000 1.0000
40.8800 133.0000 1.0000
40.9000 131.0000 1.0000
40.9200 132.0000 1.0000
40.9400 144.0000 1.0000
40.9600 131.0000 1.0000
40.9800 136.0000 1.0000
41.0000 153.0000 1.0000
41.0200 157.0000 1.0000
41.0400 157.0000 1.0000
41.0600 173.0000 1.0000
41.0800 173.0000 1.0000
41.1000 156.0000 1.0000
41.1200 160.0000 1.0000
41.1400 162.0000 1.0000
41.1600 161.0000 1.0000
41.1800 150.0000 1.0000
41.2000 151.0000 1.0000
41.2200 145.0000 1.0000
41.2400 134.0000 1.0000
41.2600 151.0000 1.0000
41.2800 154.0000 1.0000
41.3000 147.0000 1.0000
41.3200 147.0000 1.0000
41.3400 136.0000 1.0000
41.3600 140.0000 1.0000
41.3800 154.0000 1.0000
41.4000 159.0000 1.0000
41.4200 172.0000 1.0000
41.4400 199.0000 1.0000
41.4600 195.0000 1.0000
41.4800 215.0000 1.0000
41.5000 244.0000 1.0000
41.5200 256.0000 1.0000
41.5400 277.0000 1.0000
41.5600 300.0000 1.0000
41.5800 324.0000 1.0000
41.6000 376.0000 1.0000
41.6200 380.0000 1.0000
41.6400 372.0000 1.0000
41.6600 371.0000 1.0000
41.6800 339.0000 1.0000
41.7000 323.0000 1.0000
41.7200 305.0000 1.0000
41.7400 280.0000 1.0000
41.7600 265.0000 1.0000
41.7800 228.0000 1.0000
41.8000 208.0000 1.0000
41.8200 211.0000 1.0000
41.8400 205.0000 1.0000
41.8600 186.0000 1.0000
41.8800 187.0000 1.0000
41.9000 191.0000 1.0000
41.9200 184.0000 1.0000
41.9400 185.0000 1.0000
41.9600 209.0000 1.0000
41.9800 203.0000 1.0000
42.0000 215.0000 1.0000
42.0200 219.0000 1.0000
42.0400 225.0000 1.0000
42.0600 257.0000 1.0000
42.0800 275.0000 1.0000
42.1000 281.0000 1.0000
42.1200 305.0000 1.0000
42.1400 381.0000 1.0000
42.1600 411.0000 1.0000
42.1800 424.0000 1.0000
42.2000 532.0000 1.0000
42.2200 575.0000 1.0000
42.2400 623.0000 1.0000
42.2600 654.0000 1.0000
42.2800 685.0000 1.0000
42.3000 649.0000 1.0000
42.3200 621.0000 1.0000
42.3400 560.0000 1.0000
42.3600 521.0000 1.0000
42.3800 458.0000 1.0000
42.4000 415.0000 1.0000
42.4200 382.0000 1.0000
42.4400 311.0000 1.0000
42.4600 282.0000 1.0000
42.4800 268.0000 1.0000
42.5000 242.0000 1.0000
42.5200 220.0000 1.0000
42.5400 235.0000 1.0000
42.5600 243.0000 1.0000
42.5800 254.0000 1.0000
42.6000 243.0000 1.0000
42.6200 273.0000 1.0000
42.6400 265.0000 1.0000
42.6600 286.0000 1.0000
42.6800 274.0000 1.0000
42.7000 280.0000 1.0000
42.7200 297.0000 1.0000
42.7400 284.0000 1.0000
42.7600 280.0000 1.0000
42.7800 264.0000 1.0000
42.8000 253.0000 1.0000
42.8200 252.0000 1.0000
42.8400 265.0000 1.0000
42.8600 289.0000 1.0000
42.8800 255.0000 1.0000
42.9000 271.0000 1.0000
42.9200 289.0000 1.0000
42.9400 287.0000 1.0000
42.9600 328.0000 1.0000
42.9800 360.0000 1.0000
43.0000 413.0000 1.0000
43.0200 511.0000 1.0000
43.0400 610.0000 1.0000
43.0600 712.0000 1.0000
43.0800 914.0000 1.0000
43.1000 1122.0000 1.0000
43.1200 1342.0000 1.0000
43.1400 1639.0000 1.0000
43.1600 1779.0000 1.0000
43.1800 1823.0000 1.0000
43.2000 1719.0000 1.0000
43.2200 1628.0000 1.0000
43.2400 1423.0000 1.0000
43.2600 1242.0000 1.0000
43.2800 1092.0000 1.0000
43.3000 1001.0000 1.0000
43.3200 869.0000 1.0000
43.3400 694.0000 1.0000
43.3600 571.0000 1.0000
43.3800 467.0000 1.0000
43.4000 365.0000 1.0000
43.4200 315.0000 1.0000
43.4400 256.0000 1.0000
43.4600 235.0000 1.0000
43.4800 209.0000 1.0000
43.5000 199.0000 1.0000
43.5200 202.0000 1.0000
43.5400 171.0000 1.0000
43.5600 180.0000 1.0000
43.5800 193.0000 1.0000
43.6000 188.0000 1.0000
43.6200 146.0000 1.0000
43.6400 150.0000 1.0000
43.6600 143.0000 1.0000
43.6800 150.0000 1.0000
43.7000 161.0000 1.0000
43.7200 148.0000 1.0000
43.7400 144.0000 1.0000
43.7600 138.0000 1.0000
43.7800 137.0000 1.0000
43.8000 133.0000 1.0000
43.8200 137.0000 1.0000
43.8400 143.0000 1.0000
43.8600 129.0000 1.0000
43.8800 156.0000 1.0000
43.9000 142.0000 1.0000
43.9200 140.0000 1.0000
43.9400 156.0000 1.0000
43.9600 160.0000 1.0000
43.9800 152.0000 1.0000
44.0000 148.0000 1.0000
44.0200 139.0000 1.0000
44.0400 133.0000 1.0000
44.0600 135.0000 1.0000
44.0800 160.0000 1.0000
44.1000 148.0000 1.0000
44.1200 137.0000 1.0000
44.1400 122.0000 1.0000
44.1600 123.0000 1.0000
44.1800 125.0000 1.0000
44.2000 121.0000 1.0000
44.2200 111.0000 1.0000
44.2400 111.0000 1.0000
44.2600 115.0000 1.0000
44.2800 111.0000 1.0000
44.3000 121.0000 1.0000
44.3200 129.0000 1.0000
44.3400 133.0000 1.0000
44.3600 143.0000 1.0000
44.3800 145.0000 1.0000
44.4000 102.0000 1.0000
44.4200 141.0000 1.0000
44.4400 127.0000 1.0000
44.4600 145.0000 1.0000
44.4800 140.0000 1.0000
44.5000 141.0000 1.0000
44.5200 158.0000 1.0000
44.5400 119.0000 1.0000
44.5600 129.0000 1.0000
44.5800 123.0000 1.0000
44.6000 145.0000 1.0000
44.6200 134.0000 1.0000
44.6400 146.0000 1.0000
44.6600 112.0000 1.0000
44.6800 151.0000 1.0000
44.7000 147.0000 1.0000
44.7200 146.0000 1.0000
44.7400 166.0000 1.0000
44.7600 132.0000 1.0000
44.7800 151.0000 1.0000
44.8000 155.0000 1.0000
44.8200 163.0000 1.0000
44.8400 172.0000 1.0000
44.8600 171.0000 1.0000
44.8800 170.0000 1.0000
44.9000 164.0000 1.0000
44.9200 166.0000 1.0000
44.9400 185.0000 1.0000
44.9600 178.0000 1.0000
44.9800 162.0000 1.0000
45.0000 174.0000 1.0000
45.0200 181.0000 1.0000
45.0400 167.0000 1.0000
45.0600 206.0000 1.0000
45.0800 149.0000 1.0000
45.1000 157.0000 1.0000
45.1200 183.0000 1.0000
45.1400 140.0000 1.0000
45.1600 174.0000 1.0000
45.1800 188.0000 1.0000
45.2000 207.0000 1.0000
45.2200 198.0000 1.0000
45.2400 209.0000 1.0000
45.2600 195.0000 1.0000
45.2800 217.0000 1.0000
45.3000 223.0000 1.0000
45.3200 255.0000 1.0000
45.3400 248.0000 1.0000
45.3600 234.0000 1.0000
45.3800 276.0000 1.0000
45.4000 237.0000 1.0000
45.4200 262.0000 1.0000
45.4400 253.0000 1.0000
45.4600 263.0000 1.0000
45.4800 289.0000 1.0000
45.5000 286.0000 1.0000
45.5200 351.0000 1.0000
45.5400 378.0000 1.0000
45.5600 418.0000 1.0000
45.5800 484.0000 1.0000
45.6000 465.0000 1.0000
45.6200 491.0000 1.0000
45.6400 518.0000 1.0000
45.6600 448.0000 1.0000
45.6800 427.0000 1.0000
45.7000 386.0000 1.0000
45.7200 334.0000 1.0000
45.7400 350.0000 1.0000
45.7600 299.0000 1.0000
45.7800 273.0000 1.0000
45.8000 246.0000 1.0000
45.8200 210.0000 1.0000
45.8400 173.0000 1.0000
45.8600 180.0000 1.0000
45.8800 186.0000 1.0000
45.9000 159.0000 1.0000
45.9200 158.0000 1.0000
45.9400 176.0000 1.0000
45.9600 176.0000 1.0000
45.9800 155.0000 1.0000
46.0000 159.0000 1.0000
46.0200 172.0000 1.0000
46.0400 152.0000 1.0000
46.0600 160.0000 1.0000
46.0800 165.0000 1.0000
46.1000 158.0000 1.0000
46.1200 135.0000 1.0000
46.1400 146.0000 1.0000
46.1600 161.0000 1.0000
46.1800 154.0000 1.0000
46.2000 152.0000 1.0000
46.2200 140.0000 1.0000
46.2400 131.0000 1.0000
46.2600 123.0000 1.0000
46.2800 133.0000 1.0000
46.3000 125.0000 1.0000
46.3200 116.0000 1.0000
46.3400 126.0000 1.0000
46.3600 112.0000 1.0000
46.3800 92.0000 1.0000
46.4000 122.0000 1.0000
46.4200 131.0000 1.0000
46.4400 115.0000 1.0000
46.4600 121.0000 1.0000
46.4800 118.0000 1.0000
46.5000 112.0000 1.0000
46.5200 109.0000 1.0000
46.5400 115.0000 1.0000
46.5600 131.0000 1.0000
46.5800 120.0000 1.0000
46.6000 136.0000 1.0000
46.6200 138.0000 1.0000
46.6400 145.0000 1.0000
46.6600 153.0000 1.0000
46.6800 145.0000 1.0000
46.7000 133.0000 1.0000
46.7200 133.0000 1.0000
46.7400 145.0000 1.0000
46.7600 157.0000 1.0000
46.7800 158.0000 1.0000
46.8000 150.0000 1.0000
46.8200 149.0000 1.0000
46.8400 151.0000 1.0000
46.8600 177.0000 1.0000
46.8800 162.0000 1.0000
46.9000 150.0000 1.0000
46.9200 153.0000 1.0000
46.9400 159.0000 1.0000
46.9600 173.0000 1.0000
46.9800 182.0000 1.0000
47.0000 149.0000 1.0000
47.0200 146.0000 1.0000
47.0400 159.0000 1.0000
47.0600 154.0000 1.0000
47.0800 152.0000 1.0000
47.1000 134.0000 1.0000
47.1200 152.0000 1.0000
47.1400 154.0000 1.0000
47.1600 145.0000 1.0000
47.1800 140.0000 1.0000
47.2000 147.0000 1.0000
47.2200 154.0000 1.0000
47.2400 167.0000 1.0000
47.2600 179.0000 1.0000
47.2800 180.0000 1.0000
47.3000 177.0000 1.0000
47.3200 178.0000 1.0000
47.3400 171.0000 1.0000
47.3600 192.0000 1.0000
47.3800 199.0000 1.0000
47.4000 178.0000 1.0000
47.4200 165.0000 1.0000
47.4400 175.0000 1.0000
47.4600 159.0000 1.0000
47.4800 149.0000 1.0000
47.5000 146.0000 1.0000
47.5200 148.0000 1.0000
47.5400 143.0000 1.0000
47.5600 128.0000 1.0000
47.5800 125.0000 1.0000
47.6000 142.0000 1.0000
47.6200 141.0000 1.0000
47.6400 124.0000 1.0000
47.6600 130.0000 1.0000
47.6800 142.0000 1.0000
47.7000 136.0000 1.0000
47.7200 145.0000 1.0000
47.7400 151.0000 1.0000
47.7600 147.0000 1.0000
47.7800 151.0000 1.0000
47.8000 149.0000 1.0000
47.8200 148.0000 1.0000
47.8400 141.0000 1.0000
47.8600 146.0000 1.0000
47.8800 155.0000 1.0000
47.9000 144.0000 1.0000
47.9200 134.0000 1.0000
47.9400 138.0000 1.0000
47.9600 152.0000 1.0000
47.9800 148.0000 1.0000
48.0000 170.0000 1.0000
48.0200 168.0000 1.0000
48.0400 163.0000 1.0000
48.0600 166.0000 1.0000
48.0800 176.0000 1.0000
48.1000 184.0000 1.0000
48.1200 198.0000 1.0000
48.1400 180.0000 1.0000
48.1600 180.0000 1.0000
48.1800 204.0000 1.0000
48.2000 192.0000 1.0000
48.2200 173.0000 1.0000
48.2400 169.0000 1.0000
48.2600 163.0000 1.0000
48.2800 159.0000 1.0000
48.3000 153.0000 1.0000
48.3200 138.0000 1.0000
48.3400 129.0000 1.0000
48.3600 135.0000 1.0000
48.3800 138.0000 1.0000
48.4000 132.0000 1.0000
48.4200 133.0000 1.0000
48.4400 139.0000 1.0000
48.4600 135.0000 1.0000
48.4800 127.0000 1.0000
48.5000 124.0000 1.0000
48.5200 123.0000 1.0000
48.5400 130.0000 1.0000
48.5600 149.0000 1.0000
48.5800 164.0000 1.0000
48.6000 161.0000 1.0000
48.6200 150.0000 1.0000
48.6400 159.0000 1.0000
48.6600 172.0000 1.0000
48.6800 167.0000 1.0000
48.7000 159.0000 1.0000
48.7200 160.0000 1.0000
48.7400 164.0000 1.0000
48.7600 179.0000 1.0000
48.7800 193.0000 1.0000
48.8000 187.0000 1.0000
48.8200 193.0000 1.0000
48.8400 219.0000 1.0000
48.8600 221.0000 1.0000
48.8800 209.0000 1.0000
48.9000 219.0000 1.0000
48.9200 223.0000 1.0000
48.9400 215.0000 1.0000
48.9600 222.0000 1.0000
48.9800 237.0000 1.0000
49.0000 258.0000 1.0000
49.0200 263.0000 1.0000
49.0400 260.0000 1.0000
49.0600 257.0000 1.0000
49.0800 251.0000 1.0000
49.1000 256.0000 1.0000
49.1200 252.0000 1.0000
49.1400 240.0000 1.0000
49.1600 207.0000 1.0000
49.1800 198.0000 1.0000
49.2000 213.0000 1.0000
49.2200 211.0000 1.0000
49.2400 198.0000 1.0000
49.2600 186.0000 1.0000
49.2800 182.0000 1.0000
49.3000 169.0000 1.0000
49.3200 177.0000 1.0000
49.3400 187.0000 1.0000
49.3600 176.0000 1.0000
49.3800 182.0000 1.0000
49.4000 218.0000 1.0000
49.4200 205.0000 1.0000
49.4400 194.0000 1.0000
49.4600 222.0000 1.0000
49.4800 222.0000 1.0000
49.5000 211.0000 1.0000
49.5200 249.0000 1.0000
49.5400 280.0000 1.0000
49.5600 291.0000 1.0000
49.5800 300.0000 1.0000
49.6000 316.0000 1.0000
49.6200 347.0000 1.0000
49.6400 364.0000 1.0000
49.6600 350.0000 1.0000
49.6800 373.0000 1.0000
49.7000 400.0000 1.0000
49.7200 426.0000 1.0000
49.7400 441.0000 1.0000
49.7600 412.0000 1.0000
49.7800 425.0000 1.0000
49.8000 460.0000 1.0000
49.8200 557.0000 1.0000
49.8400 630.0000 1.0000
49.8600 710.0000 1.0000
49.8800 782.0000 1.0000
49.9000 942.0000 1.0000
49.9200 1122.0000 1.0000
49.9400 1251.0000 1.0000
49.9600 1302.0000 1.0000
49.9800 1277.0000 1.0000
50.0000 1224.0000 1.0000
50.0200 1143.0000 1.0000
50.0400 1069.0000 1.0000
50.0600 886.0000 1.0000
50.0800 839.0000 1.0000
50.1000 766.0000 1.0000
50.1200 716.0000 1.0000
50.1400 598.0000 1.0000
50.1600 498.0000 1.0000
50.1800 412.0000 1.0000
50.2000 315.0000 1.0000
50.2200 295.0000 1.0000
50.2400 320.0000 1.0000
50.2600 305.0000 1.0000
50.2800 316.0000 1.0000
50.3000 325.0000 1.0000
50.3200 337.0000 1.0000
50.3400 362.0000 1.0000
50.3600 393.0000 1.0000
50.3800 423.0000 1.0000
50.4000 396.0000 1.0000
50.4200 386.0000 1.0000
50.4400 423.0000 1.0000
50.4600 405.0000 1.0000
50.4800 392.0000 1.0000
50.5000 386.0000 1.0000
50.5200 380.0000 1.0000
50.5400 403.0000 1.0000
50.5600 378.0000 1.0000
50.5800 358.0000 1.0000
50.6000 317.0000 1.0000
50.6200 310.0000 1.0000
50.6400 333.0000 1.0000
50.6600 303.0000 1.0000
50.6800 290.0000 1.0000
50.7000 250.0000 1.0000
50.7200 244.0000 1.0000
50.7400 228.0000 1.0000
50.7600 214.0000 1.0000
50.7800 208.0000 1.0000
50.8000 211.0000 1.0000
50.8200 203.0000 1.0000
50.8400 218.0000 1.0000
50.8600 205.0000 1.0000
50.8800 204.0000 1.0000
50.9000 231.0000 1.0000
50.9200 222.0000 1.0000
50.9400 224.0000 1.0000
50.9600 236.0000 1.0000
50.9800 241.0000 1.0000
51.0000 259.0000 1.0000
51.0200 271.0000 1.0000
51.0400 229.0000 1.0000
51.0600 234.0000 1.0000
51.0800 262.0000 1.0000
51.1000 273.0000 1.0000
51.1200 286.0000 1.0000
51.1400 273.0000 1.0000
51.1600 318.0000 1.0000
51.1800 314.0000 1.0000
51.2000 290.0000 1.0000
51.2200 283.0000 1.0000
51.2400 260.0000 1.0000
51.2600 269.0000 1.0000
51.2800 226.0000 1.0000
51.3000 188.0000 1.0000
51.3200 204.0000 1.0000
51.3400 184.0000 1.0000
51.3600 194.0000 1.0000
51.3800 146.0000 1.0000
51.4000 181.0000 1.0000
51.4200 156.0000 1.0000
51.4400 132.0000 1.0000
51.4600 150.0000 1.0000
51.4800 132.0000 1.0000
51.5000 144.0000 1.0000
51.5200 126.0000 1.0000
51.5400 146.0000 1.0000
51.5600 125.0000 1.0000
51.5800 125.0000 1.0000
51.6000 136.0000 1.0000
51.6200 130.0000 1.0000
51.6400 135.0000 1.0000
51.6600 140.0000 1.0000
51.6800 123.0000 1.0000
51.7000 140.0000 1.0000
51.7200 118.0000 1.0000
51.7400 114.0000 1.0000
51.7600 142.0000 1.0000
51.7800 129.0000 1.0000
51.8000 149.0000 1.0000
51.8200 142.0000 1.0000
51.8400 130.0000 1.0000
51.8600 144.0000 1.0000
51.8800 115.0000 1.0000
51.9000 123.0000 1.0000
51.9200 152.0000 1.0000
51.9400 160.0000 1.0000
51.9600 134.0000 1.0000
51.9800 169.0000 1.0000
52.0000 195.0000 1.0000
52.0200 153.0000 1.0000
52.0400 181.0000 1.0000
52.0600 143.0000 1.0000
52.0800 163.0000 1.0000
52.1000 198.0000 1.0000
52.1200 193.0000 1.0000
52.1400 207.0000 1.0000
52.1600 181.0000 1.0000
52.1800 249.0000 1.0000
52.2000 257.0000 1.0000
52.2200 298.0000 1.0000
52.2400 319.0000 1.0000
52.2600 393.0000 1.0000
52.2800 423.0000 1.0000
52.3000 509.0000 1.0000
52.3200 640.0000 1.0000
52.3400 806.0000 1.0000
52.3600 769.0000 1.0000
52.3800 864.0000 1.0000
52.4000 863.0000 1.0000
52.4200 792.0000 1.0000
52.4400 715.0000 1.0000
52.4600 708.0000 1.0000
52.4800 671.0000 1.0000
52.5000 616.0000 1.0000
52.5200 622.0000 1.0000
52.5400 541.0000 1.0000
52.5600 503.0000 1.0000
52.5800 429.0000 1.0000
52.6000 328.0000 1.0000
52.6200 279.0000 1.0000
52.6400 260.0000 1.0000
52.6600 228.0000 1.0000
52.6800 177.0000 1.0000
52.7000 188.0000 1.0000
52.7200 198.0000 1.0000
52.7400 217.0000 1.0000
52.7600 184.0000 1.0000
52.7800 188.0000 1.0000
52.8000 171.0000 1.0000
52.8200 175.0000 1.0000
52.8400 168.0000 1.0000
52.8600 153.0000 1.0000
52.8800 165.0000 1.0000
52.9000 168.0000 1.0000
52.9200 176.0000 1.0000
52.9400 177.0000 1.0000
52.9600 195.0000 1.0000
52.9800 172.0000 1.0000
53.0000 198.0000 1.0000
53.0200 183.0000 1.0000
53.0400 176.0000 1.0000
53.0600 174.0000 1.0000
53.0800 174.0000 1.0000
53.1000 168.0000 1.0000
53.1200 191.0000 1.0000
53.1400 173.0000 1.0000
53.1600 172.0000 1.0000
53.1800 164.0000 1.0000
53.2000 153.0000 1.0000
53.2200 152.0000 1.0000
53.2400 168.0000 1.0000
53.2600 135.0000 1.0000
53.2800 134.0000 1.0000
53.3000 125.0000 1.0000
53.3200 119.0000 1.0000
53.3400 114.0000 1.0000
53.3600 134.0000 1.0000
53.3800 111.0000 1.0000
53.4000 114.0000 1.0000
53.4200 137.0000 1.0000
53.4400 120.0000 1.0000
53.4600 123.0000 1.0000
53.4800 122.0000 1.0000
53.5000 122.0000 1.0000
53.5200 119.0000 1.0000
53.5400 125.0000 1.0000
53.5600 106.0000 1.0000
53.5800 112.0000 1.0000
53.6000 129.0000 1.0000
53.6200 130.0000 1.0000
53.6400 135.0000 1.0000
53.6600 132.0000 1.0000
53.6800 122.0000 1.0000
53.7000 130.0000 1.0000
53.7200 135.0000 1.0000
53.7400 143.0000 1.0000
53.7600 141.0000 1.0000
53.7800 138.0000 1.0000
53.8000 132.0000 1.0000
53.8200 130.0000 1.0000
53.8400 124.0000 1.0000
53.8600 153.0000 1.0000
53.8800 145.0000 1.0000
53.9000 130.0000 1.0000
53.9200 142.0000 1.0000
53.9400 141.0000 1.0000
53.9600 143.0000 1.0000
53.9800 142.0000 1.0000
54.0000 151.0000 1.0000
54.0200 133.0000 1.0000
54.0400 141.0000 1.0000
54.0600 142.0000 1.0000
54.0800 137.0000 1.0000
54.1000 137.0000 1.0000
54.1200 147.0000 1.0000
54.1400 133.0000 1.0000
54.1600 152.0000 1.0000
54.1800 150.0000 1.0000
54.2000 148.0000 1.0000
54.2200 155.0000 1.0000
54.2400 161.0000 1.0000
54.2600 155.0000 1.0000
54.2800 164.0000 1.0000
54.3000 149.0000 1.0000
54.3200 159.0000 1.0000
54.3400 186.0000 1.0000
54.3600 165.0000 1.0000
54.3800 151.0000 1.0000
54.4000 133.0000 1.0000
54.4200 149.0000 1.0000
54.4400 157.0000 1.0000
54.4600 172.0000 1.0000
54.4800 169.0000 1.0000
54.5000 173.0000 1.0000
54.5200 175.0000 1.0000
54.5400 178.0000 1.0000
54.5600 221.0000 1.0000
54.5800 231.0000 1.0000
54.6000 263.0000 1.0000
54.6200 289.0000 1.0000
54.6400 316.0000 1.0000
54.6600 383.0000 1.0000
54.6800 439.0000 1.0000
54.7000 453.0000 1.0000
54.7200 447.0000 1.0000
54.7400 427.0000 1.0000
54.7600 388.0000 1.0000
54.7800 356.0000 1.0000
54.8000 341.0000 1.0000
54.8200 338.0000 1.0000
54.8400 338.0000 1.0000
54.8600 315.0000 1.0000
54.8800 283.0000 1.0000
54.9000 258.0000 1.0000
54.9200 250.0000 1.0000
54.9400 219.0000 1.0000
54.9600 206.0000 1.0000
54.9800 205.0000 1.0000
55.0000 180.0000 1.0000
55.0200 173.0000 1.0000
55.0400 185.0000 1.0000
55.0600 213.0000 1.0000
55.0800 231.0000 1.0000
55.1000 230.0000 1.0000
55.1200 239.0000 1.0000
55.1400 260.0000 1.0000
55.1600 293.0000 1.0000
55.1800 291.0000 1.0000
55.2000 276.0000 1.0000
55.2200 270.0000 1.0000
55.2400 255.0000 1.0000
55.2600 230.0000 1.0000
55.2800 212.0000 1.0000
55.3000 214.0000 1.0000
55.3200 208.0000 1.0000
55.3400 203.0000 1.0000
55.3600 201.0000 1.0000
55.3800 190.0000 1.0000
55.4000 180.0000 1.0000
55.4200 170.0000 1.0000
55.4400 167.0000 1.0000
55.4600 173.0000 1.0000
55.4800 159.0000 1.0000
55.5000 147.0000 1.0000
55.5200 140.0000 1.0000
55.5400 137.0000 1.0000
55.5600 144.0000 1.0000
55.5800 143.0000 1.0000
55.6000 134.0000 1.0000
55.6200 134.0000 1.0000
55.6400 137.0000 1.0000
55.6600 134.0000 1.0000
55.6800 135.0000 1.0000
55.7000 135.0000 1.0000
55.7200 131.0000 1.0000
55.7400 130.0000 1.0000
55.7600 135.0000 1.0000
55.7800 143.0000 1.0000
55.8000 124.0000 1.0000
55.8200 117.0000 1.0000
55.8400 123.0000 1.0000
55.8600 128.0000 1.0000
55.8800 133.0000 1.0000
55.9000 134.0000 1.0000
55.9200 134.0000 1.0000
55.9400 130.0000 1.0000
55.9600 152.0000 1.0000
55.9800 151.0000 1.0000
56.0000 137.0000 1.0000
56.0200 139.0000 1.0000
56.0400 139.0000 1.0000
56.0600 135.0000 1.0000
56.0800 126.0000 1.0000
56.1000 114.0000 1.0000
56.1200 117.0000 1.0000
56.1400 131.0000 1.0000
56.1600 128.0000 1.0000
56.1800 129.0000 1.0000
56.2000 121.0000 1.0000
56.2200 119.0000 1.0000
56.2400 133.0000 1.0000
56.2600 120.0000 1.0000
56.2800 115.0000 1.0000
56.3000 129.0000 1.0000
56.3200 131.0000 1.0000
56.3400 119.0000 1.0000
56.3600 107.0000 1.0000
56.3800 122.0000 1.0000
56.4000 133.0000 1.0000
56.4200 125.0000 1.0000
56.4400 130.0000 1.0000
56.4600 124.0000 1.0000
56.4800 132.0000 1.0000
56.5000 137.0000 1.0000
56.5200 124.0000 1.0000
56.5400 131.0000 1.0000
56.5600 134.0000 1.0000
56.5800 125.0000 1.0000
56.6000 134.0000 1.0000
56.6200 133.0000 1.0000
56.6400 140.0000 1.0000
56.6600 151.0000 1.0000
56.6800 137.0000 1.0000
56.7000 124.0000 1.0000
56.7200 130.0000 1.0000
56.7400 146.0000 1.0000
56.7600 149.0000 1.0000
56.7800 143.0000 1.0000
56.8000 144.0000 1.0000
56.8200 149.0000 1.0000
56.8400 143.0000 1.0000
56.8600 146.0000 1.0000
56.8800 154.0000 1.0000
56.9000 153.0000 1.0000
56.9200 141.0000 1.0000
56.9400 152.0000 1.0000
56.9600 173.0000 1.0000
56.9800 178.0000 1.0000
57.0000 196.0000 1.0000
57.0200 209.0000 1.0000
57.0400 203.0000 1.0000
57.0600 222.0000 1.0000
57.0800 226.0000 1.0000
57.1000 270.0000 1.0000
57.1200 290.0000 1.0000
57.1400 300.0000 1.0000
57.1600 335.0000 1.0000
57.1800 383.0000 1.0000
57.2000 464.0000 1.0000
57.2200 590.0000 1.0000
57.2400 727.0000 1.0000
57.2600 899.0000 1.0000
57.2800 1093.0000 1.0000
57.3000 1299.0000 1.0000
57.3200 1412.0000 1.0000
57.3400 1470.0000 1.0000
57.3600 1441.0000 1.0000
57.3800 1340.0000 1.0000
57.4000 1224.0000 1.0000
57.4200 1087.0000 1.0000
57.4400 969.0000 1.0000
57.4600 943.0000 1.0000
57.4800 921.0000 1.0000
57.5000 848.0000 1.0000
57.5200 743.0000 1.0000
57.5400 653.0000 1.0000
57.5600 591.0000 1.0000
57.5800 449.0000 1.0000
57.6000 354.0000 1.0000
57.6200 296.0000 1.0000
57.6400 232.0000 1.0000
57.6600 212.0000 1.0000
57.6800 187.0000 1.0000
57.7000 186.0000 1.0000
57.7200 164.0000 1.0000
57.7400 160.0000 1.0000
57.7600 162.0000 1.0000
57.7800 154.0000 1.0000
57.8000 157.0000 1.0000
57.8200 162.0000 1.0000
57.8400 155.0000 1.0000
57.8600 140.0000 1.0000
57.8800 141.0000 1.0000
57.9000 147.0000 1.0000
57.9200 151.0000 1.0000
57.9400 149.0000 1.0000
57.9600 142.0000 1.0000
57.9800 131.0000 1.0000
58.0000 135.0000 1.0000
58.0200 135.0000 1.0000
58.0400 129.0000 1.0000
58.0600 140.0000 1.0000
58.0800 140.0000 1.0000
58.1000 136.0000 1.0000
58.1200 137.0000 1.0000
58.1400 133.0000 1.0000
58.1600 143.0000 1.0000
58.1800 136.0000 1.0000
58.2000 150.0000 1.0000
58.2200 165.0000 1.0000
58.2400 154.0000 1.0000
58.2600 152.0000 1.0000
58.2800 158.0000 1.0000
58.3000 162.0000 1.0000
58.3200 163.0000 1.0000
58.3400 146.0000 1.0000
58.3600 164.0000 1.0000
58.3800 170.0000 1.0000
58.4000 182.0000 1.0000
58.4200 192.0000 1.0000
58.4400 199.0000 1.0000
58.4600 177.0000 1.0000
58.4800 186.0000 1.0000
58.5000 190.0000 1.0000
58.5200 190.0000 1.0000
58.5400 198.0000 1.0000
58.5600 191.0000 1.0000
58.5800 187.0000 1.0000
58.6000 186.0000 1.0000
58.6200 189.0000 1.0000
58.6400 169.0000 1.0000
58.6600 165.0000 1.0000
58.6800 178.0000 1.0000
58.7000 159.0000 1.0000
58.7200 164.0000 1.0000
58.7400 143.0000 1.0000
58.7600 132.0000 1.0000
58.7800 146.0000 1.0000
58.8000 134.0000 1.0000
58.8200 119.0000 1.0000
58.8400 137.0000 1.0000
58.8600 148.0000 1.0000
58.8800 126.0000 1.0000
58.9000 121.0000 1.0000
58.9200 126.0000 1.0000
58.9400 127.0000 1.0000
58.9600 124.0000 1.0000
58.9800 140.0000 1.0000
59.0000 131.0000 1.0000
59.0200 125.0000 1.0000
59.0400 139.0000 1.0000
59.0600 132.0000 1.0000
59.0800 152.0000 1.0000
59.1000 159.0000 1.0000
59.1200 134.0000 1.0000
59.1400 136.0000 1.0000
59.1600 154.0000 1.0000
59.1800 135.0000 1.0000
59.2000 133.0000 1.0000
59.2200 157.0000 1.0000
59.2400 152.0000 1.0000
59.2600 153.0000 1.0000
59.2800 166.0000 1.0000
59.3000 173.0000 1.0000
59.3200 157.0000 1.0000
59.3400 169.0000 1.0000
59.3600 192.0000 1.0000
59.3800 165.0000 1.0000
59.4000 165.0000 1.0000
59.4200 185.0000 1.0000
59.4400 203.0000 1.0000
59.4600 191.0000 1.0000
59.4800 217.0000 1.0000
59.5000 232.0000 1.0000
59.5200 251.0000 1.0000
59.5400 222.0000 1.0000
59.5600 241.0000 1.0000
59.5800 260.0000 1.0000
59.6000 271.0000 1.0000
59.6200 268.0000 1.0000
59.6400 321.0000 1.0000
59.6600 355.0000 1.0000
59.6800 386.0000 1.0000
59.7000 499.0000 1.0000
59.7200 572.0000 1.0000
59.7400 659.0000 1.0000
59.7600 790.0000 1.0000
59.7800 806.0000 1.0000
59.8000 857.0000 1.0000
59.8200 834.0000 1.0000
59.8400 807.0000 1.0000
59.8600 684.0000 1.0000
59.8800 618.0000 1.0000
59.9000 580.0000 1.0000
59.9200 560.0000 1.0000
59.9400 592.0000 1.0000
59.9600 568.0000 1.0000
59.9800 526.0000 1.0000
60.0000 461.0000 1.0000
60.0200 391.0000 1.0000
60.0400 350.0000 1.0000
60.0600 285.0000 1.0000
60.0800 253.0000 1.0000
60.1000 255.0000 1.0000
60.1200 219.0000 1.0000
60.1400 203.0000 1.0000
60.1600 210.0000 1.0000
60.1800 200.0000 1.0000
60.2000 183.0000 1.0000
60.2200 190.0000 1.0000
60.2400 176.0000 1.0000
60.2600 161.0000 1.0000
60.2800 164.0000 1.0000
60.3000 185.0000 1.0000
60.3200 181.0000 1.0000
60.3400 174.0000 1.0000
60.3600 180.0000 1.0000
60.3800 160.0000 1.0000
60.4000 156.0000 1.0000
60.4200 183.0000 1.0000
60.4400 157.0000 1.0000
60.4600 179.0000 1.0000
60.4800 154.0000 1.0000
60.5000 165.0000 1.0000
60.5200 147.0000 1.0000
60.5400 145.0000 1.0000
60.5600 155.0000 1.0000
60.5800 156.0000 1.0000
60.6000 138.0000 1.0000
60.6200 156.0000 1.0000
60.6400 135.0000 1.0000
60.6600 143.0000 1.0000
60.6800 141.0000 1.0000
60.7000 137.0000 1.0000
60.7200 157.0000 1.0000
60.7400 151.0000 1.0000
60.7600 126.0000 1.0000
60.7800 153.0000 1.0000
60.8000 156.0000 1.0000
60.8200 142.0000 1.0000
60.8400 150.0000 1.0000
60.8600 173.0000 1.0000
60.8800 179.0000 1.0000
60.9000 175.0000 1.0000
60.9200 198.0000 1.0000
60.9400 196.0000 1.0000
60.9600 217.0000 1.0000
60.9800 200.0000 1.0000
61.0000 233.0000 1.0000
61.0200 218.0000 1.0000
61.0400 248.0000 1.0000
61.0600 265.0000 1.0000
61.0800 258.0000 1.0000
61.1000 279.0000 1.0000
61.1200 292.0000 1.0000
61.1400 288.0000 1.0000
61.1600 283.0000 1.0000
61.1800 267.0000 1.0000
61.2000 246.0000 1.0000
61.2200 249.0000 1.0000
61.2400 219.0000 1.0000
61.2600 251.0000 1.0000
61.2800 205.0000 1.0000
61.3000 230.0000 1.0000
61.3200 243.0000 1.0000
61.3400 244.0000 1.0000
61.3600 219.0000 1.0000
61.3800 184.0000 1.0000
61.4000 189.0000 1.0000
61.4200 194.0000 1.0000
61.4400 192.0000 1.0000
61.4600 169.0000 1.0000
61.4800 152.0000 1.0000
61.5000 205.0000 1.0000
61.5200 187.0000 1.0000
61.5400 173.0000 1.0000
61.5600 183.0000 1.0000
61.5800 184.0000 1.0000
61.6000 170.0000 1.0000
61.6200 173.0000 1.0000
61.6400 172.0000 1.0000
61.6600 169.0000 1.0000
61.6800 161.0000 1.0000
61.7000 149.0000 1.0000
61.7200 165.0000 1.0000
61.7400 175.0000 1.0000
61.7600 177.0000 1.0000
61.7800 171.0000 1.0000
61.8000 167.0000 1.0000
61.8200 175.0000 1.0000
61.8400 177.0000 1.0000
61.8600 146.0000 1.0000
61.8800 154.0000 1.0000
61.9000 145.0000 1.0000
61.9200 153.0000 1.0000
61.9400 165.0000 1.0000
61.9600 166.0000 1.0000
61.9800 159.0000 1.0000
62.0000 147.0000 1.0000
62.0200 171.0000 1.0000
62.0400 161.0000 1.0000
62.0600 142.0000 1.0000
62.0800 137.0000 1.0000
62.1000 149.0000 1.0000
62.1200 126.0000 1.0000
62.1400 142.0000 1.0000
62.1600 136.0000 1.0000
62.1800 153.0000 1.0000
62.2000 140.0000 1.0000
62.2200 124.0000 1.0000
62.2400 158.0000 1.0000
62.2600 156.0000 1.0000
62.2800 166.0000 1.0000
62.3000 130.0000 1.0000
62.3200 153.0000 1.0000
62.3400 152.0000 1.0000
62.3600 133.0000 1.0000
62.3800 130.0000 1.0000
62.4000 142.0000 1.0000
62.4200 157.0000 1.0000
62.4400 148.0000 1.0000
62.4600 136.0000 1.0000
62.4800 148.0000 1.0000
62.5000 158.0000 1.0000
62.5200 142.0000 1.0000
62.5400 161.0000 1.0000
62.5600 156.0000 1.0000
62.5800 167.0000 1.0000
62.6000 162.0000 1.0000
62.6200 163.0000 1.0000
62.6400 135.0000 1.0000
62.6600 144.0000 1.0000
62.6800 175.0000 1.0000
62.7000 180.0000 1.0000
62.7200 169.0000 1.0000
62.7400 150.0000 1.0000
62.7600 136.0000 1.0000
62.7800 159.0000 1.0000
62.8000 152.0000 1.0000
62.8200 189.0000 1.0000
62.8400 171.0000 1.0000
62.8600 171.0000 1.0000
62.8800 165.0000 1.0000
62.9000 168.0000 1.0000
62.9200 176.0000 1.0000
62.9400 154.0000 1.0000
62.9600 160.0000 1.0000
62.9800 163.0000 1.0000
63.0000 170.0000 1.0000
63.0200 152.0000 1.0000
63.0400 170.0000 1.0000
63.0600 170.0000 1.0000
63.0800 154.0000 1.0000
63.1000 170.0000 1.0000
63.1200 158.0000 1.0000
63.1400 164.0000 1.0000
63.1600 159.0000 1.0000
63.1800 170.0000 1.0000
63.2000 158.0000 1.0000
63.2200 177.0000 1.0000
63.2400 168.0000 1.0000
63.2600 185.0000 1.0000
63.2800 159.0000 1.0000
63.3000 164.0000 1.0000
63.3200 161.0000 1.0000
63.3400 183.0000 1.0000
63.3600 195.0000 1.0000
63.3800 196.0000 1.0000
63.4000 201.0000 1.0000
63.4200 193.0000 1.0000
63.4400 208.0000 1.0000
63.4600 195.0000 1.0000
63.4800 185.0000 1.0000
63.5000 216.0000 1.0000
63.5200 209.0000 1.0000
63.5400 218.0000 1.0000
63.5600 235.0000 1.0000
63.5800 219.0000 1.0000
63.6000 242.0000 1.0000
63.6200 235.0000 1.0000
63.6400 240.0000 1.0000
63.6600 231.0000 1.0000
63.6800 269.0000 1.0000
63.7000 269.0000 1.0000
63.7200 257.0000 1.0000
63.7400 266.0000 1.0000
63.7600 248.0000 1.0000
63.7800 286.0000 1.0000
63.8000 295.0000 1.0000
63.8200 292.0000 1.0000
63.8400 348.0000 1.0000
63.8600 351.0000 1.0000
63.8800 312.0000 1.0000
63.9000 329.0000 1.0000
63.9200 291.0000 1.0000
63.9400 283.0000 1.0000
63.9600 291.0000 1.0000
63.9800 272.0000 1.0000
64.0000 246.0000 1.0000
64.0200 223.0000 1.0000
64.0400 236.0000 1.0000
64.0600 235.0000 1.0000
64.0800 214.0000 1.0000
64.1000 213.0000 1.0000
64.1200 196.0000 1.0000
64.1400 172.0000 1.0000
64.1600 154.0000 1.0000
64.1800 162.0000 1.0000
64.2000 147.0000 1.0000
64.2200 154.0000 1.0000
64.2400 157.0000 1.0000
64.2600 158.0000 1.0000
64.2800 135.0000 1.0000
64.3000 135.0000 1.0000
64.3200 142.0000 1.0000
64.3400 145.0000 1.0000
64.3600 131.0000 1.0000
64.3800 123.0000 1.0000
64.4000 138.0000 1.0000
64.4200 133.0000 1.0000
64.4400 125.0000 1.0000
64.4600 132.0000 1.0000
64.4800 130.0000 1.0000
64.5000 130.0000 1.0000
64.5200 104.0000 1.0000
64.5400 119.0000 1.0000
64.5600 141.0000 1.0000
64.5800 128.0000 1.0000
64.6000 130.0000 1.0000
64.6200 132.0000 1.0000
64.6400 131.0000 1.0000
64.6600 138.0000 1.0000
64.6800 155.0000 1.0000
64.7000 128.0000 1.0000
64.7200 143.0000 1.0000
64.7400 141.0000 1.0000
64.7600 136.0000 1.0000
64.7800 168.0000 1.0000
64.8000 158.0000 1.0000
64.8200 143.0000 1.0000
64.8400 164.0000 1.0000
64.8600 148.0000 1.0000
64.8800 150.0000 1.0000
64.9000 161.0000 1.0000
64.9200 161.0000 1.0000
64.9400 159.0000 1.0000
64.9600 158.0000 1.0000
64.9800 158.0000 1.0000
65.0000 158.0000 1.0000
*RAS_INT_END
*RAS_DATA_END
