*RAS_DATA_START
*RAS_HEADER_START
*CORR_POS_DB_NAME "Angle Correction ASC6 SC WITH Mono_04082019"
*CORR_POS_GONIO_RADIUS ""
*CORR_POS_NODE_INDEX01 ""
*CORR_POS_NODE_INDEX02 ""
*CORR_POS_NODE_INDEX03 ""
*CORR_POS_NODE_INDEX04 ""
*CORR_POS_NODE_INDEX05 ""
*CORR_POS_NODE_INDEX06 ""
*CORR_POS_NODE_INDEX07 ""
*CORR_POS_NODE_INDEX08 ""
*CORR_POS_NODE_INDEX09 ""
*CORR_POS_NODE_INDEX10 ""
*CORR_POS_NODE_INDEX11 ""
*CORR_POS_NODE_LABEL01 "Si(111)"
*CORR_POS_NODE_LABEL02 "Si(220)"
*CORR_POS_NODE_LABEL03 "Si(311)"
*CORR_POS_NODE_LABEL04 "Si(400)"
*CORR_POS_NODE_LABEL05 "Si(331)"
*CORR_POS_NODE_LABEL06 "Si(422)"
*CORR_POS_NODE_LABEL07 "Si(511)"
*CORR_POS_NODE_LABEL08 "Si(440)"
*CORR_POS_NODE_LABEL09 "Si(531)"
*CORR_POS_NODE_LABEL10 "Si(620)"
*CORR_POS_NODE_LABEL11 "Si(533)"
*CORR_POS_NODE_POS_CALC01 "28.377"
*CORR_POS_NODE_POS_CALC02 "47.2506"
*CORR_POS_NODE_POS_CALC03 "56.0725"
*CORR_POS_NODE_POS_CALC04 "69.0822"
*CORR_POS_NODE_POS_CALC05 "76.3294"
*CORR_POS_NODE_POS_CALC06 "87.9853"
*CORR_POS_NODE_POS_CALC07 "94.9091"
*CORR_POS_NODE_POS_CALC08 "106.668"
*CORR_POS_NODE_POS_CALC09 "114.054"
*CORR_POS_NODE_POS_CALC10 "127.511"
*CORR_POS_NODE_POS_CALC11 "136.864"
*CORR_POS_NODE_POS_MEAS01 "28.5058"
*CORR_POS_NODE_POS_MEAS02 "47.345"
*CORR_POS_NODE_POS_MEAS03 "56.1421"
*CORR_POS_NODE_POS_MEAS04 "69.1304"
*CORR_POS_NODE_POS_MEAS05 "76.366"
*CORR_POS_NODE_POS_MEAS06 "88.0213"
*CORR_POS_NODE_POS_MEAS07 "94.9406"
*CORR_POS_NODE_POS_MEAS08 "106.689"
*CORR_POS_NODE_POS_MEAS09 "114.065"
*CORR_POS_NODE_POS_MEAS10 "127.518"
*CORR_POS_NODE_POS_MEAS11 "136.869"
*CORR_POS_OPT_ATTR "集中法"
*CORR_POS_PARAM_MU ""
*CORR_POS_PARAM_PL ""
*CORR_POS_SEMODEL_TYPE "0"
*CORR_POS_STANDARD_TYPE ""
*CORR_POS_VALUE_ANALYZER "None"
*CORR_POS_VALUE_CMONO "None"
*CORR_POS_VALUE_IMONO "None"
*CORR_POS_VALUE_IS "1.250deg"
*CORR_POS_VALUE_ISL "10.0mm"
*CORR_POS_VALUE_ISOLLER "5.0deg"
*CORR_POS_VALUE_RS1 "1.250deg"
*CORR_POS_VALUE_RS2 "0.3mm"
*CORR_POS_VALUE_RSOLLER "5.0deg"
*CORR_POS_XG_FOCUS_L ""
*CORR_POS_XG_WAVE_TYPE ""
*CORR_POS_XG_WAVE_VALUE ""
*DISP_FMT_X "%.2f"
*DISP_FMT_Y "%.0f"
*DISP_FULLSCALE "7249.2000000000"
*DISP_LINE_COLOR "255.0000000000"
*DISP_LINE_STYLE "0.0000000000"
*DISP_LINE_WIDTH "0.2500000000"
*DISP_NOTE "Collected Data-14"
*DISP_OFFSET_Y "0.0000000000"
*DISP_PEAKSEARCH_UNIT_Y "CPS"
*DISP_RANGE_BOTTOM "0.0000000000"
*DISP_RANGE_LEFT "5.0000000000"
*DISP_RANGE_LOGCUTOFF "0.0100000000"
*DISP_RANGE_RIGHT "65.0000000000"
*DISP_RANGE_TOP "7249.2000000000"
*DISP_SCALE_MODE_Y "0.0000000000"
*DISP_TAB_NAME "Theta/2-Theta"
*DISP_TITLE_Y "Intensity"
*DISP_UNIT_Y "CPS"
*DISP_WINDOW_NAME "MSG_MACROENGINE"
*FILE_COMMENT " "
*FILE_MD5 ""
*FILE_MEMO " "
*FILE_OPERATOR "Administrator"
*FILE_PART_ID "MEAS_PBEA_00223"
*FILE_SAMPLE " "
*FILE_TYPE "RAS_RAW"
*FILE_USERGROUP "System Manager"
*FILE_VERSION "1.0000000000"
*HW_ATTACHMENT_ID "ATT1031"
*HW_ATTACHMENT_NAME "6サンプルチェンジャ|ASC-6"
*HW_COUNTER_ID-0 "CUT0021"
*HW_COUNTER_ID-1 "CUT0020"
*HW_COUNTER_ID-2 "CUT0020"
*HW_COUNTER_ID-3 "CMC0021"
*HW_COUNTER_NAME-0 "SC-70|SC-70"
*HW_COUNTER_NAME-1 "None|None"
*HW_COUNTER_NAME-2 "None|None"
*HW_COUNTER_NAME-3 "検出器モノクロメータ|Detector monochromator"
*HW_COUNTER_SELECT_NAME "SC-70|SC-70"
*HW_ECP_HV "671.5000000000"
*HW_ECP_HV_UNIT "V"
*HW_GONIOMETER_ID "GON0070"
*HW_GONIOMETER_NAME "MiniFlex 300/600|MiniFlex 300/600"
*HW_GONIOMETER_RADIUS-0 "79.0"
*HW_GONIOMETER_RADIUS-1 "91.5"
*HW_GONIOMETER_RADIUS-2 "150.0"
*HW_GONIOMETER_RADIUS-3 "0"
*HW_GONIOMETER_RADIUS-4 "103.4"
*HW_GONIOMETER_RADIUS-5 "150.0"
*HW_GONIOMETER_RADIUS-6 "46.6"
*HW_GONIOMETER_RADIUS-7 "160.0"
*HW_I_OPT_ID-0 "ISL0021"
*HW_I_OPT_ID-1 "ISO0021"
*HW_I_OPT_NAME-0 "発散スリット|Divergence slit"
*HW_I_OPT_NAME-1 "入射平行スリット|Incident parallel slit"
*HW_R_ATTENUATER_AUTOMODE "0"
*HW_R_OPT_ID-0 "RSS0021"
*HW_R_OPT_ID-1 "RSO0021"
*HW_R_OPT_ID-2 "RRS0021"
*HW_R_OPT_NAME-0 "散乱スリット|Scattering slit"
*HW_R_OPT_NAME-1 "受光平行スリット|Receiving soller slit"
*HW_R_OPT_NAME-2 "受光スリット|Receiving slit"
*HW_SAMPLE_HOLDER_ID "SMP0000"
*HW_SAMPLE_HOLDER_NAME "無し|None"
*HW_XG_CURRENT_MAX "15"
*HW_XG_CURRENT_MIN "2"
*HW_XG_CURRENT_RESOLUTION "1"
*HW_XG_CURRENT_UNIT "mA"
*HW_XG_FOCUS "1mm x 10mm"
*HW_XG_FOCUS_TYPE "Normal"
*HW_XG_ID "1060"
*HW_XG_NAME "300W/600W 封入管-B|300W/600W Sealed tube-B"
*HW_XG_TARGET_ATOMIC_NUMBER "29.0000000000"
*HW_XG_TARGET_NAME "Cu"
*HW_XG_TYPE "Hermetic"
*HW_XG_VOLTAGE_MAX "40"
*HW_XG_VOLTAGE_MIN "20"
*HW_XG_VOLTAGE_RESOLUTION "1"
*HW_XG_VOLTAGE_UNIT "kV"
*HW_XG_WATT_MAX "0.600"
*HW_XG_WATT_UNIT "kW"
*HW_XG_WAVE_LENGTH_ALPHA1 "1.540593"
*HW_XG_WAVE_LENGTH_ALPHA2 "1.544414"
*HW_XG_WAVE_LENGTH_BETA "1.392250"
*MEAS_COND_AXIS_NAME-0 "Theta/2-Theta"
*MEAS_COND_AXIS_NAME-1 "Spin"
*MEAS_COND_AXIS_NAME-2 "Change"
*MEAS_COND_AXIS_NAME-3 "Soller(inc.)"
*MEAS_COND_AXIS_NAME-4 "IHS"
*MEAS_COND_AXIS_NAME-5 "DS"
*MEAS_COND_AXIS_NAME-6 "SS"
*MEAS_COND_AXIS_NAME-7 "Soller(rec.)"
*MEAS_COND_AXIS_NAME-8 "RS"
*MEAS_COND_AXIS_NAME-9 "Filter"
*MEAS_COND_AXIS_NAME-10 "Monochromator"
*MEAS_COND_AXIS_NAME-11 "HV"
*MEAS_COND_AXIS_NAME-12 "PHA"
*MEAS_COND_AXIS_NAME_INTERNAL-0 "TwoThetaTheta"
*MEAS_COND_AXIS_NAME_INTERNAL-1 "Spin"
*MEAS_COND_AXIS_NAME_INTERNAL-2 "Change"
*MEAS_COND_AXIS_NAME_INTERNAL-3 "IncidentSollerSlit"
*MEAS_COND_AXIS_NAME_INTERNAL-4 "IncidentAxdSlit"
*MEAS_COND_AXIS_NAME_INTERNAL-5 "IncidentSlitBox"
*MEAS_COND_AXIS_NAME_INTERNAL-6 "ReceivingSlitBox1"
*MEAS_COND_AXIS_NAME_INTERNAL-7 "ReceivingSollerSlit"
*MEAS_COND_AXIS_NAME_INTERNAL-8 "ReceivingSlitBox2"
*MEAS_COND_AXIS_NAME_INTERNAL-9 "Filter"
*MEAS_COND_AXIS_NAME_INTERNAL-10 "CounterMonochromator"
*MEAS_COND_AXIS_NAME_INTERNAL-11 "HV"
*MEAS_COND_AXIS_NAME_INTERNAL-12 "PHA"
*MEAS_COND_AXIS_NAME_MAGICNO-0 "268632064.0000000000"
*MEAS_COND_AXIS_NAME_MAGICNO-1 "16842752.0000000000"
*MEAS_COND_AXIS_NAME_MAGICNO-2 "16842752.0000000000"
*MEAS_COND_AXIS_NAME_MAGICNO-3 "20971521.0000000000"
*MEAS_COND_AXIS_NAME_MAGICNO-4 "22020097.0000000000"
*MEAS_COND_AXIS_NAME_MAGICNO-5 "22020097.0000000000"
*MEAS_COND_AXIS_NAME_MAGICNO-6 "23068673.0000000000"
*MEAS_COND_AXIS_NAME_MAGICNO-7 "20971521.0000000000"
*MEAS_COND_AXIS_NAME_MAGICNO-8 "23068673.0000000000"
*MEAS_COND_AXIS_NAME_MAGICNO-9 "20971521.0000000000"
*MEAS_COND_AXIS_NAME_MAGICNO-10 "20971521.0000000000"
*MEAS_COND_AXIS_NAME_MAGICNO-11 "0.0000000000"
*MEAS_COND_AXIS_NAME_MAGICNO-12 "0.0000000000"
*MEAS_COND_AXIS_OFFSET-0 "0.0000000000"
*MEAS_COND_AXIS_OFFSET-1 "-"
*MEAS_COND_AXIS_OFFSET-2 "-"
*MEAS_COND_AXIS_OFFSET-3 "-"
*MEAS_COND_AXIS_OFFSET-4 "-"
*MEAS_COND_AXIS_OFFSET-5 "-"
*MEAS_COND_AXIS_OFFSET-6 "-"
*MEAS_COND_AXIS_OFFSET-7 "-"
*MEAS_COND_AXIS_OFFSET-8 "-"
*MEAS_COND_AXIS_OFFSET-9 "-"
*MEAS_COND_AXIS_OFFSET-10 "-"
*MEAS_COND_AXIS_OFFSET-11 "-"
*MEAS_COND_AXIS_OFFSET-12 "-"
*MEAS_COND_AXIS_POSITION-0 "65.0000000000"
*MEAS_COND_AXIS_POSITION-1 "0.0000000000"
*MEAS_COND_AXIS_POSITION-2 "2.0000000000"
*MEAS_COND_AXIS_POSITION-3 "5.0deg"
*MEAS_COND_AXIS_POSITION-4 "10.0mm"
*MEAS_COND_AXIS_POSITION-5 "1.250deg"
*MEAS_COND_AXIS_POSITION-6 "1.250deg"
*MEAS_COND_AXIS_POSITION-7 "5.0deg"
*MEAS_COND_AXIS_POSITION-8 "0.3mm"
*MEAS_COND_AXIS_POSITION-9 "None"
*MEAS_COND_AXIS_POSITION-10 "Bent"
*MEAS_COND_AXIS_POSITION-11 "671.5000000000"
*MEAS_COND_AXIS_POSITION-12 "551.2500000000"
*MEAS_COND_AXIS_UNIT-0 "deg"
*MEAS_COND_AXIS_UNIT-1 ""
*MEAS_COND_AXIS_UNIT-2 ""
*MEAS_COND_AXIS_UNIT-3 ""
*MEAS_COND_AXIS_UNIT-4 ""
*MEAS_COND_AXIS_UNIT-5 ""
*MEAS_COND_AXIS_UNIT-6 ""
*MEAS_COND_AXIS_UNIT-7 ""
*MEAS_COND_AXIS_UNIT-8 ""
*MEAS_COND_AXIS_UNIT-9 ""
*MEAS_COND_AXIS_UNIT-10 ""
*MEAS_COND_AXIS_UNIT-11 "V"
*MEAS_COND_AXIS_UNIT-12 "mV"
*MEAS_COND_CORRECTION_SLIT_COUNTERMONO "None"
*MEAS_COND_CORRECTION_SLIT_DS "1.250deg"
*MEAS_COND_CORRECTION_SLIT_FILTER "None"
*MEAS_COND_CORRECTION_SLIT_IHS "10.0mm"
*MEAS_COND_CORRECTION_SLIT_RS "0.3mm"
*MEAS_COND_CORRECTION_SLIT_SOLLER_INC "5.0deg"
*MEAS_COND_CORRECTION_SLIT_SOLLER_REC "5.0deg"
*MEAS_COND_CORRECTION_SLIT_SS "1.250deg"
*MEAS_COND_COUNTER_CNTLOSS_CORR "0.0000000000"
*MEAS_COND_COUNTER_PHABASE "551.2500000000"
*MEAS_COND_COUNTER_PHAWINDOW "926.2500000000"
*MEAS_COND_COUNTER_PHA_UNIT "mV"
*MEAS_COND_COUNTER_TAUDIFF "0.2500000000"
*MEAS_COND_COUNTER_TAUINT "0.7500000000"
*MEAS_COND_IRRADIATION_MODE "OFF"
*MEAS_COND_IRRADIATION_WIDTH ""
*MEAS_COND_OPT_ATTR " "
*MEAS_COND_OPT_NAME ""
*MEAS_COND_UNSYMMETRIC_MODE "OFF"
*MEAS_COND_XG_CURRENT "15.0000000000"
*MEAS_COND_XG_VOLTAGE "40.0000000000"
*MEAS_COND_XG_WAVE_TYPE "Ka"
*MEAS_DATA_COUNT "3001.0000000000"
*MEAS_SCAN_AXIS_X "Theta/2-Theta"
*MEAS_SCAN_AXIS_X_INTERNAL "TwoThetaTheta"
*MEAS_SCAN_END_TIME "07/28/25 18:48:39"
*MEAS_SCAN_MODE "STEP"
*MEAS_SCAN_MONITOR "0"
*MEAS_SCAN_RESOLUTION_X "0.0025"
*MEAS_SCAN_SPEED "2.00"
*MEAS_SCAN_SPEED_UNIT "sec."
*MEAS_SCAN_SPEED_USER "2.00"
*MEAS_SCAN_START "5.0000000000"
*MEAS_SCAN_START_TIME "07/28/25 17:03:23"
*MEAS_SCAN_STEP "0.0200000000"
*MEAS_SCAN_STOP "65.0000000000"
*MEAS_SCAN_UNIT_X "deg"
*MEAS_SCAN_UNIT_Y "counts"
*SLIT_SYSTEM "0"
*RAS_HEADER_END
*RAS_INT_START
5.0000 919.0000 1.0000
5.0200 956.0000 1.0000
5.0400 889.0000 1.0000
5.0600 804.0000 1.0000
5.0800 853.0000 1.0000
5.1000 956.0000 1.0000
5.1200 821.0000 1.0000
5.1400 799.0000 1.0000
5.1600 854.0000 1.0000
5.1800 898.0000 1.0000
5.2000 894.0000 1.0000
5.2200 984.0000 1.0000
5.2400 809.0000 1.0000
5.2600 792.0000 1.0000
5.2800 828.0000 1.0000
5.3000 814.0000 1.0000
5.3200 849.0000 1.0000
5.3400 769.0000 1.0000
5.3600 840.0000 1.0000
5.3800 889.0000 1.0000
5.4000 813.0000 1.0000
5.4200 930.0000 1.0000
5.4400 817.0000 1.0000
5.4600 852.0000 1.0000
5.4800 743.0000 1.0000
5.5000 828.0000 1.0000
5.5200 805.0000 1.0000
5.5400 809.0000 1.0000
5.5600 813.0000 1.0000
5.5800 730.0000 1.0000
5.6000 754.0000 1.0000
5.6200 728.0000 1.0000
5.6400 735.0000 1.0000
5.6600 762.0000 1.0000
5.6800 763.0000 1.0000
5.7000 760.0000 1.0000
5.7200 761.0000 1.0000
5.7400 771.0000 1.0000
5.7600 817.0000 1.0000
5.7800 798.0000 1.0000
5.8000 766.0000 1.0000
5.8200 786.0000 1.0000
5.8400 751.0000 1.0000
5.8600 809.0000 1.0000
5.8800 730.0000 1.0000
5.9000 706.0000 1.0000
5.9200 738.0000 1.0000
5.9400 711.0000 1.0000
5.9600 699.0000 1.0000
5.9800 743.0000 1.0000
6.0000 716.0000 1.0000
6.0200 763.0000 1.0000
6.0400 795.0000 1.0000
6.0600 770.0000 1.0000
6.0800 796.0000 1.0000
6.1000 781.0000 1.0000
6.1200 717.0000 1.0000
6.1400 669.0000 1.0000
6.1600 622.0000 1.0000
6.1800 613.0000 1.0000
6.2000 581.0000 1.0000
6.2200 631.0000 1.0000
6.2400 673.0000 1.0000
6.2600 635.0000 1.0000
6.2800 622.0000 1.0000
6.3000 649.0000 1.0000
6.3200 638.0000 1.0000
6.3400 571.0000 1.0000
6.3600 529.0000 1.0000
6.3800 594.0000 1.0000
6.4000 622.0000 1.0000
6.4200 614.0000 1.0000
6.4400 615.0000 1.0000
6.4600 601.0000 1.0000
6.4800 574.0000 1.0000
6.5000 589.0000 1.0000
6.5200 636.0000 1.0000
6.5400 605.0000 1.0000
6.5600 626.0000 1.0000
6.5800 610.0000 1.0000
6.6000 541.0000 1.0000
6.6200 519.0000 1.0000
6.6400 557.0000 1.0000
6.6600 586.0000 1.0000
6.6800 582.0000 1.0000
6.7000 571.0000 1.0000
6.7200 573.0000 1.0000
6.7400 574.0000 1.0000
6.7600 522.0000 1.0000
6.7800 526.0000 1.0000
6.8000 514.0000 1.0000
6.8200 490.0000 1.0000
6.8400 527.0000 1.0000
6.8600 547.0000 1.0000
6.8800 540.0000 1.0000
6.9000 506.0000 1.0000
6.9200 505.0000 1.0000
6.9400 484.0000 1.0000
6.9600 505.0000 1.0000
6.9800 516.0000 1.0000
7.0000 483.0000 1.0000
7.0200 471.0000 1.0000
7.0400 486.0000 1.0000
7.0600 492.0000 1.0000
7.0800 504.0000 1.0000
7.1000 521.0000 1.0000
7.1200 514.0000 1.0000
7.1400 505.0000 1.0000
7.1600 509.0000 1.0000
7.1800 484.0000 1.0000
7.2000 446.0000 1.0000
7.2200 445.0000 1.0000
7.2400 433.0000 1.0000
7.2600 430.0000 1.0000
7.2800 452.0000 1.0000
7.3000 486.0000 1.0000
7.3200 482.0000 1.0000
7.3400 489.0000 1.0000
7.3600 487.0000 1.0000
7.3800 438.0000 1.0000
7.4000 449.0000 1.0000
7.4200 461.0000 1.0000
7.4400 452.0000 1.0000
7.4600 473.0000 1.0000
7.4800 492.0000 1.0000
7.5000 468.0000 1.0000
7.5200 412.0000 1.0000
7.5400 406.0000 1.0000
7.5600 427.0000 1.0000
7.5800 436.0000 1.0000
7.6000 460.0000 1.0000
7.6200 422.0000 1.0000
7.6400 413.0000 1.0000
7.6600 463.0000 1.0000
7.6800 457.0000 1.0000
7.7000 444.0000 1.0000
7.7200 450.0000 1.0000
7.7400 432.0000 1.0000
7.7600 402.0000 1.0000
7.7800 413.0000 1.0000
7.8000 431.0000 1.0000
7.8200 435.0000 1.0000
7.8400 448.0000 1.0000
7.8600 447.0000 1.0000
7.8800 474.0000 1.0000
7.9000 471.0000 1.0000
7.9200 434.0000 1.0000
7.9400 402.0000 1.0000
7.9600 418.0000 1.0000
7.9800 464.0000 1.0000
8.0000 479.0000 1.0000
8.0200 461.0000 1.0000
8.0400 453.0000 1.0000
8.0600 431.0000 1.0000
8.0800 416.0000 1.0000
8.1000 424.0000 1.0000
8.1200 479.0000 1.0000
8.1400 489.0000 1.0000
8.1600 469.0000 1.0000
8.1800 500.0000 1.0000
8.2000 506.0000 1.0000
8.2200 525.0000 1.0000
8.2400 490.0000 1.0000
8.2600 523.0000 1.0000
8.2800 499.0000 1.0000
8.3000 552.0000 1.0000
8.3200 573.0000 1.0000
8.3400 520.0000 1.0000
8.3600 521.0000 1.0000
8.3800 591.0000 1.0000
8.4000 629.0000 1.0000
8.4200 644.0000 1.0000
8.4400 635.0000 1.0000
8.4600 724.0000 1.0000
8.4800 806.0000 1.0000
8.5000 818.0000 1.0000
8.5200 934.0000 1.0000
8.5400 967.0000 1.0000
8.5600 1113.0000 1.0000
8.5800 1239.0000 1.0000
8.6000 1223.0000 1.0000
8.6200 1194.0000 1.0000
8.6400 1237.0000 1.0000
8.6600 1070.0000 1.0000
8.6800 945.0000 1.0000
8.7000 790.0000 1.0000
8.7200 705.0000 1.0000
8.7400 556.0000 1.0000
8.7600 469.0000 1.0000
8.7800 426.0000 1.0000
8.8000 408.0000 1.0000
8.8200 405.0000 1.0000
8.8400 364.0000 1.0000
8.8600 346.0000 1.0000
8.8800 364.0000 1.0000
8.9000 384.0000 1.0000
8.9200 358.0000 1.0000
8.9400 370.0000 1.0000
8.9600 365.0000 1.0000
8.9800 366.0000 1.0000
9.0000 378.0000 1.0000
9.0200 340.0000 1.0000
9.0400 356.0000 1.0000
9.0600 392.0000 1.0000
9.0800 325.0000 1.0000
9.1000 384.0000 1.0000
9.1200 441.0000 1.0000
9.1400 407.0000 1.0000
9.1600 424.0000 1.0000
9.1800 364.0000 1.0000
9.2000 362.0000 1.0000
9.2200 361.0000 1.0000
9.2400 338.0000 1.0000
9.2600 266.0000 1.0000
9.2800 304.0000 1.0000
9.3000 307.0000 1.0000
9.3200 315.0000 1.0000
9.3400 320.0000 1.0000
9.3600 288.0000 1.0000
9.3800 301.0000 1.0000
9.4000 308.0000 1.0000
9.4200 292.0000 1.0000
9.4400 259.0000 1.0000
9.4600 271.0000 1.0000
9.4800 258.0000 1.0000
9.5000 271.0000 1.0000
9.5200 261.0000 1.0000
9.5400 239.0000 1.0000
9.5600 260.0000 1.0000
9.5800 220.0000 1.0000
9.6000 220.0000 1.0000
9.6200 235.0000 1.0000
9.6400 260.0000 1.0000
9.6600 250.0000 1.0000
9.6800 266.0000 1.0000
9.7000 235.0000 1.0000
9.7200 235.0000 1.0000
9.7400 255.0000 1.0000
9.7600 251.0000 1.0000
9.7800 254.0000 1.0000
9.8000 238.0000 1.0000
9.8200 217.0000 1.0000
9.8400 215.0000 1.0000
9.8600 224.0000 1.0000
9.8800 276.0000 1.0000
9.9000 240.0000 1.0000
9.9200 232.0000 1.0000
9.9400 243.0000 1.0000
9.9600 229.0000 1.0000
9.9800 253.0000 1.0000
10.0000 236.0000 1.0000
10.0200 246.0000 1.0000
10.0400 235.0000 1.0000
10.0600 227.0000 1.0000
10.0800 232.0000 1.0000
10.1000 255.0000 1.0000
10.1200 207.0000 1.0000
10.1400 277.0000 1.0000
10.1600 263.0000 1.0000
10.1800 242.0000 1.0000
10.2000 257.0000 1.0000
10.2200 287.0000 1.0000
10.2400 283.0000 1.0000
10.2600 264.0000 1.0000
10.2800 285.0000 1.0000
10.3000 289.0000 1.0000
10.3200 266.0000 1.0000
10.3400 239.0000 1.0000
10.3600 251.0000 1.0000
10.3800 243.0000 1.0000
10.4000 246.0000 1.0000
10.4200 224.0000 1.0000
10.4400 227.0000 1.0000
10.4600 250.0000 1.0000
10.4800 189.0000 1.0000
10.5000 207.0000 1.0000
10.5200 208.0000 1.0000
10.5400 280.0000 1.0000
10.5600 186.0000 1.0000
10.5800 168.0000 1.0000
10.6000 231.0000 1.0000
10.6200 173.0000 1.0000
10.6400 199.0000 1.0000
10.6600 195.0000 1.0000
10.6800 191.0000 1.0000
10.7000 213.0000 1.0000
10.7200 187.0000 1.0000
10.7400 245.0000 1.0000
10.7600 189.0000 1.0000
10.7800 219.0000 1.0000
10.8000 197.0000 1.0000
10.8200 211.0000 1.0000
10.8400 202.0000 1.0000
10.8600 176.0000 1.0000
10.8800 187.0000 1.0000
10.9000 196.0000 1.0000
10.9200 176.0000 1.0000
10.9400 190.0000 1.0000
10.9600 220.0000 1.0000
10.9800 198.0000 1.0000
11.0000 236.0000 1.0000
11.0200 197.0000 1.0000
11.0400 210.0000 1.0000
11.0600 208.0000 1.0000
11.0800 246.0000 1.0000
11.1000 219.0000 1.0000
11.1200 190.0000 1.0000
11.1400 201.0000 1.0000
11.1600 186.0000 1.0000
11.1800 207.0000 1.0000
11.2000 210.0000 1.0000
11.2200 172.0000 1.0000
11.2400 215.0000 1.0000
11.2600 213.0000 1.0000
11.2800 224.0000 1.0000
11.3000 190.0000 1.0000
11.3200 233.0000 1.0000
11.3400 211.0000 1.0000
11.3600 199.0000 1.0000
11.3800 194.0000 1.0000
11.4000 184.0000 1.0000
11.4200 224.0000 1.0000
11.4400 211.0000 1.0000
11.4600 196.0000 1.0000
11.4800 197.0000 1.0000
11.5000 189.0000 1.0000
11.5200 187.0000 1.0000
11.5400 165.0000 1.0000
11.5600 192.0000 1.0000
11.5800 189.0000 1.0000
11.6000 193.0000 1.0000
11.6200 183.0000 1.0000
11.6400 177.0000 1.0000
11.6600 164.0000 1.0000
11.6800 159.0000 1.0000
11.7000 205.0000 1.0000
11.7200 187.0000 1.0000
11.7400 174.0000 1.0000
11.7600 186.0000 1.0000
11.7800 178.0000 1.0000
11.8000 192.0000 1.0000
11.8200 176.0000 1.0000
11.8400 182.0000 1.0000
11.8600 202.0000 1.0000
11.8800 175.0000 1.0000
11.9000 201.0000 1.0000
11.9200 199.0000 1.0000
11.9400 200.0000 1.0000
11.9600 199.0000 1.0000
11.9800 189.0000 1.0000
12.0000 190.0000 1.0000
12.0200 221.0000 1.0000
12.0400 197.0000 1.0000
12.0600 211.0000 1.0000
12.0800 206.0000 1.0000
12.1000 209.0000 1.0000
12.1200 219.0000 1.0000
12.1400 259.0000 1.0000
12.1600 241.0000 1.0000
12.1800 246.0000 1.0000
12.2000 253.0000 1.0000
12.2200 272.0000 1.0000
12.2400 292.0000 1.0000
12.2600 320.0000 1.0000
12.2800 321.0000 1.0000
12.3000 318.0000 1.0000
12.3200 339.0000 1.0000
12.3400 330.0000 1.0000
12.3600 295.0000 1.0000
12.3800 242.0000 1.0000
12.4000 232.0000 1.0000
12.4200 200.0000 1.0000
12.4400 191.0000 1.0000
12.4600 194.0000 1.0000
12.4800 189.0000 1.0000
12.5000 180.0000 1.0000
12.5200 185.0000 1.0000
12.5400 185.0000 1.0000
12.5600 165.0000 1.0000
12.5800 167.0000 1.0000
12.6000 171.0000 1.0000
12.6200 184.0000 1.0000
12.6400 191.0000 1.0000
12.6600 197.0000 1.0000
12.6800 215.0000 1.0000
12.7000 203.0000 1.0000
12.7200 235.0000 1.0000
12.7400 209.0000 1.0000
12.7600 207.0000 1.0000
12.7800 203.0000 1.0000
12.8000 212.0000 1.0000
12.8200 198.0000 1.0000
12.8400 184.0000 1.0000
12.8600 199.0000 1.0000
12.8800 196.0000 1.0000
12.9000 190.0000 1.0000
12.9200 185.0000 1.0000
12.9400 176.0000 1.0000
12.9600 199.0000 1.0000
12.9800 187.0000 1.0000
13.0000 170.0000 1.0000
13.0200 180.0000 1.0000
13.0400 168.0000 1.0000
13.0600 169.0000 1.0000
13.0800 186.0000 1.0000
13.1000 167.0000 1.0000
13.1200 197.0000 1.0000
13.1400 162.0000 1.0000
13.1600 163.0000 1.0000
13.1800 165.0000 1.0000
13.2000 145.0000 1.0000
13.2200 173.0000 1.0000
13.2400 205.0000 1.0000
13.2600 196.0000 1.0000
13.2800 206.0000 1.0000
13.3000 210.0000 1.0000
13.3200 229.0000 1.0000
13.3400 258.0000 1.0000
13.3600 255.0000 1.0000
13.3800 273.0000 1.0000
13.4000 283.0000 1.0000
13.4200 319.0000 1.0000
13.4400 372.0000 1.0000
13.4600 361.0000 1.0000
13.4800 339.0000 1.0000
13.5000 341.0000 1.0000
13.5200 324.0000 1.0000
13.5400 274.0000 1.0000
13.5600 287.0000 1.0000
13.5800 324.0000 1.0000
13.6000 349.0000 1.0000
13.6200 389.0000 1.0000
13.6400 436.0000 1.0000
13.6600 486.0000 1.0000
13.6800 480.0000 1.0000
13.7000 415.0000 1.0000
13.7200 390.0000 1.0000
13.7400 343.0000 1.0000
13.7600 288.0000 1.0000
13.7800 247.0000 1.0000
13.8000 228.0000 1.0000
13.8200 206.0000 1.0000
13.8400 188.0000 1.0000
13.8600 166.0000 1.0000
13.8800 167.0000 1.0000
13.9000 164.0000 1.0000
13.9200 159.0000 1.0000
13.9400 156.0000 1.0000
13.9600 156.0000 1.0000
13.9800 143.0000 1.0000
14.0000 131.0000 1.0000
14.0200 158.0000 1.0000
14.0400 144.0000 1.0000
14.0600 145.0000 1.0000
14.0800 152.0000 1.0000
14.1000 141.0000 1.0000
14.1200 141.0000 1.0000
14.1400 139.0000 1.0000
14.1600 126.0000 1.0000
14.1800 124.0000 1.0000
14.2000 137.0000 1.0000
14.2200 145.0000 1.0000
14.2400 130.0000 1.0000
14.2600 113.0000 1.0000
14.2800 117.0000 1.0000
14.3000 126.0000 1.0000
14.3200 127.0000 1.0000
14.3400 133.0000 1.0000
14.3600 130.0000 1.0000
14.3800 117.0000 1.0000
14.4000 142.0000 1.0000
14.4200 164.0000 1.0000
14.4400 150.0000 1.0000
14.4600 133.0000 1.0000
14.4800 160.0000 1.0000
14.5000 169.0000 1.0000
14.5200 160.0000 1.0000
14.5400 151.0000 1.0000
14.5600 149.0000 1.0000
14.5800 160.0000 1.0000
14.6000 160.0000 1.0000
14.6200 155.0000 1.0000
14.6400 157.0000 1.0000
14.6600 165.0000 1.0000
14.6800 189.0000 1.0000
14.7000 196.0000 1.0000
14.7200 193.0000 1.0000
14.7400 210.0000 1.0000
14.7600 232.0000 1.0000
14.7800 233.0000 1.0000
14.8000 199.0000 1.0000
14.8200 183.0000 1.0000
14.8400 190.0000 1.0000
14.8600 202.0000 1.0000
14.8800 190.0000 1.0000
14.9000 183.0000 1.0000
14.9200 191.0000 1.0000
14.9400 177.0000 1.0000
14.9600 164.0000 1.0000
14.9800 180.0000 1.0000
15.0000 171.0000 1.0000
15.0200 137.0000 1.0000
15.0400 141.0000 1.0000
15.0600 152.0000 1.0000
15.0800 150.0000 1.0000
15.1000 133.0000 1.0000
15.1200 123.0000 1.0000
15.1400 126.0000 1.0000
15.1600 115.0000 1.0000
15.1800 112.0000 1.0000
15.2000 118.0000 1.0000
15.2200 113.0000 1.0000
15.2400 102.0000 1.0000
15.2600 118.0000 1.0000
15.2800 136.0000 1.0000
15.3000 124.0000 1.0000
15.3200 126.0000 1.0000
15.3400 126.0000 1.0000
15.3600 113.0000 1.0000
15.3800 114.0000 1.0000
15.4000 131.0000 1.0000
15.4200 136.0000 1.0000
15.4400 142.0000 1.0000
15.4600 148.0000 1.0000
15.4800 137.0000 1.0000
15.5000 139.0000 1.0000
15.5200 144.0000 1.0000
15.5400 159.0000 1.0000
15.5600 166.0000 1.0000
15.5800 161.0000 1.0000
15.6000 164.0000 1.0000
15.6200 161.0000 1.0000
15.6400 158.0000 1.0000
15.6600 149.0000 1.0000
15.6800 133.0000 1.0000
15.7000 126.0000 1.0000
15.7200 123.0000 1.0000
15.7400 134.0000 1.0000
15.7600 132.0000 1.0000
15.7800 129.0000 1.0000
15.8000 129.0000 1.0000
15.8200 122.0000 1.0000
15.8400 125.0000 1.0000
15.8600 123.0000 1.0000
15.8800 123.0000 1.0000
15.9000 117.0000 1.0000
15.9200 114.0000 1.0000
15.9400 110.0000 1.0000
15.9600 126.0000 1.0000
15.9800 137.0000 1.0000
16.0000 124.0000 1.0000
16.0200 112.0000 1.0000
16.0400 118.0000 1.0000
16.0600 118.0000 1.0000
16.0800 122.0000 1.0000
16.1000 115.0000 1.0000
16.1200 100.0000 1.0000
16.1400 113.0000 1.0000
16.1600 129.0000 1.0000
16.1800 127.0000 1.0000
16.2000 116.0000 1.0000
16.2200 122.0000 1.0000
16.2400 112.0000 1.0000
16.2600 98.0000 1.0000
16.2800 117.0000 1.0000
16.3000 128.0000 1.0000
16.3200 125.0000 1.0000
16.3400 125.0000 1.0000
16.3600 118.0000 1.0000
16.3800 118.0000 1.0000
16.4000 125.0000 1.0000
16.4200 120.0000 1.0000
16.4400 112.0000 1.0000
16.4600 114.0000 1.0000
16.4800 126.0000 1.0000
16.5000 128.0000 1.0000
16.5200 119.0000 1.0000
16.5400 106.0000 1.0000
16.5600 122.0000 1.0000
16.5800 130.0000 1.0000
16.6000 124.0000 1.0000
16.6200 124.0000 1.0000
16.6400 128.0000 1.0000
16.6600 133.0000 1.0000
16.6800 125.0000 1.0000
16.7000 129.0000 1.0000
16.7200 111.0000 1.0000
16.7400 111.0000 1.0000
16.7600 124.0000 1.0000
16.7800 125.0000 1.0000
16.8000 134.0000 1.0000
16.8200 126.0000 1.0000
16.8400 108.0000 1.0000
16.8600 117.0000 1.0000
16.8800 111.0000 1.0000
16.9000 100.0000 1.0000
16.9200 94.0000 1.0000
16.9400 107.0000 1.0000
16.9600 123.0000 1.0000
16.9800 115.0000 1.0000
17.0000 117.0000 1.0000
17.0200 108.0000 1.0000
17.0400 99.0000 1.0000
17.0600 105.0000 1.0000
17.0800 122.0000 1.0000
17.1000 112.0000 1.0000
17.1200 120.0000 1.0000
17.1400 124.0000 1.0000
17.1600 122.0000 1.0000
17.1800 118.0000 1.0000
17.2000 121.0000 1.0000
17.2200 124.0000 1.0000
17.2400 140.0000 1.0000
17.2600 142.0000 1.0000
17.2800 128.0000 1.0000
17.3000 123.0000 1.0000
17.3200 126.0000 1.0000
17.3400 126.0000 1.0000
17.3600 141.0000 1.0000
17.3800 161.0000 1.0000
17.4000 162.0000 1.0000
17.4200 155.0000 1.0000
17.4400 157.0000 1.0000
17.4600 164.0000 1.0000
17.4800 174.0000 1.0000
17.5000 169.0000 1.0000
17.5200 160.0000 1.0000
17.5400 177.0000 1.0000
17.5600 189.0000 1.0000
17.5800 172.0000 1.0000
17.6000 166.0000 1.0000
17.6200 158.0000 1.0000
17.6400 160.0000 1.0000
17.6600 145.0000 1.0000
17.6800 118.0000 1.0000
17.7000 124.0000 1.0000
17.7200 127.0000 1.0000
17.7400 122.0000 1.0000
17.7600 135.0000 1.0000
17.7800 139.0000 1.0000
17.8000 116.0000 1.0000
17.8200 131.0000 1.0000
17.8400 129.0000 1.0000
17.8600 109.0000 1.0000
17.8800 108.0000 1.0000
17.9000 116.0000 1.0000
17.9200 109.0000 1.0000
17.9400 103.0000 1.0000
17.9600 113.0000 1.0000
17.9800 112.0000 1.0000
18.0000 110.0000 1.0000
18.0200 124.0000 1.0000
18.0400 116.0000 1.0000
18.0600 117.0000 1.0000
18.0800 121.0000 1.0000
18.1000 109.0000 1.0000
18.1200 127.0000 1.0000
18.1400 113.0000 1.0000
18.1600 118.0000 1.0000
18.1800 115.0000 1.0000
18.2000 114.0000 1.0000
18.2200 131.0000 1.0000
18.2400 123.0000 1.0000
18.2600 129.0000 1.0000
18.2800 119.0000 1.0000
18.3000 116.0000 1.0000
18.3200 124.0000 1.0000
18.3400 112.0000 1.0000
18.3600 122.0000 1.0000
18.3800 120.0000 1.0000
18.4000 116.0000 1.0000
18.4200 119.0000 1.0000
18.4400 146.0000 1.0000
18.4600 130.0000 1.0000
18.4800 126.0000 1.0000
18.5000 154.0000 1.0000
18.5200 134.0000 1.0000
18.5400 138.0000 1.0000
18.5600 160.0000 1.0000
18.5800 174.0000 1.0000
18.6000 143.0000 1.0000
18.6200 157.0000 1.0000
18.6400 166.0000 1.0000
18.6600 151.0000 1.0000
18.6800 138.0000 1.0000
18.7000 139.0000 1.0000
18.7200 142.0000 1.0000
18.7400 160.0000 1.0000
18.7600 154.0000 1.0000
18.7800 149.0000 1.0000
18.8000 144.0000 1.0000
18.8200 173.0000 1.0000
18.8400 153.0000 1.0000
18.8600 135.0000 1.0000
18.8800 154.0000 1.0000
18.9000 155.0000 1.0000
18.9200 163.0000 1.0000
18.9400 158.0000 1.0000
18.9600 172.0000 1.0000
18.9800 191.0000 1.0000
19.0000 166.0000 1.0000
19.0200 181.0000 1.0000
19.0400 150.0000 1.0000
19.0600 177.0000 1.0000
19.0800 160.0000 1.0000
19.1000 177.0000 1.0000
19.1200 167.0000 1.0000
19.1400 181.0000 1.0000
19.1600 175.0000 1.0000
19.1800 162.0000 1.0000
19.2000 152.0000 1.0000
19.2200 156.0000 1.0000
19.2400 172.0000 1.0000
19.2600 156.0000 1.0000
19.2800 158.0000 1.0000
19.3000 141.0000 1.0000
19.3200 130.0000 1.0000
19.3400 141.0000 1.0000
19.3600 157.0000 1.0000
19.3800 152.0000 1.0000
19.4000 174.0000 1.0000
19.4200 166.0000 1.0000
19.4400 174.0000 1.0000
19.4600 177.0000 1.0000
19.4800 162.0000 1.0000
19.5000 196.0000 1.0000
19.5200 200.0000 1.0000
19.5400 193.0000 1.0000
19.5600 200.0000 1.0000
19.5800 188.0000 1.0000
19.6000 254.0000 1.0000
19.6200 229.0000 1.0000
19.6400 212.0000 1.0000
19.6600 195.0000 1.0000
19.6800 205.0000 1.0000
19.7000 194.0000 1.0000
19.7200 188.0000 1.0000
19.7400 187.0000 1.0000
19.7600 175.0000 1.0000
19.7800 177.0000 1.0000
19.8000 178.0000 1.0000
19.8200 183.0000 1.0000
19.8400 179.0000 1.0000
19.8600 157.0000 1.0000
19.8800 173.0000 1.0000
19.9000 152.0000 1.0000
19.9200 153.0000 1.0000
19.9400 147.0000 1.0000
19.9600 146.0000 1.0000
19.9800 157.0000 1.0000
20.0000 162.0000 1.0000
20.0200 146.0000 1.0000
20.0400 140.0000 1.0000
20.0600 155.0000 1.0000
20.0800 170.0000 1.0000
20.1000 170.0000 1.0000
20.1200 162.0000 1.0000
20.1400 178.0000 1.0000
20.1600 178.0000 1.0000
20.1800 195.0000 1.0000
20.2000 177.0000 1.0000
20.2200 189.0000 1.0000
20.2400 175.0000 1.0000
20.2600 226.0000 1.0000
20.2800 246.0000 1.0000
20.3000 234.0000 1.0000
20.3200 263.0000 1.0000
20.3400 240.0000 1.0000
20.3600 272.0000 1.0000
20.3800 251.0000 1.0000
20.4000 329.0000 1.0000
20.4200 368.0000 1.0000
20.4400 372.0000 1.0000
20.4600 424.0000 1.0000
20.4800 483.0000 1.0000
20.5000 578.0000 1.0000
20.5200 620.0000 1.0000
20.5400 778.0000 1.0000
20.5600 913.0000 1.0000
20.5800 1187.0000 1.0000
20.6000 1477.0000 1.0000
20.6200 1865.0000 1.0000
20.6400 2160.0000 1.0000
20.6600 2430.0000 1.0000
20.6800 2488.0000 1.0000
20.7000 2492.0000 1.0000
20.7200 2230.0000 1.0000
20.7400 1958.0000 1.0000
20.7600 1534.0000 1.0000
20.7800 1157.0000 1.0000
20.8000 901.0000 1.0000
20.8200 753.0000 1.0000
20.8400 746.0000 1.0000
20.8600 717.0000 1.0000
20.8800 604.0000 1.0000
20.9000 592.0000 1.0000
20.9200 486.0000 1.0000
20.9400 450.0000 1.0000
20.9600 368.0000 1.0000
20.9800 292.0000 1.0000
21.0000 310.0000 1.0000
21.0200 280.0000 1.0000
21.0400 273.0000 1.0000
21.0600 253.0000 1.0000
21.0800 247.0000 1.0000
21.1000 231.0000 1.0000
21.1200 264.0000 1.0000
21.1400 237.0000 1.0000
21.1600 224.0000 1.0000
21.1800 231.0000 1.0000
21.2000 233.0000 1.0000
21.2200 227.0000 1.0000
21.2400 210.0000 1.0000
21.2600 212.0000 1.0000
21.2800 208.0000 1.0000
21.3000 186.0000 1.0000
21.3200 220.0000 1.0000
21.3400 202.0000 1.0000
21.3600 208.0000 1.0000
21.3800 181.0000 1.0000
21.4000 186.0000 1.0000
21.4200 175.0000 1.0000
21.4400 204.0000 1.0000
21.4600 229.0000 1.0000
21.4800 220.0000 1.0000
21.5000 238.0000 1.0000
21.5200 222.0000 1.0000
21.5400 226.0000 1.0000
21.5600 224.0000 1.0000
21.5800 232.0000 1.0000
21.6000 256.0000 1.0000
21.6200 277.0000 1.0000
21.6400 331.0000 1.0000
21.6600 351.0000 1.0000
21.6800 391.0000 1.0000
21.7000 498.0000 1.0000
21.7200 543.0000 1.0000
21.7400 625.0000 1.0000
21.7600 742.0000 1.0000
21.7800 894.0000 1.0000
21.8000 995.0000 1.0000
21.8200 1071.0000 1.0000
21.8400 1111.0000 1.0000
21.8600 1017.0000 1.0000
21.8800 935.0000 1.0000
21.9000 811.0000 1.0000
21.9200 641.0000 1.0000
21.9400 535.0000 1.0000
21.9600 446.0000 1.0000
21.9800 366.0000 1.0000
22.0000 325.0000 1.0000
22.0200 296.0000 1.0000
22.0400 279.0000 1.0000
22.0600 257.0000 1.0000
22.0800 285.0000 1.0000
22.1000 261.0000 1.0000
22.1200 276.0000 1.0000
22.1400 292.0000 1.0000
22.1600 300.0000 1.0000
22.1800 278.0000 1.0000
22.2000 263.0000 1.0000
22.2200 266.0000 1.0000
22.2400 247.0000 1.0000
22.2600 268.0000 1.0000
22.2800 256.0000 1.0000
22.3000 234.0000 1.0000
22.3200 236.0000 1.0000
22.3400 221.0000 1.0000
22.3600 229.0000 1.0000
22.3800 258.0000 1.0000
22.4000 234.0000 1.0000
22.4200 229.0000 1.0000
22.4400 222.0000 1.0000
22.4600 216.0000 1.0000
22.4800 218.0000 1.0000
22.5000 219.0000 1.0000
22.5200 208.0000 1.0000
22.5400 205.0000 1.0000
22.5600 201.0000 1.0000
22.5800 238.0000 1.0000
22.6000 212.0000 1.0000
22.6200 237.0000 1.0000
22.6400 231.0000 1.0000
22.6600 249.0000 1.0000
22.6800 306.0000 1.0000
22.7000 313.0000 1.0000
22.7200 344.0000 1.0000
22.7400 363.0000 1.0000
22.7600 387.0000 1.0000
22.7800 364.0000 1.0000
22.8000 382.0000 1.0000
22.8200 388.0000 1.0000
22.8400 376.0000 1.0000
22.8600 392.0000 1.0000
22.8800 402.0000 1.0000
22.9000 362.0000 1.0000
22.9200 361.0000 1.0000
22.9400 350.0000 1.0000
22.9600 348.0000 1.0000
22.9800 364.0000 1.0000
23.0000 350.0000 1.0000
23.0200 371.0000 1.0000
23.0400 388.0000 1.0000
23.0600 388.0000 1.0000
23.0800 397.0000 1.0000
23.1000 371.0000 1.0000
23.1200 358.0000 1.0000
23.1400 375.0000 1.0000
23.1600 332.0000 1.0000
23.1800 360.0000 1.0000
23.2000 381.0000 1.0000
23.2200 371.0000 1.0000
23.2400 372.0000 1.0000
23.2600 430.0000 1.0000
23.2800 454.0000 1.0000
23.3000 524.0000 1.0000
23.3200 545.0000 1.0000
23.3400 589.0000 1.0000
23.3600 671.0000 1.0000
23.3800 681.0000 1.0000
23.4000 733.0000 1.0000
23.4200 779.0000 1.0000
23.4400 770.0000 1.0000
23.4600 741.0000 1.0000
23.4800 680.0000 1.0000
23.5000 602.0000 1.0000
23.5200 512.0000 1.0000
23.5400 480.0000 1.0000
23.5600 450.0000 1.0000
23.5800 427.0000 1.0000
23.6000 412.0000 1.0000
23.6200 428.0000 1.0000
23.6400 416.0000 1.0000
23.6600 436.0000 1.0000
23.6800 502.0000 1.0000
23.7000 561.0000 1.0000
23.7200 551.0000 1.0000
23.7400 588.0000 1.0000
23.7600 608.0000 1.0000
23.7800 617.0000 1.0000
23.8000 608.0000 1.0000
23.8200 599.0000 1.0000
23.8400 551.0000 1.0000
23.8600 540.0000 1.0000
23.8800 509.0000 1.0000
23.9000 506.0000 1.0000
23.9200 514.0000 1.0000
23.9400 511.0000 1.0000
23.9600 574.0000 1.0000
23.9800 599.0000 1.0000
24.0000 614.0000 1.0000
24.0200 671.0000 1.0000
24.0400 725.0000 1.0000
24.0600 788.0000 1.0000
24.0800 804.0000 1.0000
24.1000 803.0000 1.0000
24.1200 764.0000 1.0000
24.1400 779.0000 1.0000
24.1600 753.0000 1.0000
24.1800 687.0000 1.0000
24.2000 624.0000 1.0000
24.2200 544.0000 1.0000
24.2400 476.0000 1.0000
24.2600 403.0000 1.0000
24.2800 369.0000 1.0000
24.3000 334.0000 1.0000
24.3200 271.0000 1.0000
24.3400 250.0000 1.0000
24.3600 245.0000 1.0000
24.3800 239.0000 1.0000
24.4000 239.0000 1.0000
24.4200 249.0000 1.0000
24.4400 254.0000 1.0000
24.4600 238.0000 1.0000
24.4800 235.0000 1.0000
24.5000 237.0000 1.0000
24.5200 229.0000 1.0000
24.5400 238.0000 1.0000
24.5600 245.0000 1.0000
24.5800 247.0000 1.0000
24.6000 239.0000 1.0000
24.6200 249.0000 1.0000
24.6400 248.0000 1.0000
24.6600 261.0000 1.0000
24.6800 237.0000 1.0000
24.7000 217.0000 1.0000
24.7200 223.0000 1.0000
24.7400 200.0000 1.0000
24.7600 207.0000 1.0000
24.7800 218.0000 1.0000
24.8000 222.0000 1.0000
24.8200 215.0000 1.0000
24.8400 223.0000 1.0000
24.8600 231.0000 1.0000
24.8800 256.0000 1.0000
24.9000 281.0000 1.0000
24.9200 283.0000 1.0000
24.9400 291.0000 1.0000
24.9600 301.0000 1.0000
24.9800 307.0000 1.0000
25.0000 326.0000 1.0000
25.0200 333.0000 1.0000
25.0400 330.0000 1.0000
25.0600 316.0000 1.0000
25.0800 337.0000 1.0000
25.1000 342.0000 1.0000
25.1200 325.0000 1.0000
25.1400 358.0000 1.0000
25.1600 421.0000 1.0000
25.1800 470.0000 1.0000
25.2000 531.0000 1.0000
25.2200 600.0000 1.0000
25.2400 740.0000 1.0000
25.2600 840.0000 1.0000
25.2800 951.0000 1.0000
25.3000 1125.0000 1.0000
25.3200 1354.0000 1.0000
25.3400 1589.0000 1.0000
25.3600 1782.0000 1.0000
25.3800 1921.0000 1.0000
25.4000 1949.0000 1.0000
25.4200 1833.0000 1.0000
25.4400 1682.0000 1.0000
25.4600 1493.0000 1.0000
25.4800 1240.0000 1.0000
25.5000 990.0000 1.0000
25.5200 820.0000 1.0000
25.5400 662.0000 1.0000
25.5600 547.0000 1.0000
25.5800 485.0000 1.0000
25.6000 414.0000 1.0000
25.6200 373.0000 1.0000
25.6400 364.0000 1.0000
25.6600 338.0000 1.0000
25.6800 310.0000 1.0000
25.7000 308.0000 1.0000
25.7200 300.0000 1.0000
25.7400 309.0000 1.0000
25.7600 293.0000 1.0000
25.7800 310.0000 1.0000
25.8000 334.0000 1.0000
25.8200 322.0000 1.0000
25.8400 339.0000 1.0000
25.8600 355.0000 1.0000
25.8800 371.0000 1.0000
25.9000 369.0000 1.0000
25.9200 358.0000 1.0000
25.9400 394.0000 1.0000
25.9600 422.0000 1.0000
25.9800 434.0000 1.0000
26.0000 482.0000 1.0000
26.0200 546.0000 1.0000
26.0400 604.0000 1.0000
26.0600 657.0000 1.0000
26.0800 694.0000 1.0000
26.1000 767.0000 1.0000
26.1200 828.0000 1.0000
26.1400 908.0000 1.0000
26.1600 1036.0000 1.0000
26.1800 1192.0000 1.0000
26.2000 1373.0000 1.0000
26.2200 1617.0000 1.0000
26.2400 1771.0000 1.0000
26.2600 2053.0000 1.0000
26.2800 2491.0000 1.0000
26.3000 2968.0000 1.0000
26.3200 3440.0000 1.0000
26.3400 4111.0000 1.0000
26.3600 5167.0000 1.0000
26.3800 6529.0000 1.0000
26.4000 8267.0000 1.0000
26.4200 10107.0000 1.0000
26.4400 11380.0000 1.0000
26.4600 12082.0000 1.0000
26.4800 11742.0000 1.0000
26.5000 10680.0000 1.0000
26.5200 9185.0000 1.0000
26.5400 7103.0000 1.0000
26.5600 5222.0000 1.0000
26.5800 3782.0000 1.0000
26.6000 2587.0000 1.0000
26.6200 1793.0000 1.0000
26.6400 1343.0000 1.0000
26.6600 1118.0000 1.0000
26.6800 996.0000 1.0000
26.7000 931.0000 1.0000
26.7200 869.0000 1.0000
26.7400 850.0000 1.0000
26.7600 850.0000 1.0000
26.7800 840.0000 1.0000
26.8000 855.0000 1.0000
26.8200 899.0000 1.0000
26.8400 950.0000 1.0000
26.8600 970.0000 1.0000
26.8800 937.0000 1.0000
26.9000 908.0000 1.0000
26.9200 893.0000 1.0000
26.9400 850.0000 1.0000
26.9600 790.0000 1.0000
26.9800 732.0000 1.0000
27.0000 690.0000 1.0000
27.0200 673.0000 1.0000
27.0400 655.0000 1.0000
27.0600 625.0000 1.0000
27.0800 643.0000 1.0000
27.1000 683.0000 1.0000
27.1200 770.0000 1.0000
27.1400 832.0000 1.0000
27.1600 862.0000 1.0000
27.1800 953.0000 1.0000
27.2000 1109.0000 1.0000
27.2200 1277.0000 1.0000
27.2400 1455.0000 1.0000
27.2600 1658.0000 1.0000
27.2800 1808.0000 1.0000
27.3000 1857.0000 1.0000
27.3200 1853.0000 1.0000
27.3400 1801.0000 1.0000
27.3600 1630.0000 1.0000
27.3800 1460.0000 1.0000
27.4000 1345.0000 1.0000
27.4200 1211.0000 1.0000
27.4400 1072.0000 1.0000
27.4600 996.0000 1.0000
27.4800 1011.0000 1.0000
27.5000 1079.0000 1.0000
27.5200 1212.0000 1.0000
27.5400 1331.0000 1.0000
27.5600 1514.0000 1.0000
27.5800 1708.0000 1.0000
27.6000 1792.0000 1.0000
27.6200 1938.0000 1.0000
27.6400 2064.0000 1.0000
27.6600 2158.0000 1.0000
27.6800 2253.0000 1.0000
27.7000 2374.0000 1.0000
27.7200 2504.0000 1.0000
27.7400 2549.0000 1.0000
27.7600 2562.0000 1.0000
27.7800 2600.0000 1.0000
27.8000 2601.0000 1.0000
27.8200 2464.0000 1.0000
27.8400 2286.0000 1.0000
27.8600 2058.0000 1.0000
27.8800 1739.0000 1.0000
27.9000 1460.0000 1.0000
27.9200 1238.0000 1.0000
27.9400 1029.0000 1.0000
27.9600 915.0000 1.0000
27.9800 817.0000 1.0000
28.0000 760.0000 1.0000
28.0200 736.0000 1.0000
28.0400 728.0000 1.0000
28.0600 760.0000 1.0000
28.0800 753.0000 1.0000
28.1000 724.0000 1.0000
28.1200 687.0000 1.0000
28.1400 654.0000 1.0000
28.1600 627.0000 1.0000
28.1800 583.0000 1.0000
28.2000 523.0000 1.0000
28.2200 449.0000 1.0000
28.2400 371.0000 1.0000
28.2600 316.0000 1.0000
28.2800 278.0000 1.0000
28.3000 256.0000 1.0000
28.3200 225.0000 1.0000
28.3400 207.0000 1.0000
28.3600 200.0000 1.0000
28.3800 180.0000 1.0000
28.4000 176.0000 1.0000
28.4200 171.0000 1.0000
28.4400 183.0000 1.0000
28.4600 189.0000 1.0000
28.4800 165.0000 1.0000
28.5000 164.0000 1.0000
28.5200 166.0000 1.0000
28.5400 164.0000 1.0000
28.5600 157.0000 1.0000
28.5800 166.0000 1.0000
28.6000 172.0000 1.0000
28.6200 162.0000 1.0000
28.6400 156.0000 1.0000
28.6600 161.0000 1.0000
28.6800 145.0000 1.0000
28.7000 155.0000 1.0000
28.7200 186.0000 1.0000
28.7400 190.0000 1.0000
28.7600 184.0000 1.0000
28.7800 195.0000 1.0000
28.8000 197.0000 1.0000
28.8200 187.0000 1.0000
28.8400 201.0000 1.0000
28.8600 188.0000 1.0000
28.8800 206.0000 1.0000
28.9000 219.0000 1.0000
28.9200 205.0000 1.0000
28.9400 207.0000 1.0000
28.9600 199.0000 1.0000
28.9800 191.0000 1.0000
29.0000 201.0000 1.0000
29.0200 206.0000 1.0000
29.0400 206.0000 1.0000
29.0600 209.0000 1.0000
29.0800 208.0000 1.0000
29.1000 200.0000 1.0000
29.1200 200.0000 1.0000
29.1400 204.0000 1.0000
29.1600 216.0000 1.0000
29.1800 237.0000 1.0000
29.2000 245.0000 1.0000
29.2200 277.0000 1.0000
29.2400 306.0000 1.0000
29.2600 305.0000 1.0000
29.2800 310.0000 1.0000
29.3000 316.0000 1.0000
29.3200 326.0000 1.0000
29.3400 324.0000 1.0000
29.3600 297.0000 1.0000
29.3800 303.0000 1.0000
29.4000 287.0000 1.0000
29.4200 281.0000 1.0000
29.4400 286.0000 1.0000
29.4600 291.0000 1.0000
29.4800 294.0000 1.0000
29.5000 297.0000 1.0000
29.5200 321.0000 1.0000
29.5400 365.0000 1.0000
29.5600 386.0000 1.0000
29.5800 393.0000 1.0000
29.6000 394.0000 1.0000
29.6200 376.0000 1.0000
29.6400 412.0000 1.0000
29.6600 424.0000 1.0000
29.6800 414.0000 1.0000
29.7000 402.0000 1.0000
29.7200 378.0000 1.0000
29.7400 392.0000 1.0000
29.7600 395.0000 1.0000
29.7800 387.0000 1.0000
29.8000 365.0000 1.0000
29.8200 395.0000 1.0000
29.8400 389.0000 1.0000
29.8600 401.0000 1.0000
29.8800 435.0000 1.0000
29.9000 448.0000 1.0000
29.9200 457.0000 1.0000
29.9400 476.0000 1.0000
29.9600 475.0000 1.0000
29.9800 450.0000 1.0000
30.0000 432.0000 1.0000
30.0200 468.0000 1.0000
30.0400 498.0000 1.0000
30.0600 497.0000 1.0000
30.0800 502.0000 1.0000
30.1000 485.0000 1.0000
30.1200 527.0000 1.0000
30.1400 531.0000 1.0000
30.1600 534.0000 1.0000
30.1800 543.0000 1.0000
30.2000 578.0000 1.0000
30.2200 593.0000 1.0000
30.2400 597.0000 1.0000
30.2600 622.0000 1.0000
30.2800 587.0000 1.0000
30.3000 593.0000 1.0000
30.3200 605.0000 1.0000
30.3400 545.0000 1.0000
30.3600 519.0000 1.0000
30.3800 453.0000 1.0000
30.4000 407.0000 1.0000
30.4200 379.0000 1.0000
30.4400 313.0000 1.0000
30.4600 278.0000 1.0000
30.4800 306.0000 1.0000
30.5000 315.0000 1.0000
30.5200 308.0000 1.0000
30.5400 351.0000 1.0000
30.5600 372.0000 1.0000
30.5800 395.0000 1.0000
30.6000 403.0000 1.0000
30.6200 393.0000 1.0000
30.6400 386.0000 1.0000
30.6600 390.0000 1.0000
30.6800 381.0000 1.0000
30.7000 380.0000 1.0000
30.7200 347.0000 1.0000
30.7400 337.0000 1.0000
30.7600 313.0000 1.0000
30.7800 278.0000 1.0000
30.8000 257.0000 1.0000
30.8200 230.0000 1.0000
30.8400 201.0000 1.0000
30.8600 202.0000 1.0000
30.8800 205.0000 1.0000
30.9000 210.0000 1.0000
30.9200 191.0000 1.0000
30.9400 204.0000 1.0000
30.9600 199.0000 1.0000
30.9800 197.0000 1.0000
31.0000 204.0000 1.0000
31.0200 230.0000 1.0000
31.0400 246.0000 1.0000
31.0600 258.0000 1.0000
31.0800 289.0000 1.0000
31.1000 277.0000 1.0000
31.1200 266.0000 1.0000
31.1400 294.0000 1.0000
31.1600 327.0000 1.0000
31.1800 341.0000 1.0000
31.2000 321.0000 1.0000
31.2200 318.0000 1.0000
31.2400 322.0000 1.0000
31.2600 281.0000 1.0000
31.2800 291.0000 1.0000
31.3000 274.0000 1.0000
31.3200 232.0000 1.0000
31.3400 228.0000 1.0000
31.3600 232.0000 1.0000
31.3800 227.0000 1.0000
31.4000 197.0000 1.0000
31.4200 180.0000 1.0000
31.4400 185.0000 1.0000
31.4600 182.0000 1.0000
31.4800 173.0000 1.0000
31.5000 165.0000 1.0000
31.5200 177.0000 1.0000
31.5400 154.0000 1.0000
31.5600 156.0000 1.0000
31.5800 153.0000 1.0000
31.6000 168.0000 1.0000
31.6200 145.0000 1.0000
31.6400 148.0000 1.0000
31.6600 170.0000 1.0000
31.6800 175.0000 1.0000
31.7000 171.0000 1.0000
31.7200 177.0000 1.0000
31.7400 176.0000 1.0000
31.7600 179.0000 1.0000
31.7800 169.0000 1.0000
31.8000 175.0000 1.0000
31.8200 179.0000 1.0000
31.8400 154.0000 1.0000
31.8600 172.0000 1.0000
31.8800 167.0000 1.0000
31.9000 181.0000 1.0000
31.9200 182.0000 1.0000
31.9400 194.0000 1.0000
31.9600 183.0000 1.0000
31.9800 200.0000 1.0000
32.0000 194.0000 1.0000
32.0200 192.0000 1.0000
32.0400 185.0000 1.0000
32.0600 189.0000 1.0000
32.0800 195.0000 1.0000
32.1000 182.0000 1.0000
32.1200 191.0000 1.0000
32.1400 181.0000 1.0000
32.1600 186.0000 1.0000
32.1800 209.0000 1.0000
32.2000 181.0000 1.0000
32.2200 178.0000 1.0000
32.2400 183.0000 1.0000
32.2600 196.0000 1.0000
32.2800 184.0000 1.0000
32.3000 174.0000 1.0000
32.3200 169.0000 1.0000
32.3400 161.0000 1.0000
32.3600 132.0000 1.0000
32.3800 141.0000 1.0000
32.4000 125.0000 1.0000
32.4200 138.0000 1.0000
32.4400 122.0000 1.0000
32.4600 115.0000 1.0000
32.4800 120.0000 1.0000
32.5000 113.0000 1.0000
32.5200 106.0000 1.0000
32.5400 97.0000 1.0000
32.5600 90.0000 1.0000
32.5800 100.0000 1.0000
32.6000 111.0000 1.0000
32.6200 134.0000 1.0000
32.6400 116.0000 1.0000
32.6600 107.0000 1.0000
32.6800 101.0000 1.0000
32.7000 115.0000 1.0000
32.7200 124.0000 1.0000
32.7400 103.0000 1.0000
32.7600 120.0000 1.0000
32.7800 109.0000 1.0000
32.8000 103.0000 1.0000
32.8200 107.0000 1.0000
32.8400 124.0000 1.0000
32.8600 125.0000 1.0000
32.8800 120.0000 1.0000
32.9000 106.0000 1.0000
32.9200 108.0000 1.0000
32.9400 125.0000 1.0000
32.9600 118.0000 1.0000
32.9800 127.0000 1.0000
33.0000 124.0000 1.0000
33.0200 120.0000 1.0000
33.0400 106.0000 1.0000
33.0600 107.0000 1.0000
33.0800 126.0000 1.0000
33.1000 123.0000 1.0000
33.1200 130.0000 1.0000
33.1400 114.0000 1.0000
33.1600 117.0000 1.0000
33.1800 114.0000 1.0000
33.2000 123.0000 1.0000
33.2200 133.0000 1.0000
33.2400 119.0000 1.0000
33.2600 109.0000 1.0000
33.2800 112.0000 1.0000
33.3000 109.0000 1.0000
33.3200 125.0000 1.0000
33.3400 111.0000 1.0000
33.3600 109.0000 1.0000
33.3800 137.0000 1.0000
33.4000 120.0000 1.0000
33.4200 124.0000 1.0000
33.4400 123.0000 1.0000
33.4600 142.0000 1.0000
33.4800 152.0000 1.0000
33.5000 162.0000 1.0000
33.5200 151.0000 1.0000
33.5400 165.0000 1.0000
33.5600 173.0000 1.0000
33.5800 163.0000 1.0000
33.6000 173.0000 1.0000
33.6200 208.0000 1.0000
33.6400 250.0000 1.0000
33.6600 234.0000 1.0000
33.6800 223.0000 1.0000
33.7000 241.0000 1.0000
33.7200 256.0000 1.0000
33.7400 251.0000 1.0000
33.7600 231.0000 1.0000
33.7800 261.0000 1.0000
33.8000 260.0000 1.0000
33.8200 243.0000 1.0000
33.8400 216.0000 1.0000
33.8600 223.0000 1.0000
33.8800 220.0000 1.0000
33.9000 215.0000 1.0000
33.9200 227.0000 1.0000
33.9400 229.0000 1.0000
33.9600 260.0000 1.0000
33.9800 273.0000 1.0000
34.0000 270.0000 1.0000
34.0200 255.0000 1.0000
34.0400 261.0000 1.0000
34.0600 266.0000 1.0000
34.0800 283.0000 1.0000
34.1000 266.0000 1.0000
34.1200 253.0000 1.0000
34.1400 274.0000 1.0000
34.1600 287.0000 1.0000
34.1800 246.0000 1.0000
34.2000 236.0000 1.0000
34.2200 232.0000 1.0000
34.2400 238.0000 1.0000
34.2600 262.0000 1.0000
34.2800 255.0000 1.0000
34.3000 259.0000 1.0000
34.3200 271.0000 1.0000
34.3400 241.0000 1.0000
34.3600 273.0000 1.0000
34.3800 244.0000 1.0000
34.4000 328.0000 1.0000
34.4200 267.0000 1.0000
34.4400 260.0000 1.0000
34.4600 270.0000 1.0000
34.4800 311.0000 1.0000
34.5000 288.0000 1.0000
34.5200 264.0000 1.0000
34.5400 272.0000 1.0000
34.5600 284.0000 1.0000
34.5800 314.0000 1.0000
34.6000 296.0000 1.0000
34.6200 307.0000 1.0000
34.6400 313.0000 1.0000
34.6600 348.0000 1.0000
34.6800 360.0000 1.0000
34.7000 386.0000 1.0000
34.7200 385.0000 1.0000
34.7400 397.0000 1.0000
34.7600 491.0000 1.0000
34.7800 520.0000 1.0000
34.8000 564.0000 1.0000
34.8200 620.0000 1.0000
34.8400 767.0000 1.0000
34.8600 864.0000 1.0000
34.8800 1065.0000 1.0000
34.9000 1311.0000 1.0000
34.9200 1526.0000 1.0000
34.9400 1808.0000 1.0000
34.9600 1999.0000 1.0000
34.9800 2028.0000 1.0000
35.0000 1980.0000 1.0000
35.0200 1948.0000 1.0000
35.0400 1766.0000 1.0000
35.0600 1487.0000 1.0000
35.0800 1242.0000 1.0000
35.1000 1056.0000 1.0000
35.1200 897.0000 1.0000
35.1400 717.0000 1.0000
35.1600 619.0000 1.0000
35.1800 568.0000 1.0000
35.2000 520.0000 1.0000
35.2200 492.0000 1.0000
35.2400 453.0000 1.0000
35.2600 424.0000 1.0000
35.2800 404.0000 1.0000
35.3000 406.0000 1.0000
35.3200 429.0000 1.0000
35.3400 343.0000 1.0000
35.3600 329.0000 1.0000
35.3800 336.0000 1.0000
35.4000 325.0000 1.0000
35.4200 331.0000 1.0000
35.4400 319.0000 1.0000
35.4600 286.0000 1.0000
35.4800 280.0000 1.0000
35.5000 270.0000 1.0000
35.5200 258.0000 1.0000
35.5400 261.0000 1.0000
35.5600 248.0000 1.0000
35.5800 222.0000 1.0000
35.6000 228.0000 1.0000
35.6200 223.0000 1.0000
35.6400 191.0000 1.0000
35.6600 189.0000 1.0000
35.6800 173.0000 1.0000
35.7000 201.0000 1.0000
35.7200 182.0000 1.0000
35.7400 185.0000 1.0000
35.7600 194.0000 1.0000
35.7800 183.0000 1.0000
35.8000 190.0000 1.0000
35.8200 205.0000 1.0000
35.8400 221.0000 1.0000
35.8600 217.0000 1.0000
35.8800 213.0000 1.0000
35.9000 190.0000 1.0000
35.9200 217.0000 1.0000
35.9400 204.0000 1.0000
35.9600 234.0000 1.0000
35.9800 228.0000 1.0000
36.0000 223.0000 1.0000
36.0200 242.0000 1.0000
36.0400 248.0000 1.0000
36.0600 252.0000 1.0000
36.0800 237.0000 1.0000
36.1000 233.0000 1.0000
36.1200 246.0000 1.0000
36.1400 244.0000 1.0000
36.1600 219.0000 1.0000
36.1800 249.0000 1.0000
36.2000 278.0000 1.0000
36.2200 313.0000 1.0000
36.2400 357.0000 1.0000
36.2600 407.0000 1.0000
36.2800 495.0000 1.0000
36.3000 635.0000 1.0000
36.3200 733.0000 1.0000
36.3400 817.0000 1.0000
36.3600 893.0000 1.0000
36.3800 932.0000 1.0000
36.4000 875.0000 1.0000
36.4200 915.0000 1.0000
36.4400 872.0000 1.0000
36.4600 730.0000 1.0000
36.4800 606.0000 1.0000
36.5000 517.0000 1.0000
36.5200 486.0000 1.0000
36.5400 436.0000 1.0000
36.5600 388.0000 1.0000
36.5800 325.0000 1.0000
36.6000 279.0000 1.0000
36.6200 251.0000 1.0000
36.6400 252.0000 1.0000
36.6600 260.0000 1.0000
36.6800 256.0000 1.0000
36.7000 273.0000 1.0000
36.7200 263.0000 1.0000
36.7400 258.0000 1.0000
36.7600 286.0000 1.0000
36.7800 286.0000 1.0000
36.8000 281.0000 1.0000
36.8200 254.0000 1.0000
36.8400 270.0000 1.0000
36.8600 276.0000 1.0000
36.8800 269.0000 1.0000
36.9000 231.0000 1.0000
36.9200 282.0000 1.0000
36.9400 257.0000 1.0000
36.9600 235.0000 1.0000
36.9800 229.0000 1.0000
37.0000 212.0000 1.0000
37.0200 181.0000 1.0000
37.0400 190.0000 1.0000
37.0600 196.0000 1.0000
37.0800 197.0000 1.0000
37.1000 196.0000 1.0000
37.1200 210.0000 1.0000
37.1400 190.0000 1.0000
37.1600 201.0000 1.0000
37.1800 206.0000 1.0000
37.2000 203.0000 1.0000
37.2200 224.0000 1.0000
37.2400 220.0000 1.0000
37.2600 245.0000 1.0000
37.2800 220.0000 1.0000
37.3000 233.0000 1.0000
37.3200 251.0000 1.0000
37.3400 250.0000 1.0000
37.3600 242.0000 1.0000
37.3800 254.0000 1.0000
37.4000 272.0000 1.0000
37.4200 317.0000 1.0000
37.4400 336.0000 1.0000
37.4600 378.0000 1.0000
37.4800 432.0000 1.0000
37.5000 500.0000 1.0000
37.5200 563.0000 1.0000
37.5400 659.0000 1.0000
37.5600 747.0000 1.0000
37.5800 828.0000 1.0000
37.6000 847.0000 1.0000
37.6200 852.0000 1.0000
37.6400 825.0000 1.0000
37.6600 717.0000 1.0000
37.6800 651.0000 1.0000
37.7000 561.0000 1.0000
37.7200 489.0000 1.0000
37.7400 390.0000 1.0000
37.7600 351.0000 1.0000
37.7800 272.0000 1.0000
37.8000 212.0000 1.0000
37.8200 191.0000 1.0000
37.8400 178.0000 1.0000
37.8600 175.0000 1.0000
37.8800 149.0000 1.0000
37.9000 154.0000 1.0000
37.9200 148.0000 1.0000
37.9400 169.0000 1.0000
37.9600 143.0000 1.0000
37.9800 138.0000 1.0000
38.0000 140.0000 1.0000
38.0200 143.0000 1.0000
38.0400 147.0000 1.0000
38.0600 131.0000 1.0000
38.0800 144.0000 1.0000
38.1000 138.0000 1.0000
38.1200 119.0000 1.0000
38.1400 127.0000 1.0000
38.1600 121.0000 1.0000
38.1800 118.0000 1.0000
38.2000 148.0000 1.0000
38.2200 137.0000 1.0000
38.2400 149.0000 1.0000
38.2600 162.0000 1.0000
38.2800 166.0000 1.0000
38.3000 166.0000 1.0000
38.3200 166.0000 1.0000
38.3400 184.0000 1.0000
38.3600 201.0000 1.0000
38.3800 195.0000 1.0000
38.4000 203.0000 1.0000
38.4200 201.0000 1.0000
38.4400 206.0000 1.0000
38.4600 198.0000 1.0000
38.4800 177.0000 1.0000
38.5000 166.0000 1.0000
38.5200 186.0000 1.0000
38.5400 172.0000 1.0000
38.5600 151.0000 1.0000
38.5800 159.0000 1.0000
38.6000 154.0000 1.0000
38.6200 163.0000 1.0000
38.6400 160.0000 1.0000
38.6600 166.0000 1.0000
38.6800 159.0000 1.0000
38.7000 164.0000 1.0000
38.7200 175.0000 1.0000
38.7400 173.0000 1.0000
38.7600 165.0000 1.0000
38.7800 162.0000 1.0000
38.8000 161.0000 1.0000
38.8200 157.0000 1.0000
38.8400 173.0000 1.0000
38.8600 182.0000 1.0000
38.8800 192.0000 1.0000
38.9000 181.0000 1.0000
38.9200 180.0000 1.0000
38.9400 192.0000 1.0000
38.9600 188.0000 1.0000
38.9800 184.0000 1.0000
39.0000 173.0000 1.0000
39.0200 185.0000 1.0000
39.0400 198.0000 1.0000
39.0600 182.0000 1.0000
39.0800 188.0000 1.0000
39.1000 204.0000 1.0000
39.1200 221.0000 1.0000
39.1400 236.0000 1.0000
39.1600 290.0000 1.0000
39.1800 323.0000 1.0000
39.2000 389.0000 1.0000
39.2200 469.0000 1.0000
39.2400 567.0000 1.0000
39.2600 681.0000 1.0000
39.2800 736.0000 1.0000
39.3000 776.0000 1.0000
39.3200 787.0000 1.0000
39.3400 765.0000 1.0000
39.3600 717.0000 1.0000
39.3800 633.0000 1.0000
39.4000 550.0000 1.0000
39.4200 494.0000 1.0000
39.4400 416.0000 1.0000
39.4600 361.0000 1.0000
39.4800 295.0000 1.0000
39.5000 225.0000 1.0000
39.5200 198.0000 1.0000
39.5400 207.0000 1.0000
39.5600 197.0000 1.0000
39.5800 173.0000 1.0000
39.6000 160.0000 1.0000
39.6200 148.0000 1.0000
39.6400 158.0000 1.0000
39.6600 155.0000 1.0000
39.6800 147.0000 1.0000
39.7000 151.0000 1.0000
39.7200 141.0000 1.0000
39.7400 142.0000 1.0000
39.7600 150.0000 1.0000
39.7800 154.0000 1.0000
39.8000 153.0000 1.0000
39.8200 148.0000 1.0000
39.8400 162.0000 1.0000
39.8600 167.0000 1.0000
39.8800 156.0000 1.0000
39.9000 148.0000 1.0000
39.9200 159.0000 1.0000
39.9400 181.0000 1.0000
39.9600 198.0000 1.0000
39.9800 208.0000 1.0000
40.0000 208.0000 1.0000
40.0200 241.0000 1.0000
40.0400 287.0000 1.0000
40.0600 335.0000 1.0000
40.0800 428.0000 1.0000
40.1000 450.0000 1.0000
40.1200 455.0000 1.0000
40.1400 482.0000 1.0000
40.1600 459.0000 1.0000
40.1800 428.0000 1.0000
40.2000 387.0000 1.0000
40.2200 331.0000 1.0000
40.2400 287.0000 1.0000
40.2600 260.0000 1.0000
40.2800 229.0000 1.0000
40.3000 192.0000 1.0000
40.3200 188.0000 1.0000
40.3400 164.0000 1.0000
40.3600 136.0000 1.0000
40.3800 134.0000 1.0000
40.4000 124.0000 1.0000
40.4200 137.0000 1.0000
40.4400 156.0000 1.0000
40.4600 154.0000 1.0000
40.4800 154.0000 1.0000
40.5000 149.0000 1.0000
40.5200 137.0000 1.0000
40.5400 132.0000 1.0000
40.5600 136.0000 1.0000
40.5800 146.0000 1.0000
40.6000 155.0000 1.0000
40.6200 168.0000 1.0000
40.6400 164.0000 1.0000
40.6600 146.0000 1.0000
40.6800 147.0000 1.0000
40.7000 139.0000 1.0000
40.7200 131.0000 1.0000
40.7400 133.0000 1.0000
40.7600 130.0000 1.0000
40.7800 142.0000 1.0000
40.8000 141.0000 1.0000
40.8200 137.0000 1.0000
40.8400 130.0000 1.0000
40.8600 128.0000 1.0000
40.8800 135.0000 1.0000
40.9000 136.0000 1.0000
40.9200 141.0000 1.0000
40.9400 142.0000 1.0000
40.9600 156.0000 1.0000
40.9800 162.0000 1.0000
41.0000 145.0000 1.0000
41.0200 147.0000 1.0000
41.0400 148.0000 1.0000
41.0600 158.0000 1.0000
41.0800 165.0000 1.0000
41.1000 151.0000 1.0000
41.1200 145.0000 1.0000
41.1400 158.0000 1.0000
41.1600 165.0000 1.0000
41.1800 157.0000 1.0000
41.2000 150.0000 1.0000
41.2200 152.0000 1.0000
41.2400 152.0000 1.0000
41.2600 156.0000 1.0000
41.2800 150.0000 1.0000
41.3000 143.0000 1.0000
41.3200 165.0000 1.0000
41.3400 163.0000 1.0000
41.3600 146.0000 1.0000
41.3800 150.0000 1.0000
41.4000 162.0000 1.0000
41.4200 161.0000 1.0000
41.4400 174.0000 1.0000
41.4600 204.0000 1.0000
41.4800 222.0000 1.0000
41.5000 229.0000 1.0000
41.5200 238.0000 1.0000
41.5400 257.0000 1.0000
41.5600 304.0000 1.0000
41.5800 339.0000 1.0000
41.6000 362.0000 1.0000
41.6200 382.0000 1.0000
41.6400 393.0000 1.0000
41.6600 414.0000 1.0000
41.6800 402.0000 1.0000
41.7000 377.0000 1.0000
41.7200 349.0000 1.0000
41.7400 306.0000 1.0000
41.7600 301.0000 1.0000
41.7800 291.0000 1.0000
41.8000 275.0000 1.0000
41.8200 244.0000 1.0000
41.8400 220.0000 1.0000
41.8600 203.0000 1.0000
41.8800 202.0000 1.0000
41.9000 182.0000 1.0000
41.9200 183.0000 1.0000
41.9400 177.0000 1.0000
41.9600 175.0000 1.0000
41.9800 187.0000 1.0000
42.0000 198.0000 1.0000
42.0200 211.0000 1.0000
42.0400 217.0000 1.0000
42.0600 234.0000 1.0000
42.0800 242.0000 1.0000
42.1000 270.0000 1.0000
42.1200 287.0000 1.0000
42.1400 344.0000 1.0000
42.1600 400.0000 1.0000
42.1800 440.0000 1.0000
42.2000 484.0000 1.0000
42.2200 539.0000 1.0000
42.2400 637.0000 1.0000
42.2600 729.0000 1.0000
42.2800 748.0000 1.0000
42.3000 718.0000 1.0000
42.3200 708.0000 1.0000
42.3400 660.0000 1.0000
42.3600 592.0000 1.0000
42.3800 518.0000 1.0000
42.4000 496.0000 1.0000
42.4200 447.0000 1.0000
42.4400 367.0000 1.0000
42.4600 301.0000 1.0000
42.4800 281.0000 1.0000
42.5000 263.0000 1.0000
42.5200 262.0000 1.0000
42.5400 245.0000 1.0000
42.5600 251.0000 1.0000
42.5800 244.0000 1.0000
42.6000 266.0000 1.0000
42.6200 272.0000 1.0000
42.6400 270.0000 1.0000
42.6600 272.0000 1.0000
42.6800 272.0000 1.0000
42.7000 283.0000 1.0000
42.7200 284.0000 1.0000
42.7400 278.0000 1.0000
42.7600 285.0000 1.0000
42.7800 285.0000 1.0000
42.8000 259.0000 1.0000
42.8200 260.0000 1.0000
42.8400 253.0000 1.0000
42.8600 243.0000 1.0000
42.8800 260.0000 1.0000
42.9000 257.0000 1.0000
42.9200 256.0000 1.0000
42.9400 284.0000 1.0000
42.9600 307.0000 1.0000
42.9800 352.0000 1.0000
43.0000 381.0000 1.0000
43.0200 401.0000 1.0000
43.0400 496.0000 1.0000
43.0600 619.0000 1.0000
43.0800 754.0000 1.0000
43.1000 975.0000 1.0000
43.1200 1245.0000 1.0000
43.1400 1475.0000 1.0000
43.1600 1688.0000 1.0000
43.1800 1829.0000 1.0000
43.2000 1922.0000 1.0000
43.2200 1830.0000 1.0000
43.2400 1698.0000 1.0000
43.2600 1491.0000 1.0000
43.2800 1288.0000 1.0000
43.3000 1157.0000 1.0000
43.3200 967.0000 1.0000
43.3400 826.0000 1.0000
43.3600 686.0000 1.0000
43.3800 516.0000 1.0000
43.4000 408.0000 1.0000
43.4200 320.0000 1.0000
43.4400 285.0000 1.0000
43.4600 260.0000 1.0000
43.4800 232.0000 1.0000
43.5000 227.0000 1.0000
43.5200 220.0000 1.0000
43.5400 197.0000 1.0000
43.5600 185.0000 1.0000
43.5800 184.0000 1.0000
43.6000 169.0000 1.0000
43.6200 157.0000 1.0000
43.6400 155.0000 1.0000
43.6600 140.0000 1.0000
43.6800 169.0000 1.0000
43.7000 160.0000 1.0000
43.7200 147.0000 1.0000
43.7400 139.0000 1.0000
43.7600 151.0000 1.0000
43.7800 136.0000 1.0000
43.8000 120.0000 1.0000
43.8200 143.0000 1.0000
43.8400 148.0000 1.0000
43.8600 152.0000 1.0000
43.8800 124.0000 1.0000
43.9000 143.0000 1.0000
43.9200 149.0000 1.0000
43.9400 141.0000 1.0000
43.9600 139.0000 1.0000
43.9800 139.0000 1.0000
44.0000 150.0000 1.0000
44.0200 143.0000 1.0000
44.0400 141.0000 1.0000
44.0600 120.0000 1.0000
44.0800 138.0000 1.0000
44.1000 129.0000 1.0000
44.1200 117.0000 1.0000
44.1400 138.0000 1.0000
44.1600 123.0000 1.0000
44.1800 120.0000 1.0000
44.2000 116.0000 1.0000
44.2200 131.0000 1.0000
44.2400 128.0000 1.0000
44.2600 126.0000 1.0000
44.2800 122.0000 1.0000
44.3000 126.0000 1.0000
44.3200 132.0000 1.0000
44.3400 126.0000 1.0000
44.3600 123.0000 1.0000
44.3800 129.0000 1.0000
44.4000 136.0000 1.0000
44.4200 136.0000 1.0000
44.4400 128.0000 1.0000
44.4600 126.0000 1.0000
44.4800 141.0000 1.0000
44.5000 152.0000 1.0000
44.5200 127.0000 1.0000
44.5400 139.0000 1.0000
44.5600 145.0000 1.0000
44.5800 134.0000 1.0000
44.6000 153.0000 1.0000
44.6200 144.0000 1.0000
44.6400 132.0000 1.0000
44.6600 144.0000 1.0000
44.6800 117.0000 1.0000
44.7000 155.0000 1.0000
44.7200 142.0000 1.0000
44.7400 174.0000 1.0000
44.7600 147.0000 1.0000
44.7800 171.0000 1.0000
44.8000 160.0000 1.0000
44.8200 139.0000 1.0000
44.8400 149.0000 1.0000
44.8600 175.0000 1.0000
44.8800 168.0000 1.0000
44.9000 173.0000 1.0000
44.9200 163.0000 1.0000
44.9400 161.0000 1.0000
44.9600 168.0000 1.0000
44.9800 166.0000 1.0000
45.0000 151.0000 1.0000
45.0200 173.0000 1.0000
45.0400 180.0000 1.0000
45.0600 185.0000 1.0000
45.0800 173.0000 1.0000
45.1000 187.0000 1.0000
45.1200 186.0000 1.0000
45.1400 175.0000 1.0000
45.1600 193.0000 1.0000
45.1800 163.0000 1.0000
45.2000 189.0000 1.0000
45.2200 212.0000 1.0000
45.2400 190.0000 1.0000
45.2600 185.0000 1.0000
45.2800 185.0000 1.0000
45.3000 198.0000 1.0000
45.3200 233.0000 1.0000
45.3400 205.0000 1.0000
45.3600 217.0000 1.0000
45.3800 212.0000 1.0000
45.4000 219.0000 1.0000
45.4200 247.0000 1.0000
45.4400 248.0000 1.0000
45.4600 276.0000 1.0000
45.4800 287.0000 1.0000
45.5000 289.0000 1.0000
45.5200 315.0000 1.0000
45.5400 358.0000 1.0000
45.5600 403.0000 1.0000
45.5800 429.0000 1.0000
45.6000 509.0000 1.0000
45.6200 503.0000 1.0000
45.6400 515.0000 1.0000
45.6600 509.0000 1.0000
45.6800 455.0000 1.0000
45.7000 454.0000 1.0000
45.7200 370.0000 1.0000
45.7400 371.0000 1.0000
45.7600 356.0000 1.0000
45.7800 321.0000 1.0000
45.8000 269.0000 1.0000
45.8200 230.0000 1.0000
45.8400 212.0000 1.0000
45.8600 179.0000 1.0000
45.8800 184.0000 1.0000
45.9000 196.0000 1.0000
45.9200 170.0000 1.0000
45.9400 161.0000 1.0000
45.9600 140.0000 1.0000
45.9800 170.0000 1.0000
46.0000 177.0000 1.0000
46.0200 184.0000 1.0000
46.0400 189.0000 1.0000
46.0600 164.0000 1.0000
46.0800 171.0000 1.0000
46.1000 163.0000 1.0000
46.1200 175.0000 1.0000
46.1400 149.0000 1.0000
46.1600 148.0000 1.0000
46.1800 157.0000 1.0000
46.2000 137.0000 1.0000
46.2200 136.0000 1.0000
46.2400 127.0000 1.0000
46.2600 128.0000 1.0000
46.2800 127.0000 1.0000
46.3000 136.0000 1.0000
46.3200 129.0000 1.0000
46.3400 119.0000 1.0000
46.3600 103.0000 1.0000
46.3800 102.0000 1.0000
46.4000 126.0000 1.0000
46.4200 124.0000 1.0000
46.4400 124.0000 1.0000
46.4600 108.0000 1.0000
46.4800 135.0000 1.0000
46.5000 127.0000 1.0000
46.5200 126.0000 1.0000
46.5400 115.0000 1.0000
46.5600 119.0000 1.0000
46.5800 118.0000 1.0000
46.6000 146.0000 1.0000
46.6200 125.0000 1.0000
46.6400 132.0000 1.0000
46.6600 153.0000 1.0000
46.6800 148.0000 1.0000
46.7000 142.0000 1.0000
46.7200 156.0000 1.0000
46.7400 148.0000 1.0000
46.7600 157.0000 1.0000
46.7800 138.0000 1.0000
46.8000 140.0000 1.0000
46.8200 149.0000 1.0000
46.8400 149.0000 1.0000
46.8600 156.0000 1.0000
46.8800 157.0000 1.0000
46.9000 162.0000 1.0000
46.9200 158.0000 1.0000
46.9400 174.0000 1.0000
46.9600 158.0000 1.0000
46.9800 150.0000 1.0000
47.0000 156.0000 1.0000
47.0200 187.0000 1.0000
47.0400 169.0000 1.0000
47.0600 167.0000 1.0000
47.0800 154.0000 1.0000
47.1000 153.0000 1.0000
47.1200 160.0000 1.0000
47.1400 148.0000 1.0000
47.1600 143.0000 1.0000
47.1800 148.0000 1.0000
47.2000 131.0000 1.0000
47.2200 138.0000 1.0000
47.2400 149.0000 1.0000
47.2600 146.0000 1.0000
47.2800 150.0000 1.0000
47.3000 179.0000 1.0000
47.3200 177.0000 1.0000
47.3400 179.0000 1.0000
47.3600 178.0000 1.0000
47.3800 169.0000 1.0000
47.4000 166.0000 1.0000
47.4200 146.0000 1.0000
47.4400 165.0000 1.0000
47.4600 164.0000 1.0000
47.4800 142.0000 1.0000
47.5000 133.0000 1.0000
47.5200 135.0000 1.0000
47.5400 134.0000 1.0000
47.5600 130.0000 1.0000
47.5800 121.0000 1.0000
47.6000 124.0000 1.0000
47.6200 138.0000 1.0000
47.6400 138.0000 1.0000
47.6600 146.0000 1.0000
47.6800 132.0000 1.0000
47.7000 131.0000 1.0000
47.7200 131.0000 1.0000
47.7400 139.0000 1.0000
47.7600 130.0000 1.0000
47.7800 141.0000 1.0000
47.8000 148.0000 1.0000
47.8200 151.0000 1.0000
47.8400 150.0000 1.0000
47.8600 152.0000 1.0000
47.8800 153.0000 1.0000
47.9000 126.0000 1.0000
47.9200 147.0000 1.0000
47.9400 164.0000 1.0000
47.9600 160.0000 1.0000
47.9800 156.0000 1.0000
48.0000 155.0000 1.0000
48.0200 169.0000 1.0000
48.0400 171.0000 1.0000
48.0600 153.0000 1.0000
48.0800 163.0000 1.0000
48.1000 172.0000 1.0000
48.1200 184.0000 1.0000
48.1400 189.0000 1.0000
48.1600 187.0000 1.0000
48.1800 195.0000 1.0000
48.2000 208.0000 1.0000
48.2200 192.0000 1.0000
48.2400 167.0000 1.0000
48.2600 152.0000 1.0000
48.2800 159.0000 1.0000
48.3000 156.0000 1.0000
48.3200 140.0000 1.0000
48.3400 144.0000 1.0000
48.3600 153.0000 1.0000
48.3800 141.0000 1.0000
48.4000 118.0000 1.0000
48.4200 132.0000 1.0000
48.4400 142.0000 1.0000
48.4600 129.0000 1.0000
48.4800 123.0000 1.0000
48.5000 132.0000 1.0000
48.5200 145.0000 1.0000
48.5400 142.0000 1.0000
48.5600 137.0000 1.0000
48.5800 131.0000 1.0000
48.6000 147.0000 1.0000
48.6200 161.0000 1.0000
48.6400 161.0000 1.0000
48.6600 153.0000 1.0000
48.6800 154.0000 1.0000
48.7000 164.0000 1.0000
48.7200 184.0000 1.0000
48.7400 195.0000 1.0000
48.7600 191.0000 1.0000
48.7800 191.0000 1.0000
48.8000 188.0000 1.0000
48.8200 192.0000 1.0000
48.8400 208.0000 1.0000
48.8600 205.0000 1.0000
48.8800 186.0000 1.0000
48.9000 191.0000 1.0000
48.9200 227.0000 1.0000
48.9400 240.0000 1.0000
48.9600 231.0000 1.0000
48.9800 237.0000 1.0000
49.0000 240.0000 1.0000
49.0200 237.0000 1.0000
49.0400 236.0000 1.0000
49.0600 236.0000 1.0000
49.0800 242.0000 1.0000
49.1000 258.0000 1.0000
49.1200 250.0000 1.0000
49.1400 218.0000 1.0000
49.1600 202.0000 1.0000
49.1800 207.0000 1.0000
49.2000 201.0000 1.0000
49.2200 177.0000 1.0000
49.2400 173.0000 1.0000
49.2600 181.0000 1.0000
49.2800 191.0000 1.0000
49.3000 186.0000 1.0000
49.3200 178.0000 1.0000
49.3400 182.0000 1.0000
49.3600 181.0000 1.0000
49.3800 180.0000 1.0000
49.4000 186.0000 1.0000
49.4200 201.0000 1.0000
49.4400 188.0000 1.0000
49.4600 204.0000 1.0000
49.4800 235.0000 1.0000
49.5000 227.0000 1.0000
49.5200 220.0000 1.0000
49.5400 237.0000 1.0000
49.5600 273.0000 1.0000
49.5800 284.0000 1.0000
49.6000 287.0000 1.0000
49.6200 304.0000 1.0000
49.6400 332.0000 1.0000
49.6600 358.0000 1.0000
49.6800 367.0000 1.0000
49.7000 388.0000 1.0000
49.7200 396.0000 1.0000
49.7400 399.0000 1.0000
49.7600 421.0000 1.0000
49.7800 443.0000 1.0000
49.8000 470.0000 1.0000
49.8200 489.0000 1.0000
49.8400 538.0000 1.0000
49.8600 616.0000 1.0000
49.8800 712.0000 1.0000
49.9000 832.0000 1.0000
49.9200 1020.0000 1.0000
49.9400 1136.0000 1.0000
49.9600 1257.0000 1.0000
49.9800 1321.0000 1.0000
50.0000 1288.0000 1.0000
50.0200 1246.0000 1.0000
50.0400 1100.0000 1.0000
50.0600 947.0000 1.0000
50.0800 900.0000 1.0000
50.1000 821.0000 1.0000
50.1200 760.0000 1.0000
50.1400 679.0000 1.0000
50.1600 594.0000 1.0000
50.1800 479.0000 1.0000
50.2000 391.0000 1.0000
50.2200 335.0000 1.0000
50.2400 288.0000 1.0000
50.2600 308.0000 1.0000
50.2800 332.0000 1.0000
50.3000 332.0000 1.0000
50.3200 323.0000 1.0000
50.3400 376.0000 1.0000
50.3600 412.0000 1.0000
50.3800 415.0000 1.0000
50.4000 430.0000 1.0000
50.4200 451.0000 1.0000
50.4400 379.0000 1.0000
50.4600 399.0000 1.0000
50.4800 417.0000 1.0000
50.5000 412.0000 1.0000
50.5200 392.0000 1.0000
50.5400 392.0000 1.0000
50.5600 400.0000 1.0000
50.5800 396.0000 1.0000
50.6000 379.0000 1.0000
50.6200 347.0000 1.0000
50.6400 342.0000 1.0000
50.6600 314.0000 1.0000
50.6800 297.0000 1.0000
50.7000 263.0000 1.0000
50.7200 237.0000 1.0000
50.7400 240.0000 1.0000
50.7600 254.0000 1.0000
50.7800 238.0000 1.0000
50.8000 222.0000 1.0000
50.8200 206.0000 1.0000
50.8400 210.0000 1.0000
50.8600 206.0000 1.0000
50.8800 196.0000 1.0000
50.9000 194.0000 1.0000
50.9200 214.0000 1.0000
50.9400 232.0000 1.0000
50.9600 215.0000 1.0000
50.9800 243.0000 1.0000
51.0000 243.0000 1.0000
51.0200 252.0000 1.0000
51.0400 252.0000 1.0000
51.0600 249.0000 1.0000
51.0800 274.0000 1.0000
51.1000 284.0000 1.0000
51.1200 284.0000 1.0000
51.1400 271.0000 1.0000
51.1600 269.0000 1.0000
51.1800 263.0000 1.0000
51.2000 251.0000 1.0000
51.2200 264.0000 1.0000
51.2400 245.0000 1.0000
51.2600 236.0000 1.0000
51.2800 243.0000 1.0000
51.3000 227.0000 1.0000
51.3200 197.0000 1.0000
51.3400 206.0000 1.0000
51.3600 201.0000 1.0000
51.3800 163.0000 1.0000
51.4000 190.0000 1.0000
51.4200 180.0000 1.0000
51.4400 148.0000 1.0000
51.4600 134.0000 1.0000
51.4800 161.0000 1.0000
51.5000 151.0000 1.0000
51.5200 149.0000 1.0000
51.5400 168.0000 1.0000
51.5600 146.0000 1.0000
51.5800 128.0000 1.0000
51.6000 135.0000 1.0000
51.6200 131.0000 1.0000
51.6400 129.0000 1.0000
51.6600 144.0000 1.0000
51.6800 127.0000 1.0000
51.7000 112.0000 1.0000
51.7200 138.0000 1.0000
51.7400 132.0000 1.0000
51.7600 116.0000 1.0000
51.7800 135.0000 1.0000
51.8000 111.0000 1.0000
51.8200 126.0000 1.0000
51.8400 151.0000 1.0000
51.8600 114.0000 1.0000
51.8800 133.0000 1.0000
51.9000 136.0000 1.0000
51.9200 142.0000 1.0000
51.9400 136.0000 1.0000
51.9600 135.0000 1.0000
51.9800 148.0000 1.0000
52.0000 152.0000 1.0000
52.0200 150.0000 1.0000
52.0400 164.0000 1.0000
52.0600 186.0000 1.0000
52.0800 172.0000 1.0000
52.1000 198.0000 1.0000
52.1200 192.0000 1.0000
52.1400 216.0000 1.0000
52.1600 213.0000 1.0000
52.1800 220.0000 1.0000
52.2000 224.0000 1.0000
52.2200 254.0000 1.0000
52.2400 261.0000 1.0000
52.2600 339.0000 1.0000
52.2800 342.0000 1.0000
52.3000 407.0000 1.0000
52.3200 530.0000 1.0000
52.3400 697.0000 1.0000
52.3600 722.0000 1.0000
52.3800 825.0000 1.0000
52.4000 886.0000 1.0000
52.4200 889.0000 1.0000
52.4400 808.0000 1.0000
52.4600 789.0000 1.0000
52.4800 745.0000 1.0000
52.5000 663.0000 1.0000
52.5200 652.0000 1.0000
52.5400 607.0000 1.0000
52.5600 593.0000 1.0000
52.5800 498.0000 1.0000
52.6000 430.0000 1.0000
52.6200 349.0000 1.0000
52.6400 302.0000 1.0000
52.6600 285.0000 1.0000
52.6800 238.0000 1.0000
52.7000 222.0000 1.0000
52.7200 201.0000 1.0000
52.7400 189.0000 1.0000
52.7600 186.0000 1.0000
52.7800 197.0000 1.0000
52.8000 192.0000 1.0000
52.8200 185.0000 1.0000
52.8400 161.0000 1.0000
52.8600 211.0000 1.0000
52.8800 187.0000 1.0000
52.9000 178.0000 1.0000
52.9200 183.0000 1.0000
52.9400 164.0000 1.0000
52.9600 175.0000 1.0000
52.9800 168.0000 1.0000
53.0000 172.0000 1.0000
53.0200 183.0000 1.0000
53.0400 199.0000 1.0000
53.0600 190.0000 1.0000
53.0800 200.0000 1.0000
53.1000 185.0000 1.0000
53.1200 190.0000 1.0000
53.1400 173.0000 1.0000
53.1600 167.0000 1.0000
53.1800 161.0000 1.0000
53.2000 154.0000 1.0000
53.2200 168.0000 1.0000
53.2400 135.0000 1.0000
53.2600 134.0000 1.0000
53.2800 147.0000 1.0000
53.3000 153.0000 1.0000
53.3200 127.0000 1.0000
53.3400 131.0000 1.0000
53.3600 125.0000 1.0000
53.3800 125.0000 1.0000
53.4000 109.0000 1.0000
53.4200 132.0000 1.0000
53.4400 130.0000 1.0000
53.4600 126.0000 1.0000
53.4800 112.0000 1.0000
53.5000 111.0000 1.0000
53.5200 118.0000 1.0000
53.5400 115.0000 1.0000
53.5600 118.0000 1.0000
53.5800 134.0000 1.0000
53.6000 143.0000 1.0000
53.6200 128.0000 1.0000
53.6400 122.0000 1.0000
53.6600 116.0000 1.0000
53.6800 133.0000 1.0000
53.7000 134.0000 1.0000
53.7200 148.0000 1.0000
53.7400 135.0000 1.0000
53.7600 120.0000 1.0000
53.7800 137.0000 1.0000
53.8000 126.0000 1.0000
53.8200 130.0000 1.0000
53.8400 144.0000 1.0000
53.8600 135.0000 1.0000
53.8800 148.0000 1.0000
53.9000 139.0000 1.0000
53.9200 132.0000 1.0000
53.9400 142.0000 1.0000
53.9600 141.0000 1.0000
53.9800 138.0000 1.0000
54.0000 140.0000 1.0000
54.0200 142.0000 1.0000
54.0400 137.0000 1.0000
54.0600 140.0000 1.0000
54.0800 135.0000 1.0000
54.1000 139.0000 1.0000
54.1200 146.0000 1.0000
54.1400 143.0000 1.0000
54.1600 140.0000 1.0000
54.1800 131.0000 1.0000
54.2000 145.0000 1.0000
54.2200 152.0000 1.0000
54.2400 158.0000 1.0000
54.2600 171.0000 1.0000
54.2800 172.0000 1.0000
54.3000 166.0000 1.0000
54.3200 164.0000 1.0000
54.3400 153.0000 1.0000
54.3600 153.0000 1.0000
54.3800 166.0000 1.0000
54.4000 168.0000 1.0000
54.4200 165.0000 1.0000
54.4400 174.0000 1.0000
54.4600 185.0000 1.0000
54.4800 172.0000 1.0000
54.5000 160.0000 1.0000
54.5200 155.0000 1.0000
54.5400 180.0000 1.0000
54.5600 184.0000 1.0000
54.5800 201.0000 1.0000
54.6000 227.0000 1.0000
54.6200 274.0000 1.0000
54.6400 300.0000 1.0000
54.6600 365.0000 1.0000
54.6800 424.0000 1.0000
54.7000 472.0000 1.0000
54.7200 527.0000 1.0000
54.7400 504.0000 1.0000
54.7600 460.0000 1.0000
54.7800 412.0000 1.0000
54.8000 357.0000 1.0000
54.8200 344.0000 1.0000
54.8400 344.0000 1.0000
54.8600 357.0000 1.0000
54.8800 336.0000 1.0000
54.9000 303.0000 1.0000
54.9200 280.0000 1.0000
54.9400 241.0000 1.0000
54.9600 217.0000 1.0000
54.9800 198.0000 1.0000
55.0000 188.0000 1.0000
55.0200 192.0000 1.0000
55.0400 182.0000 1.0000
55.0600 189.0000 1.0000
55.0800 218.0000 1.0000
55.1000 240.0000 1.0000
55.1200 253.0000 1.0000
55.1400 293.0000 1.0000
55.1600 300.0000 1.0000
55.1800 312.0000 1.0000
55.2000 312.0000 1.0000
55.2200 292.0000 1.0000
55.2400 274.0000 1.0000
55.2600 270.0000 1.0000
55.2800 261.0000 1.0000
55.3000 246.0000 1.0000
55.3200 234.0000 1.0000
55.3400 224.0000 1.0000
55.3600 208.0000 1.0000
55.3800 197.0000 1.0000
55.4000 187.0000 1.0000
55.4200 187.0000 1.0000
55.4400 180.0000 1.0000
55.4600 163.0000 1.0000
55.4800 153.0000 1.0000
55.5000 151.0000 1.0000
55.5200 141.0000 1.0000
55.5400 130.0000 1.0000
55.5600 132.0000 1.0000
55.5800 141.0000 1.0000
55.6000 149.0000 1.0000
55.6200 140.0000 1.0000
55.6400 145.0000 1.0000
55.6600 137.0000 1.0000
55.6800 132.0000 1.0000
55.7000 123.0000 1.0000
55.7200 113.0000 1.0000
55.7400 126.0000 1.0000
55.7600 144.0000 1.0000
55.7800 139.0000 1.0000
55.8000 124.0000 1.0000
55.8200 132.0000 1.0000
55.8400 129.0000 1.0000
55.8600 127.0000 1.0000
55.8800 135.0000 1.0000
55.9000 134.0000 1.0000
55.9200 137.0000 1.0000
55.9400 135.0000 1.0000
55.9600 116.0000 1.0000
55.9800 118.0000 1.0000
56.0000 131.0000 1.0000
56.0200 129.0000 1.0000
56.0400 133.0000 1.0000
56.0600 127.0000 1.0000
56.0800 113.0000 1.0000
56.1000 121.0000 1.0000
56.1200 122.0000 1.0000
56.1400 122.0000 1.0000
56.1600 142.0000 1.0000
56.1800 136.0000 1.0000
56.2000 121.0000 1.0000
56.2200 125.0000 1.0000
56.2400 129.0000 1.0000
56.2600 137.0000 1.0000
56.2800 134.0000 1.0000
56.3000 129.0000 1.0000
56.3200 122.0000 1.0000
56.3400 114.0000 1.0000
56.3600 121.0000 1.0000
56.3800 125.0000 1.0000
56.4000 115.0000 1.0000
56.4200 118.0000 1.0000
56.4400 111.0000 1.0000
56.4600 110.0000 1.0000
56.4800 125.0000 1.0000
56.5000 119.0000 1.0000
56.5200 129.0000 1.0000
56.5400 143.0000 1.0000
56.5600 143.0000 1.0000
56.5800 137.0000 1.0000
56.6000 141.0000 1.0000
56.6200 148.0000 1.0000
56.6400 145.0000 1.0000
56.6600 140.0000 1.0000
56.6800 146.0000 1.0000
56.7000 156.0000 1.0000
56.7200 135.0000 1.0000
56.7400 119.0000 1.0000
56.7600 123.0000 1.0000
56.7800 137.0000 1.0000
56.8000 140.0000 1.0000
56.8200 147.0000 1.0000
56.8400 157.0000 1.0000
56.8600 147.0000 1.0000
56.8800 141.0000 1.0000
56.9000 135.0000 1.0000
56.9200 142.0000 1.0000
56.9400 152.0000 1.0000
56.9600 152.0000 1.0000
56.9800 154.0000 1.0000
57.0000 172.0000 1.0000
57.0200 188.0000 1.0000
57.0400 191.0000 1.0000
57.0600 218.0000 1.0000
57.0800 238.0000 1.0000
57.1000 243.0000 1.0000
57.1200 271.0000 1.0000
57.1400 295.0000 1.0000
57.1600 329.0000 1.0000
57.1800 359.0000 1.0000
57.2000 416.0000 1.0000
57.2200 495.0000 1.0000
57.2400 637.0000 1.0000
57.2600 800.0000 1.0000
57.2800 1002.0000 1.0000
57.3000 1170.0000 1.0000
57.3200 1357.0000 1.0000
57.3400 1534.0000 1.0000
57.3600 1632.0000 1.0000
57.3800 1576.0000 1.0000
57.4000 1389.0000 1.0000
57.4200 1177.0000 1.0000
57.4400 1068.0000 1.0000
57.4600 1013.0000 1.0000
57.4800 937.0000 1.0000
57.5000 962.0000 1.0000
57.5200 899.0000 1.0000
57.5400 770.0000 1.0000
57.5600 650.0000 1.0000
57.5800 526.0000 1.0000
57.6000 431.0000 1.0000
57.6200 336.0000 1.0000
57.6400 271.0000 1.0000
57.6600 220.0000 1.0000
57.6800 211.0000 1.0000
57.7000 199.0000 1.0000
57.7200 193.0000 1.0000
57.7400 188.0000 1.0000
57.7600 167.0000 1.0000
57.7800 164.0000 1.0000
57.8000 163.0000 1.0000
57.8200 153.0000 1.0000
57.8400 155.0000 1.0000
57.8600 170.0000 1.0000
57.8800 183.0000 1.0000
57.9000 156.0000 1.0000
57.9200 136.0000 1.0000
57.9400 130.0000 1.0000
57.9600 138.0000 1.0000
57.9800 142.0000 1.0000
58.0000 140.0000 1.0000
58.0200 149.0000 1.0000
58.0400 140.0000 1.0000
58.0600 140.0000 1.0000
58.0800 147.0000 1.0000
58.1000 141.0000 1.0000
58.1200 151.0000 1.0000
58.1400 150.0000 1.0000
58.1600 152.0000 1.0000
58.1800 133.0000 1.0000
58.2000 129.0000 1.0000
58.2200 134.0000 1.0000
58.2400 150.0000 1.0000
58.2600 142.0000 1.0000
58.2800 157.0000 1.0000
58.3000 155.0000 1.0000
58.3200 178.0000 1.0000
58.3400 176.0000 1.0000
58.3600 172.0000 1.0000
58.3800 167.0000 1.0000
58.4000 184.0000 1.0000
58.4200 186.0000 1.0000
58.4400 180.0000 1.0000
58.4600 184.0000 1.0000
58.4800 181.0000 1.0000
58.5000 178.0000 1.0000
58.5200 178.0000 1.0000
58.5400 195.0000 1.0000
58.5600 205.0000 1.0000
58.5800 192.0000 1.0000
58.6000 177.0000 1.0000
58.6200 194.0000 1.0000
58.6400 209.0000 1.0000
58.6600 183.0000 1.0000
58.6800 165.0000 1.0000
58.7000 177.0000 1.0000
58.7200 166.0000 1.0000
58.7400 142.0000 1.0000
58.7600 142.0000 1.0000
58.7800 129.0000 1.0000
58.8000 160.0000 1.0000
58.8200 141.0000 1.0000
58.8400 133.0000 1.0000
58.8600 140.0000 1.0000
58.8800 107.0000 1.0000
58.9000 122.0000 1.0000
58.9200 145.0000 1.0000
58.9400 138.0000 1.0000
58.9600 143.0000 1.0000
58.9800 127.0000 1.0000
59.0000 140.0000 1.0000
59.0200 132.0000 1.0000
59.0400 139.0000 1.0000
59.0600 134.0000 1.0000
59.0800 134.0000 1.0000
59.1000 153.0000 1.0000
59.1200 142.0000 1.0000
59.1400 144.0000 1.0000
59.1600 145.0000 1.0000
59.1800 140.0000 1.0000
59.2000 144.0000 1.0000
59.2200 160.0000 1.0000
59.2400 138.0000 1.0000
59.2600 153.0000 1.0000
59.2800 178.0000 1.0000
59.3000 153.0000 1.0000
59.3200 168.0000 1.0000
59.3400 179.0000 1.0000
59.3600 162.0000 1.0000
59.3800 167.0000 1.0000
59.4000 179.0000 1.0000
59.4200 179.0000 1.0000
59.4400 196.0000 1.0000
59.4600 191.0000 1.0000
59.4800 190.0000 1.0000
59.5000 200.0000 1.0000
59.5200 222.0000 1.0000
59.5400 219.0000 1.0000
59.5600 222.0000 1.0000
59.5800 265.0000 1.0000
59.6000 283.0000 1.0000
59.6200 296.0000 1.0000
59.6400 340.0000 1.0000
59.6600 341.0000 1.0000
59.6800 381.0000 1.0000
59.7000 462.0000 1.0000
59.7200 548.0000 1.0000
59.7400 668.0000 1.0000
59.7600 796.0000 1.0000
59.7800 888.0000 1.0000
59.8000 957.0000 1.0000
59.8200 1004.0000 1.0000
59.8400 878.0000 1.0000
59.8600 849.0000 1.0000
59.8800 771.0000 1.0000
59.9000 630.0000 1.0000
59.9200 634.0000 1.0000
59.9400 585.0000 1.0000
59.9600 636.0000 1.0000
59.9800 633.0000 1.0000
60.0000 595.0000 1.0000
60.0200 504.0000 1.0000
60.0400 432.0000 1.0000
60.0600 341.0000 1.0000
60.0800 320.0000 1.0000
60.1000 255.0000 1.0000
60.1200 242.0000 1.0000
60.1400 230.0000 1.0000
60.1600 231.0000 1.0000
60.1800 175.0000 1.0000
60.2000 182.0000 1.0000
60.2200 218.0000 1.0000
60.2400 180.0000 1.0000
60.2600 167.0000 1.0000
60.2800 181.0000 1.0000
60.3000 188.0000 1.0000
60.3200 173.0000 1.0000
60.3400 171.0000 1.0000
60.3600 146.0000 1.0000
60.3800 160.0000 1.0000
60.4000 159.0000 1.0000
60.4200 150.0000 1.0000
60.4400 155.0000 1.0000
60.4600 180.0000 1.0000
60.4800 149.0000 1.0000
60.5000 155.0000 1.0000
60.5200 152.0000 1.0000
60.5400 170.0000 1.0000
60.5600 156.0000 1.0000
60.5800 167.0000 1.0000
60.6000 146.0000 1.0000
60.6200 168.0000 1.0000
60.6400 151.0000 1.0000
60.6600 162.0000 1.0000
60.6800 153.0000 1.0000
60.7000 153.0000 1.0000
60.7200 155.0000 1.0000
60.7400 145.0000 1.0000
60.7600 135.0000 1.0000
60.7800 157.0000 1.0000
60.8000 155.0000 1.0000
60.8200 150.0000 1.0000
60.8400 149.0000 1.0000
60.8600 154.0000 1.0000
60.8800 159.0000 1.0000
60.9000 166.0000 1.0000
60.9200 179.0000 1.0000
60.9400 185.0000 1.0000
60.9600 207.0000 1.0000
60.9800 208.0000 1.0000
61.0000 215.0000 1.0000
61.0200 218.0000 1.0000
61.0400 220.0000 1.0000
61.0600 250.0000 1.0000
61.0800 259.0000 1.0000
61.1000 249.0000 1.0000
61.1200 284.0000 1.0000
61.1400 281.0000 1.0000
61.1600 292.0000 1.0000
61.1800 302.0000 1.0000
61.2000 286.0000 1.0000
61.2200 264.0000 1.0000
61.2400 263.0000 1.0000
61.2600 233.0000 1.0000
61.2800 229.0000 1.0000
61.3000 222.0000 1.0000
61.3200 226.0000 1.0000
61.3400 202.0000 1.0000
61.3600 214.0000 1.0000
61.3800 222.0000 1.0000
61.4000 184.0000 1.0000
61.4200 165.0000 1.0000
61.4400 178.0000 1.0000
61.4600 164.0000 1.0000
61.4800 174.0000 1.0000
61.5000 159.0000 1.0000
61.5200 198.0000 1.0000
61.5400 176.0000 1.0000
61.5600 182.0000 1.0000
61.5800 187.0000 1.0000
61.6000 176.0000 1.0000
61.6200 189.0000 1.0000
61.6400 166.0000 1.0000
61.6600 183.0000 1.0000
61.6800 167.0000 1.0000
61.7000 172.0000 1.0000
61.7200 165.0000 1.0000
61.7400 169.0000 1.0000
61.7600 160.0000 1.0000
61.7800 162.0000 1.0000
61.8000 176.0000 1.0000
61.8200 186.0000 1.0000
61.8400 160.0000 1.0000
61.8600 164.0000 1.0000
61.8800 147.0000 1.0000
61.9000 150.0000 1.0000
61.9200 153.0000 1.0000
61.9400 178.0000 1.0000
61.9600 157.0000 1.0000
61.9800 170.0000 1.0000
62.0000 153.0000 1.0000
62.0200 165.0000 1.0000
62.0400 156.0000 1.0000
62.0600 135.0000 1.0000
62.0800 146.0000 1.0000
62.1000 142.0000 1.0000
62.1200 129.0000 1.0000
62.1400 150.0000 1.0000
62.1600 150.0000 1.0000
62.1800 157.0000 1.0000
62.2000 138.0000 1.0000
62.2200 151.0000 1.0000
62.2400 140.0000 1.0000
62.2600 143.0000 1.0000
62.2800 125.0000 1.0000
62.3000 139.0000 1.0000
62.3200 126.0000 1.0000
62.3400 140.0000 1.0000
62.3600 149.0000 1.0000
62.3800 141.0000 1.0000
62.4000 131.0000 1.0000
62.4200 125.0000 1.0000
62.4400 145.0000 1.0000
62.4600 154.0000 1.0000
62.4800 150.0000 1.0000
62.5000 153.0000 1.0000
62.5200 149.0000 1.0000
62.5400 138.0000 1.0000
62.5600 162.0000 1.0000
62.5800 153.0000 1.0000
62.6000 151.0000 1.0000
62.6200 139.0000 1.0000
62.6400 167.0000 1.0000
62.6600 157.0000 1.0000
62.6800 147.0000 1.0000
62.7000 162.0000 1.0000
62.7200 141.0000 1.0000
62.7400 160.0000 1.0000
62.7600 149.0000 1.0000
62.7800 162.0000 1.0000
62.8000 148.0000 1.0000
62.8200 163.0000 1.0000
62.8400 156.0000 1.0000
62.8600 141.0000 1.0000
62.8800 167.0000 1.0000
62.9000 175.0000 1.0000
62.9200 168.0000 1.0000
62.9400 146.0000 1.0000
62.9600 159.0000 1.0000
62.9800 160.0000 1.0000
63.0000 184.0000 1.0000
63.0200 160.0000 1.0000
63.0400 136.0000 1.0000
63.0600 159.0000 1.0000
63.0800 161.0000 1.0000
63.1000 149.0000 1.0000
63.1200 161.0000 1.0000
63.1400 171.0000 1.0000
63.1600 144.0000 1.0000
63.1800 155.0000 1.0000
63.2000 161.0000 1.0000
63.2200 161.0000 1.0000
63.2400 176.0000 1.0000
63.2600 143.0000 1.0000
63.2800 164.0000 1.0000
63.3000 175.0000 1.0000
63.3200 191.0000 1.0000
63.3400 173.0000 1.0000
63.3600 176.0000 1.0000
63.3800 188.0000 1.0000
63.4000 166.0000 1.0000
63.4200 205.0000 1.0000
63.4400 196.0000 1.0000
63.4600 189.0000 1.0000
63.4800 172.0000 1.0000
63.5000 202.0000 1.0000
63.5200 207.0000 1.0000
63.5400 221.0000 1.0000
63.5600 194.0000 1.0000
63.5800 218.0000 1.0000
63.6000 213.0000 1.0000
63.6200 257.0000 1.0000
63.6400 240.0000 1.0000
63.6600 243.0000 1.0000
63.6800 262.0000 1.0000
63.7000 264.0000 1.0000
63.7200 261.0000 1.0000
63.7400 271.0000 1.0000
63.7600 247.0000 1.0000
63.7800 285.0000 1.0000
63.8000 302.0000 1.0000
63.8200 278.0000 1.0000
63.8400 319.0000 1.0000
63.8600 333.0000 1.0000
63.8800 311.0000 1.0000
63.9000 311.0000 1.0000
63.9200 327.0000 1.0000
63.9400 289.0000 1.0000
63.9600 266.0000 1.0000
63.9800 249.0000 1.0000
64.0000 228.0000 1.0000
64.0200 234.0000 1.0000
64.0400 242.0000 1.0000
64.0600 245.0000 1.0000
64.0800 244.0000 1.0000
64.1000 229.0000 1.0000
64.1200 191.0000 1.0000
64.1400 167.0000 1.0000
64.1600 164.0000 1.0000
64.1800 164.0000 1.0000
64.2000 138.0000 1.0000
64.2200 132.0000 1.0000
64.2400 158.0000 1.0000
64.2600 147.0000 1.0000
64.2800 130.0000 1.0000
64.3000 118.0000 1.0000
64.3200 143.0000 1.0000
64.3400 128.0000 1.0000
64.3600 136.0000 1.0000
64.3800 156.0000 1.0000
64.4000 134.0000 1.0000
64.4200 124.0000 1.0000
64.4400 134.0000 1.0000
64.4600 148.0000 1.0000
64.4800 145.0000 1.0000
64.5000 148.0000 1.0000
64.5200 151.0000 1.0000
64.5400 136.0000 1.0000
64.5600 133.0000 1.0000
64.5800 141.0000 1.0000
64.6000 138.0000 1.0000
64.6200 132.0000 1.0000
64.6400 132.0000 1.0000
64.6600 132.0000 1.0000
64.6800 139.0000 1.0000
64.7000 155.0000 1.0000
64.7200 147.0000 1.0000
64.7400 153.0000 1.0000
64.7600 161.0000 1.0000
64.7800 166.0000 1.0000
64.8000 174.0000 1.0000
64.8200 162.0000 1.0000
64.8400 158.0000 1.0000
64.8600 154.0000 1.0000
64.8800 164.0000 1.0000
64.9000 175.0000 1.0000
64.9200 181.0000 1.0000
64.9400 161.0000 1.0000
64.9600 153.0000 1.0000
64.9800 153.0000 1.0000
65.0000 153.0000 1.0000
*RAS_INT_END
*RAS_DATA_END
