*RAS_DATA_START
*RAS_HEADER_START
*CORR_POS_DB_NAME "Angle Correction ASC6 SC WITH Mono_04082019"
*CORR_POS_GONIO_RADIUS ""
*CORR_POS_NODE_INDEX01 ""
*CORR_POS_NODE_INDEX02 ""
*CORR_POS_NODE_INDEX03 ""
*CORR_POS_NODE_INDEX04 ""
*CORR_POS_NODE_INDEX05 ""
*CORR_POS_NODE_INDEX06 ""
*CORR_POS_NODE_INDEX07 ""
*CORR_POS_NODE_INDEX08 ""
*CORR_POS_NODE_INDEX09 ""
*CORR_POS_NODE_INDEX10 ""
*CORR_POS_NODE_INDEX11 ""
*CORR_POS_NODE_LABEL01 "Si(111)"
*CORR_POS_NODE_LABEL02 "Si(220)"
*CORR_POS_NODE_LABEL03 "Si(311)"
*CORR_POS_NODE_LABEL04 "Si(400)"
*CORR_POS_NODE_LABEL05 "Si(331)"
*CORR_POS_NODE_LABEL06 "Si(422)"
*CORR_POS_NODE_LABEL07 "Si(511)"
*CORR_POS_NODE_LABEL08 "Si(440)"
*CORR_POS_NODE_LABEL09 "Si(531)"
*CORR_POS_NODE_LABEL10 "Si(620)"
*CORR_POS_NODE_LABEL11 "Si(533)"
*CORR_POS_NODE_POS_CALC01 "28.377"
*CORR_POS_NODE_POS_CALC02 "47.2506"
*CORR_POS_NODE_POS_CALC03 "56.0725"
*CORR_POS_NODE_POS_CALC04 "69.0822"
*CORR_POS_NODE_POS_CALC05 "76.3294"
*CORR_POS_NODE_POS_CALC06 "87.9853"
*CORR_POS_NODE_POS_CALC07 "94.9091"
*CORR_POS_NODE_POS_CALC08 "106.668"
*CORR_POS_NODE_POS_CALC09 "114.054"
*CORR_POS_NODE_POS_CALC10 "127.511"
*CORR_POS_NODE_POS_CALC11 "136.864"
*CORR_POS_NODE_POS_MEAS01 "28.5058"
*CORR_POS_NODE_POS_MEAS02 "47.345"
*CORR_POS_NODE_POS_MEAS03 "56.1421"
*CORR_POS_NODE_POS_MEAS04 "69.1304"
*CORR_POS_NODE_POS_MEAS05 "76.366"
*CORR_POS_NODE_POS_MEAS06 "88.0213"
*CORR_POS_NODE_POS_MEAS07 "94.9406"
*CORR_POS_NODE_POS_MEAS08 "106.689"
*CORR_POS_NODE_POS_MEAS09 "114.065"
*CORR_POS_NODE_POS_MEAS10 "127.518"
*CORR_POS_NODE_POS_MEAS11 "136.869"
*CORR_POS_OPT_ATTR "集中法"
*CORR_POS_PARAM_MU ""
*CORR_POS_PARAM_PL ""
*CORR_POS_SEMODEL_TYPE "0"
*CORR_POS_STANDARD_TYPE ""
*CORR_POS_VALUE_ANALYZER "None"
*CORR_POS_VALUE_CMONO "None"
*CORR_POS_VALUE_IMONO "None"
*CORR_POS_VALUE_IS "1.250deg"
*CORR_POS_VALUE_ISL "10.0mm"
*CORR_POS_VALUE_ISOLLER "5.0deg"
*CORR_POS_VALUE_RS1 "1.250deg"
*CORR_POS_VALUE_RS2 "0.3mm"
*CORR_POS_VALUE_RSOLLER "5.0deg"
*CORR_POS_XG_FOCUS_L ""
*CORR_POS_XG_WAVE_TYPE ""
*CORR_POS_XG_WAVE_VALUE ""
*DISP_FMT_X "%.2f"
*DISP_FMT_Y "%.0f"
*DISP_FULLSCALE "6457.8000000000"
*DISP_LINE_COLOR "255.0000000000"
*DISP_LINE_STYLE "0.0000000000"
*DISP_LINE_WIDTH "0.2500000000"
*DISP_NOTE "Collected Data-16"
*DISP_OFFSET_Y "0.0000000000"
*DISP_PEAKSEARCH_UNIT_Y "CPS"
*DISP_RANGE_BOTTOM "0.0000000000"
*DISP_RANGE_LEFT "5.0000000000"
*DISP_RANGE_LOGCUTOFF "0.0100000000"
*DISP_RANGE_RIGHT "65.0000000000"
*DISP_RANGE_TOP "6457.8000000000"
*DISP_SCALE_MODE_Y "0.0000000000"
*DISP_TAB_NAME "Theta/2-Theta"
*DISP_TITLE_Y "Intensity"
*DISP_UNIT_Y "CPS"
*DISP_WINDOW_NAME "MSG_MACROENGINE"
*FILE_COMMENT " "
*FILE_MD5 ""
*FILE_MEMO " "
*FILE_OPERATOR "Administrator"
*FILE_PART_ID "MEAS_PBEA_00223"
*FILE_SAMPLE " "
*FILE_TYPE "RAS_RAW"
*FILE_USERGROUP "System Manager"
*FILE_VERSION "1.0000000000"
*HW_ATTACHMENT_ID "ATT1031"
*HW_ATTACHMENT_NAME "6サンプルチェンジャ|ASC-6"
*HW_COUNTER_ID-0 "CUT0021"
*HW_COUNTER_ID-1 "CUT0020"
*HW_COUNTER_ID-2 "CUT0020"
*HW_COUNTER_ID-3 "CMC0021"
*HW_COUNTER_NAME-0 "SC-70|SC-70"
*HW_COUNTER_NAME-1 "None|None"
*HW_COUNTER_NAME-2 "None|None"
*HW_COUNTER_NAME-3 "検出器モノクロメータ|Detector monochromator"
*HW_COUNTER_SELECT_NAME "SC-70|SC-70"
*HW_ECP_HV "671.5000000000"
*HW_ECP_HV_UNIT "V"
*HW_GONIOMETER_ID "GON0070"
*HW_GONIOMETER_NAME "MiniFlex 300/600|MiniFlex 300/600"
*HW_GONIOMETER_RADIUS-0 "79.0"
*HW_GONIOMETER_RADIUS-1 "91.5"
*HW_GONIOMETER_RADIUS-2 "150.0"
*HW_GONIOMETER_RADIUS-3 "0"
*HW_GONIOMETER_RADIUS-4 "103.4"
*HW_GONIOMETER_RADIUS-5 "150.0"
*HW_GONIOMETER_RADIUS-6 "46.6"
*HW_GONIOMETER_RADIUS-7 "160.0"
*HW_I_OPT_ID-0 "ISL0021"
*HW_I_OPT_ID-1 "ISO0021"
*HW_I_OPT_NAME-0 "発散スリット|Divergence slit"
*HW_I_OPT_NAME-1 "入射平行スリット|Incident parallel slit"
*HW_R_ATTENUATER_AUTOMODE "0"
*HW_R_OPT_ID-0 "RSS0021"
*HW_R_OPT_ID-1 "RSO0021"
*HW_R_OPT_ID-2 "RRS0021"
*HW_R_OPT_NAME-0 "散乱スリット|Scattering slit"
*HW_R_OPT_NAME-1 "受光平行スリット|Receiving soller slit"
*HW_R_OPT_NAME-2 "受光スリット|Receiving slit"
*HW_SAMPLE_HOLDER_ID "SMP0000"
*HW_SAMPLE_HOLDER_NAME "無し|None"
*HW_XG_CURRENT_MAX "15"
*HW_XG_CURRENT_MIN "2"
*HW_XG_CURRENT_RESOLUTION "1"
*HW_XG_CURRENT_UNIT "mA"
*HW_XG_FOCUS "1mm x 10mm"
*HW_XG_FOCUS_TYPE "Normal"
*HW_XG_ID "1060"
*HW_XG_NAME "300W/600W 封入管-B|300W/600W Sealed tube-B"
*HW_XG_TARGET_ATOMIC_NUMBER "29.0000000000"
*HW_XG_TARGET_NAME "Cu"
*HW_XG_TYPE "Hermetic"
*HW_XG_VOLTAGE_MAX "40"
*HW_XG_VOLTAGE_MIN "20"
*HW_XG_VOLTAGE_RESOLUTION "1"
*HW_XG_VOLTAGE_UNIT "kV"
*HW_XG_WATT_MAX "0.600"
*HW_XG_WATT_UNIT "kW"
*HW_XG_WAVE_LENGTH_ALPHA1 "1.540593"
*HW_XG_WAVE_LENGTH_ALPHA2 "1.544414"
*HW_XG_WAVE_LENGTH_BETA "1.392250"
*MEAS_COND_AXIS_NAME-0 "Theta/2-Theta"
*MEAS_COND_AXIS_NAME-1 "Spin"
*MEAS_COND_AXIS_NAME-2 "Change"
*MEAS_COND_AXIS_NAME-3 "Soller(inc.)"
*MEAS_COND_AXIS_NAME-4 "IHS"
*MEAS_COND_AXIS_NAME-5 "DS"
*MEAS_COND_AXIS_NAME-6 "SS"
*MEAS_COND_AXIS_NAME-7 "Soller(rec.)"
*MEAS_COND_AXIS_NAME-8 "RS"
*MEAS_COND_AXIS_NAME-9 "Filter"
*MEAS_COND_AXIS_NAME-10 "Monochromator"
*MEAS_COND_AXIS_NAME-11 "HV"
*MEAS_COND_AXIS_NAME-12 "PHA"
*MEAS_COND_AXIS_NAME_INTERNAL-0 "TwoThetaTheta"
*MEAS_COND_AXIS_NAME_INTERNAL-1 "Spin"
*MEAS_COND_AXIS_NAME_INTERNAL-2 "Change"
*MEAS_COND_AXIS_NAME_INTERNAL-3 "IncidentSollerSlit"
*MEAS_COND_AXIS_NAME_INTERNAL-4 "IncidentAxdSlit"
*MEAS_COND_AXIS_NAME_INTERNAL-5 "IncidentSlitBox"
*MEAS_COND_AXIS_NAME_INTERNAL-6 "ReceivingSlitBox1"
*MEAS_COND_AXIS_NAME_INTERNAL-7 "ReceivingSollerSlit"
*MEAS_COND_AXIS_NAME_INTERNAL-8 "ReceivingSlitBox2"
*MEAS_COND_AXIS_NAME_INTERNAL-9 "Filter"
*MEAS_COND_AXIS_NAME_INTERNAL-10 "CounterMonochromator"
*MEAS_COND_AXIS_NAME_INTERNAL-11 "HV"
*MEAS_COND_AXIS_NAME_INTERNAL-12 "PHA"
*MEAS_COND_AXIS_NAME_MAGICNO-0 "268632064.0000000000"
*MEAS_COND_AXIS_NAME_MAGICNO-1 "16842752.0000000000"
*MEAS_COND_AXIS_NAME_MAGICNO-2 "16842752.0000000000"
*MEAS_COND_AXIS_NAME_MAGICNO-3 "20971521.0000000000"
*MEAS_COND_AXIS_NAME_MAGICNO-4 "22020097.0000000000"
*MEAS_COND_AXIS_NAME_MAGICNO-5 "22020097.0000000000"
*MEAS_COND_AXIS_NAME_MAGICNO-6 "23068673.0000000000"
*MEAS_COND_AXIS_NAME_MAGICNO-7 "20971521.0000000000"
*MEAS_COND_AXIS_NAME_MAGICNO-8 "23068673.0000000000"
*MEAS_COND_AXIS_NAME_MAGICNO-9 "20971521.0000000000"
*MEAS_COND_AXIS_NAME_MAGICNO-10 "20971521.0000000000"
*MEAS_COND_AXIS_NAME_MAGICNO-11 "0.0000000000"
*MEAS_COND_AXIS_NAME_MAGICNO-12 "0.0000000000"
*MEAS_COND_AXIS_OFFSET-0 "0.0000000000"
*MEAS_COND_AXIS_OFFSET-1 "-"
*MEAS_COND_AXIS_OFFSET-2 "-"
*MEAS_COND_AXIS_OFFSET-3 "-"
*MEAS_COND_AXIS_OFFSET-4 "-"
*MEAS_COND_AXIS_OFFSET-5 "-"
*MEAS_COND_AXIS_OFFSET-6 "-"
*MEAS_COND_AXIS_OFFSET-7 "-"
*MEAS_COND_AXIS_OFFSET-8 "-"
*MEAS_COND_AXIS_OFFSET-9 "-"
*MEAS_COND_AXIS_OFFSET-10 "-"
*MEAS_COND_AXIS_OFFSET-11 "-"
*MEAS_COND_AXIS_OFFSET-12 "-"
*MEAS_COND_AXIS_POSITION-0 "65.0000000000"
*MEAS_COND_AXIS_POSITION-1 "0.0000000000"
*MEAS_COND_AXIS_POSITION-2 "4.0000000000"
*MEAS_COND_AXIS_POSITION-3 "5.0deg"
*MEAS_COND_AXIS_POSITION-4 "10.0mm"
*MEAS_COND_AXIS_POSITION-5 "1.250deg"
*MEAS_COND_AXIS_POSITION-6 "1.250deg"
*MEAS_COND_AXIS_POSITION-7 "5.0deg"
*MEAS_COND_AXIS_POSITION-8 "0.3mm"
*MEAS_COND_AXIS_POSITION-9 "None"
*MEAS_COND_AXIS_POSITION-10 "Bent"
*MEAS_COND_AXIS_POSITION-11 "671.5000000000"
*MEAS_COND_AXIS_POSITION-12 "551.2500000000"
*MEAS_COND_AXIS_UNIT-0 "deg"
*MEAS_COND_AXIS_UNIT-1 ""
*MEAS_COND_AXIS_UNIT-2 ""
*MEAS_COND_AXIS_UNIT-3 ""
*MEAS_COND_AXIS_UNIT-4 ""
*MEAS_COND_AXIS_UNIT-5 ""
*MEAS_COND_AXIS_UNIT-6 ""
*MEAS_COND_AXIS_UNIT-7 ""
*MEAS_COND_AXIS_UNIT-8 ""
*MEAS_COND_AXIS_UNIT-9 ""
*MEAS_COND_AXIS_UNIT-10 ""
*MEAS_COND_AXIS_UNIT-11 "V"
*MEAS_COND_AXIS_UNIT-12 "mV"
*MEAS_COND_CORRECTION_SLIT_COUNTERMONO "None"
*MEAS_COND_CORRECTION_SLIT_DS "1.250deg"
*MEAS_COND_CORRECTION_SLIT_FILTER "None"
*MEAS_COND_CORRECTION_SLIT_IHS "10.0mm"
*MEAS_COND_CORRECTION_SLIT_RS "0.3mm"
*MEAS_COND_CORRECTION_SLIT_SOLLER_INC "5.0deg"
*MEAS_COND_CORRECTION_SLIT_SOLLER_REC "5.0deg"
*MEAS_COND_CORRECTION_SLIT_SS "1.250deg"
*MEAS_COND_COUNTER_CNTLOSS_CORR "0.0000000000"
*MEAS_COND_COUNTER_PHABASE "551.2500000000"
*MEAS_COND_COUNTER_PHAWINDOW "926.2500000000"
*MEAS_COND_COUNTER_PHA_UNIT "mV"
*MEAS_COND_COUNTER_TAUDIFF "0.2500000000"
*MEAS_COND_COUNTER_TAUINT "0.7500000000"
*MEAS_COND_IRRADIATION_MODE "OFF"
*MEAS_COND_IRRADIATION_WIDTH ""
*MEAS_COND_OPT_ATTR " "
*MEAS_COND_OPT_NAME ""
*MEAS_COND_UNSYMMETRIC_MODE "OFF"
*MEAS_COND_XG_CURRENT "15.0000000000"
*MEAS_COND_XG_VOLTAGE "40.0000000000"
*MEAS_COND_XG_WAVE_TYPE "Ka"
*MEAS_DATA_COUNT "3001.0000000000"
*MEAS_SCAN_AXIS_X "Theta/2-Theta"
*MEAS_SCAN_AXIS_X_INTERNAL "TwoThetaTheta"
*MEAS_SCAN_END_TIME "07/28/25 22:19:39"
*MEAS_SCAN_MODE "STEP"
*MEAS_SCAN_MONITOR "0"
*MEAS_SCAN_RESOLUTION_X "0.0025"
*MEAS_SCAN_SPEED "2.00"
*MEAS_SCAN_SPEED_UNIT "sec."
*MEAS_SCAN_SPEED_USER "2.00"
*MEAS_SCAN_START "5.0000000000"
*MEAS_SCAN_START_TIME "07/28/25 20:34:23"
*MEAS_SCAN_STEP "0.0200000000"
*MEAS_SCAN_STOP "65.0000000000"
*MEAS_SCAN_UNIT_X "deg"
*MEAS_SCAN_UNIT_Y "counts"
*SLIT_SYSTEM "0"
*RAS_HEADER_END
*RAS_INT_START
5.0000 1005.0000 1.0000
5.0200 941.0000 1.0000
5.0400 923.0000 1.0000
5.0600 963.0000 1.0000
5.0800 882.0000 1.0000
5.1000 897.0000 1.0000
5.1200 857.0000 1.0000
5.1400 868.0000 1.0000
5.1600 919.0000 1.0000
5.1800 952.0000 1.0000
5.2000 934.0000 1.0000
5.2200 894.0000 1.0000
5.2400 870.0000 1.0000
5.2600 959.0000 1.0000
5.2800 916.0000 1.0000
5.3000 846.0000 1.0000
5.3200 1028.0000 1.0000
5.3400 937.0000 1.0000
5.3600 888.0000 1.0000
5.3800 923.0000 1.0000
5.4000 975.0000 1.0000
5.4200 965.0000 1.0000
5.4400 923.0000 1.0000
5.4600 934.0000 1.0000
5.4800 910.0000 1.0000
5.5000 842.0000 1.0000
5.5200 853.0000 1.0000
5.5400 819.0000 1.0000
5.5600 850.0000 1.0000
5.5800 843.0000 1.0000
5.6000 887.0000 1.0000
5.6200 811.0000 1.0000
5.6400 844.0000 1.0000
5.6600 884.0000 1.0000
5.6800 845.0000 1.0000
5.7000 793.0000 1.0000
5.7200 846.0000 1.0000
5.7400 856.0000 1.0000
5.7600 791.0000 1.0000
5.7800 837.0000 1.0000
5.8000 811.0000 1.0000
5.8200 825.0000 1.0000
5.8400 780.0000 1.0000
5.8600 778.0000 1.0000
5.8800 727.0000 1.0000
5.9000 738.0000 1.0000
5.9200 741.0000 1.0000
5.9400 780.0000 1.0000
5.9600 821.0000 1.0000
5.9800 775.0000 1.0000
6.0000 728.0000 1.0000
6.0200 726.0000 1.0000
6.0400 782.0000 1.0000
6.0600 746.0000 1.0000
6.0800 749.0000 1.0000
6.1000 726.0000 1.0000
6.1200 708.0000 1.0000
6.1400 733.0000 1.0000
6.1600 697.0000 1.0000
6.1800 650.0000 1.0000
6.2000 690.0000 1.0000
6.2200 664.0000 1.0000
6.2400 706.0000 1.0000
6.2600 722.0000 1.0000
6.2800 660.0000 1.0000
6.3000 646.0000 1.0000
6.3200 612.0000 1.0000
6.3400 604.0000 1.0000
6.3600 614.0000 1.0000
6.3800 659.0000 1.0000
6.4000 619.0000 1.0000
6.4200 573.0000 1.0000
6.4400 609.0000 1.0000
6.4600 636.0000 1.0000
6.4800 585.0000 1.0000
6.5000 534.0000 1.0000
6.5200 561.0000 1.0000
6.5400 577.0000 1.0000
6.5600 575.0000 1.0000
6.5800 571.0000 1.0000
6.6000 572.0000 1.0000
6.6200 561.0000 1.0000
6.6400 577.0000 1.0000
6.6600 541.0000 1.0000
6.6800 548.0000 1.0000
6.7000 546.0000 1.0000
6.7200 550.0000 1.0000
6.7400 571.0000 1.0000
6.7600 589.0000 1.0000
6.7800 551.0000 1.0000
6.8000 538.0000 1.0000
6.8200 545.0000 1.0000
6.8400 516.0000 1.0000
6.8600 498.0000 1.0000
6.8800 467.0000 1.0000
6.9000 498.0000 1.0000
6.9200 564.0000 1.0000
6.9400 557.0000 1.0000
6.9600 515.0000 1.0000
6.9800 516.0000 1.0000
7.0000 520.0000 1.0000
7.0200 490.0000 1.0000
7.0400 467.0000 1.0000
7.0600 479.0000 1.0000
7.0800 520.0000 1.0000
7.1000 518.0000 1.0000
7.1200 485.0000 1.0000
7.1400 479.0000 1.0000
7.1600 498.0000 1.0000
7.1800 484.0000 1.0000
7.2000 501.0000 1.0000
7.2200 520.0000 1.0000
7.2400 482.0000 1.0000
7.2600 509.0000 1.0000
7.2800 549.0000 1.0000
7.3000 525.0000 1.0000
7.3200 485.0000 1.0000
7.3400 496.0000 1.0000
7.3600 515.0000 1.0000
7.3800 494.0000 1.0000
7.4000 490.0000 1.0000
7.4200 486.0000 1.0000
7.4400 475.0000 1.0000
7.4600 488.0000 1.0000
7.4800 482.0000 1.0000
7.5000 491.0000 1.0000
7.5200 467.0000 1.0000
7.5400 441.0000 1.0000
7.5600 499.0000 1.0000
7.5800 481.0000 1.0000
7.6000 433.0000 1.0000
7.6200 436.0000 1.0000
7.6400 462.0000 1.0000
7.6600 510.0000 1.0000
7.6800 484.0000 1.0000
7.7000 471.0000 1.0000
7.7200 474.0000 1.0000
7.7400 490.0000 1.0000
7.7600 515.0000 1.0000
7.7800 454.0000 1.0000
7.8000 450.0000 1.0000
7.8200 490.0000 1.0000
7.8400 486.0000 1.0000
7.8600 523.0000 1.0000
7.8800 491.0000 1.0000
7.9000 473.0000 1.0000
7.9200 479.0000 1.0000
7.9400 482.0000 1.0000
7.9600 483.0000 1.0000
7.9800 499.0000 1.0000
8.0000 502.0000 1.0000
8.0200 526.0000 1.0000
8.0400 523.0000 1.0000
8.0600 549.0000 1.0000
8.0800 534.0000 1.0000
8.1000 517.0000 1.0000
8.1200 564.0000 1.0000
8.1400 588.0000 1.0000
8.1600 577.0000 1.0000
8.1800 601.0000 1.0000
8.2000 627.0000 1.0000
8.2200 625.0000 1.0000
8.2400 612.0000 1.0000
8.2600 672.0000 1.0000
8.2800 715.0000 1.0000
8.3000 754.0000 1.0000
8.3200 779.0000 1.0000
8.3400 867.0000 1.0000
8.3600 907.0000 1.0000
8.3800 905.0000 1.0000
8.4000 1005.0000 1.0000
8.4200 1047.0000 1.0000
8.4400 1087.0000 1.0000
8.4600 1190.0000 1.0000
8.4800 1406.0000 1.0000
8.5000 1512.0000 1.0000
8.5200 1671.0000 1.0000
8.5400 1827.0000 1.0000
8.5600 1958.0000 1.0000
8.5800 2036.0000 1.0000
8.6000 1986.0000 1.0000
8.6200 1762.0000 1.0000
8.6400 1611.0000 1.0000
8.6600 1331.0000 1.0000
8.6800 1130.0000 1.0000
8.7000 979.0000 1.0000
8.7200 823.0000 1.0000
8.7400 667.0000 1.0000
8.7600 540.0000 1.0000
8.7800 538.0000 1.0000
8.8000 505.0000 1.0000
8.8200 445.0000 1.0000
8.8400 446.0000 1.0000
8.8600 428.0000 1.0000
8.8800 412.0000 1.0000
8.9000 372.0000 1.0000
8.9200 408.0000 1.0000
8.9400 355.0000 1.0000
8.9600 361.0000 1.0000
8.9800 362.0000 1.0000
9.0000 347.0000 1.0000
9.0200 363.0000 1.0000
9.0400 333.0000 1.0000
9.0600 347.0000 1.0000
9.0800 377.0000 1.0000
9.1000 413.0000 1.0000
9.1200 422.0000 1.0000
9.1400 388.0000 1.0000
9.1600 410.0000 1.0000
9.1800 373.0000 1.0000
9.2000 378.0000 1.0000
9.2200 332.0000 1.0000
9.2400 313.0000 1.0000
9.2600 303.0000 1.0000
9.2800 296.0000 1.0000
9.3000 285.0000 1.0000
9.3200 291.0000 1.0000
9.3400 300.0000 1.0000
9.3600 297.0000 1.0000
9.3800 307.0000 1.0000
9.4000 251.0000 1.0000
9.4200 258.0000 1.0000
9.4400 277.0000 1.0000
9.4600 283.0000 1.0000
9.4800 333.0000 1.0000
9.5000 307.0000 1.0000
9.5200 259.0000 1.0000
9.5400 272.0000 1.0000
9.5600 244.0000 1.0000
9.5800 289.0000 1.0000
9.6000 245.0000 1.0000
9.6200 266.0000 1.0000
9.6400 229.0000 1.0000
9.6600 298.0000 1.0000
9.6800 270.0000 1.0000
9.7000 277.0000 1.0000
9.7200 277.0000 1.0000
9.7400 246.0000 1.0000
9.7600 237.0000 1.0000
9.7800 256.0000 1.0000
9.8000 259.0000 1.0000
9.8200 251.0000 1.0000
9.8400 239.0000 1.0000
9.8600 227.0000 1.0000
9.8800 236.0000 1.0000
9.9000 259.0000 1.0000
9.9200 256.0000 1.0000
9.9400 278.0000 1.0000
9.9600 268.0000 1.0000
9.9800 245.0000 1.0000
10.0000 232.0000 1.0000
10.0200 239.0000 1.0000
10.0400 259.0000 1.0000
10.0600 255.0000 1.0000
10.0800 245.0000 1.0000
10.1000 272.0000 1.0000
10.1200 238.0000 1.0000
10.1400 245.0000 1.0000
10.1600 250.0000 1.0000
10.1800 261.0000 1.0000
10.2000 268.0000 1.0000
10.2200 274.0000 1.0000
10.2400 316.0000 1.0000
10.2600 301.0000 1.0000
10.2800 285.0000 1.0000
10.3000 292.0000 1.0000
10.3200 237.0000 1.0000
10.3400 251.0000 1.0000
10.3600 298.0000 1.0000
10.3800 263.0000 1.0000
10.4000 237.0000 1.0000
10.4200 251.0000 1.0000
10.4400 263.0000 1.0000
10.4600 223.0000 1.0000
10.4800 255.0000 1.0000
10.5000 267.0000 1.0000
10.5200 245.0000 1.0000
10.5400 234.0000 1.0000
10.5600 235.0000 1.0000
10.5800 297.0000 1.0000
10.6000 261.0000 1.0000
10.6200 227.0000 1.0000
10.6400 244.0000 1.0000
10.6600 265.0000 1.0000
10.6800 231.0000 1.0000
10.7000 255.0000 1.0000
10.7200 242.0000 1.0000
10.7400 258.0000 1.0000
10.7600 254.0000 1.0000
10.7800 271.0000 1.0000
10.8000 235.0000 1.0000
10.8200 252.0000 1.0000
10.8400 241.0000 1.0000
10.8600 248.0000 1.0000
10.8800 265.0000 1.0000
10.9000 262.0000 1.0000
10.9200 284.0000 1.0000
10.9400 313.0000 1.0000
10.9600 287.0000 1.0000
10.9800 312.0000 1.0000
11.0000 303.0000 1.0000
11.0200 266.0000 1.0000
11.0400 295.0000 1.0000
11.0600 289.0000 1.0000
11.0800 282.0000 1.0000
11.1000 273.0000 1.0000
11.1200 303.0000 1.0000
11.1400 311.0000 1.0000
11.1600 332.0000 1.0000
11.1800 306.0000 1.0000
11.2000 307.0000 1.0000
11.2200 300.0000 1.0000
11.2400 299.0000 1.0000
11.2600 274.0000 1.0000
11.2800 272.0000 1.0000
11.3000 278.0000 1.0000
11.3200 256.0000 1.0000
11.3400 251.0000 1.0000
11.3600 249.0000 1.0000
11.3800 278.0000 1.0000
11.4000 262.0000 1.0000
11.4200 229.0000 1.0000
11.4400 255.0000 1.0000
11.4600 237.0000 1.0000
11.4800 233.0000 1.0000
11.5000 241.0000 1.0000
11.5200 250.0000 1.0000
11.5400 196.0000 1.0000
11.5600 257.0000 1.0000
11.5800 218.0000 1.0000
11.6000 232.0000 1.0000
11.6200 222.0000 1.0000
11.6400 214.0000 1.0000
11.6600 234.0000 1.0000
11.6800 215.0000 1.0000
11.7000 211.0000 1.0000
11.7200 243.0000 1.0000
11.7400 225.0000 1.0000
11.7600 223.0000 1.0000
11.7800 210.0000 1.0000
11.8000 217.0000 1.0000
11.8200 236.0000 1.0000
11.8400 215.0000 1.0000
11.8600 214.0000 1.0000
11.8800 222.0000 1.0000
11.9000 237.0000 1.0000
11.9200 210.0000 1.0000
11.9400 191.0000 1.0000
11.9600 210.0000 1.0000
11.9800 217.0000 1.0000
12.0000 245.0000 1.0000
12.0200 272.0000 1.0000
12.0400 227.0000 1.0000
12.0600 243.0000 1.0000
12.0800 257.0000 1.0000
12.1000 238.0000 1.0000
12.1200 233.0000 1.0000
12.1400 242.0000 1.0000
12.1600 289.0000 1.0000
12.1800 266.0000 1.0000
12.2000 304.0000 1.0000
12.2200 272.0000 1.0000
12.2400 275.0000 1.0000
12.2600 330.0000 1.0000
12.2800 346.0000 1.0000
12.3000 297.0000 1.0000
12.3200 299.0000 1.0000
12.3400 294.0000 1.0000
12.3600 283.0000 1.0000
12.3800 258.0000 1.0000
12.4000 232.0000 1.0000
12.4200 230.0000 1.0000
12.4400 207.0000 1.0000
12.4600 192.0000 1.0000
12.4800 217.0000 1.0000
12.5000 217.0000 1.0000
12.5200 215.0000 1.0000
12.5400 207.0000 1.0000
12.5600 211.0000 1.0000
12.5800 195.0000 1.0000
12.6000 186.0000 1.0000
12.6200 202.0000 1.0000
12.6400 204.0000 1.0000
12.6600 201.0000 1.0000
12.6800 189.0000 1.0000
12.7000 181.0000 1.0000
12.7200 200.0000 1.0000
12.7400 203.0000 1.0000
12.7600 217.0000 1.0000
12.7800 186.0000 1.0000
12.8000 215.0000 1.0000
12.8200 204.0000 1.0000
12.8400 204.0000 1.0000
12.8600 208.0000 1.0000
12.8800 199.0000 1.0000
12.9000 174.0000 1.0000
12.9200 171.0000 1.0000
12.9400 200.0000 1.0000
12.9600 186.0000 1.0000
12.9800 166.0000 1.0000
13.0000 167.0000 1.0000
13.0200 187.0000 1.0000
13.0400 188.0000 1.0000
13.0600 198.0000 1.0000
13.0800 183.0000 1.0000
13.1000 177.0000 1.0000
13.1200 178.0000 1.0000
13.1400 192.0000 1.0000
13.1600 198.0000 1.0000
13.1800 170.0000 1.0000
13.2000 163.0000 1.0000
13.2200 184.0000 1.0000
13.2400 196.0000 1.0000
13.2600 212.0000 1.0000
13.2800 203.0000 1.0000
13.3000 215.0000 1.0000
13.3200 232.0000 1.0000
13.3400 247.0000 1.0000
13.3600 239.0000 1.0000
13.3800 245.0000 1.0000
13.4000 286.0000 1.0000
13.4200 316.0000 1.0000
13.4400 315.0000 1.0000
13.4600 321.0000 1.0000
13.4800 319.0000 1.0000
13.5000 347.0000 1.0000
13.5200 335.0000 1.0000
13.5400 337.0000 1.0000
13.5600 323.0000 1.0000
13.5800 361.0000 1.0000
13.6000 381.0000 1.0000
13.6200 418.0000 1.0000
13.6400 461.0000 1.0000
13.6600 477.0000 1.0000
13.6800 447.0000 1.0000
13.7000 449.0000 1.0000
13.7200 428.0000 1.0000
13.7400 340.0000 1.0000
13.7600 280.0000 1.0000
13.7800 263.0000 1.0000
13.8000 233.0000 1.0000
13.8200 195.0000 1.0000
13.8400 187.0000 1.0000
13.8600 181.0000 1.0000
13.8800 181.0000 1.0000
13.9000 182.0000 1.0000
13.9200 153.0000 1.0000
13.9400 164.0000 1.0000
13.9600 160.0000 1.0000
13.9800 141.0000 1.0000
14.0000 144.0000 1.0000
14.0200 155.0000 1.0000
14.0400 156.0000 1.0000
14.0600 166.0000 1.0000
14.0800 150.0000 1.0000
14.1000 138.0000 1.0000
14.1200 150.0000 1.0000
14.1400 159.0000 1.0000
14.1600 145.0000 1.0000
14.1800 136.0000 1.0000
14.2000 144.0000 1.0000
14.2200 142.0000 1.0000
14.2400 150.0000 1.0000
14.2600 158.0000 1.0000
14.2800 131.0000 1.0000
14.3000 124.0000 1.0000
14.3200 144.0000 1.0000
14.3400 136.0000 1.0000
14.3600 125.0000 1.0000
14.3800 129.0000 1.0000
14.4000 138.0000 1.0000
14.4200 153.0000 1.0000
14.4400 144.0000 1.0000
14.4600 137.0000 1.0000
14.4800 134.0000 1.0000
14.5000 138.0000 1.0000
14.5200 137.0000 1.0000
14.5400 152.0000 1.0000
14.5600 159.0000 1.0000
14.5800 137.0000 1.0000
14.6000 129.0000 1.0000
14.6200 165.0000 1.0000
14.6400 188.0000 1.0000
14.6600 176.0000 1.0000
14.6800 179.0000 1.0000
14.7000 177.0000 1.0000
14.7200 181.0000 1.0000
14.7400 193.0000 1.0000
14.7600 219.0000 1.0000
14.7800 217.0000 1.0000
14.8000 200.0000 1.0000
14.8200 219.0000 1.0000
14.8400 207.0000 1.0000
14.8600 183.0000 1.0000
14.8800 196.0000 1.0000
14.9000 204.0000 1.0000
14.9200 194.0000 1.0000
14.9400 183.0000 1.0000
14.9600 180.0000 1.0000
14.9800 169.0000 1.0000
15.0000 152.0000 1.0000
15.0200 150.0000 1.0000
15.0400 156.0000 1.0000
15.0600 155.0000 1.0000
15.0800 150.0000 1.0000
15.1000 151.0000 1.0000
15.1200 141.0000 1.0000
15.1400 135.0000 1.0000
15.1600 137.0000 1.0000
15.1800 132.0000 1.0000
15.2000 121.0000 1.0000
15.2200 135.0000 1.0000
15.2400 144.0000 1.0000
15.2600 131.0000 1.0000
15.2800 134.0000 1.0000
15.3000 138.0000 1.0000
15.3200 138.0000 1.0000
15.3400 137.0000 1.0000
15.3600 135.0000 1.0000
15.3800 129.0000 1.0000
15.4000 140.0000 1.0000
15.4200 158.0000 1.0000
15.4400 152.0000 1.0000
15.4600 150.0000 1.0000
15.4800 156.0000 1.0000
15.5000 149.0000 1.0000
15.5200 152.0000 1.0000
15.5400 160.0000 1.0000
15.5600 159.0000 1.0000
15.5800 141.0000 1.0000
15.6000 142.0000 1.0000
15.6200 152.0000 1.0000
15.6400 160.0000 1.0000
15.6600 152.0000 1.0000
15.6800 161.0000 1.0000
15.7000 161.0000 1.0000
15.7200 149.0000 1.0000
15.7400 136.0000 1.0000
15.7600 130.0000 1.0000
15.7800 132.0000 1.0000
15.8000 130.0000 1.0000
15.8200 125.0000 1.0000
15.8400 127.0000 1.0000
15.8600 133.0000 1.0000
15.8800 121.0000 1.0000
15.9000 117.0000 1.0000
15.9200 127.0000 1.0000
15.9400 134.0000 1.0000
15.9600 138.0000 1.0000
15.9800 127.0000 1.0000
16.0000 123.0000 1.0000
16.0200 125.0000 1.0000
16.0400 119.0000 1.0000
16.0600 124.0000 1.0000
16.0800 111.0000 1.0000
16.1000 108.0000 1.0000
16.1200 117.0000 1.0000
16.1400 123.0000 1.0000
16.1600 119.0000 1.0000
16.1800 120.0000 1.0000
16.2000 129.0000 1.0000
16.2200 126.0000 1.0000
16.2400 135.0000 1.0000
16.2600 142.0000 1.0000
16.2800 121.0000 1.0000
16.3000 121.0000 1.0000
16.3200 110.0000 1.0000
16.3400 120.0000 1.0000
16.3600 148.0000 1.0000
16.3800 137.0000 1.0000
16.4000 125.0000 1.0000
16.4200 128.0000 1.0000
16.4400 137.0000 1.0000
16.4600 139.0000 1.0000
16.4800 134.0000 1.0000
16.5000 129.0000 1.0000
16.5200 127.0000 1.0000
16.5400 125.0000 1.0000
16.5600 127.0000 1.0000
16.5800 131.0000 1.0000
16.6000 139.0000 1.0000
16.6200 132.0000 1.0000
16.6400 127.0000 1.0000
16.6600 138.0000 1.0000
16.6800 136.0000 1.0000
16.7000 135.0000 1.0000
16.7200 117.0000 1.0000
16.7400 121.0000 1.0000
16.7600 139.0000 1.0000
16.7800 135.0000 1.0000
16.8000 133.0000 1.0000
16.8200 123.0000 1.0000
16.8400 118.0000 1.0000
16.8600 124.0000 1.0000
16.8800 122.0000 1.0000
16.9000 116.0000 1.0000
16.9200 122.0000 1.0000
16.9400 119.0000 1.0000
16.9600 123.0000 1.0000
16.9800 121.0000 1.0000
17.0000 120.0000 1.0000
17.0200 118.0000 1.0000
17.0400 137.0000 1.0000
17.0600 143.0000 1.0000
17.0800 135.0000 1.0000
17.1000 127.0000 1.0000
17.1200 113.0000 1.0000
17.1400 116.0000 1.0000
17.1600 121.0000 1.0000
17.1800 124.0000 1.0000
17.2000 127.0000 1.0000
17.2200 141.0000 1.0000
17.2400 129.0000 1.0000
17.2600 131.0000 1.0000
17.2800 142.0000 1.0000
17.3000 155.0000 1.0000
17.3200 132.0000 1.0000
17.3400 137.0000 1.0000
17.3600 167.0000 1.0000
17.3800 150.0000 1.0000
17.4000 163.0000 1.0000
17.4200 167.0000 1.0000
17.4400 171.0000 1.0000
17.4600 144.0000 1.0000
17.4800 152.0000 1.0000
17.5000 163.0000 1.0000
17.5200 157.0000 1.0000
17.5400 153.0000 1.0000
17.5600 189.0000 1.0000
17.5800 193.0000 1.0000
17.6000 175.0000 1.0000
17.6200 158.0000 1.0000
17.6400 162.0000 1.0000
17.6600 136.0000 1.0000
17.6800 120.0000 1.0000
17.7000 120.0000 1.0000
17.7200 123.0000 1.0000
17.7400 139.0000 1.0000
17.7600 145.0000 1.0000
17.7800 146.0000 1.0000
17.8000 132.0000 1.0000
17.8200 132.0000 1.0000
17.8400 140.0000 1.0000
17.8600 143.0000 1.0000
17.8800 136.0000 1.0000
17.9000 133.0000 1.0000
17.9200 131.0000 1.0000
17.9400 121.0000 1.0000
17.9600 117.0000 1.0000
17.9800 124.0000 1.0000
18.0000 141.0000 1.0000
18.0200 124.0000 1.0000
18.0400 106.0000 1.0000
18.0600 128.0000 1.0000
18.0800 117.0000 1.0000
18.1000 137.0000 1.0000
18.1200 132.0000 1.0000
18.1400 131.0000 1.0000
18.1600 132.0000 1.0000
18.1800 129.0000 1.0000
18.2000 119.0000 1.0000
18.2200 105.0000 1.0000
18.2400 128.0000 1.0000
18.2600 121.0000 1.0000
18.2800 154.0000 1.0000
18.3000 129.0000 1.0000
18.3200 121.0000 1.0000
18.3400 135.0000 1.0000
18.3600 150.0000 1.0000
18.3800 130.0000 1.0000
18.4000 118.0000 1.0000
18.4200 129.0000 1.0000
18.4400 158.0000 1.0000
18.4600 129.0000 1.0000
18.4800 150.0000 1.0000
18.5000 147.0000 1.0000
18.5200 145.0000 1.0000
18.5400 138.0000 1.0000
18.5600 165.0000 1.0000
18.5800 159.0000 1.0000
18.6000 161.0000 1.0000
18.6200 151.0000 1.0000
18.6400 146.0000 1.0000
18.6600 165.0000 1.0000
18.6800 171.0000 1.0000
18.7000 168.0000 1.0000
18.7200 138.0000 1.0000
18.7400 151.0000 1.0000
18.7600 155.0000 1.0000
18.7800 157.0000 1.0000
18.8000 154.0000 1.0000
18.8200 156.0000 1.0000
18.8400 145.0000 1.0000
18.8600 168.0000 1.0000
18.8800 166.0000 1.0000
18.9000 179.0000 1.0000
18.9200 160.0000 1.0000
18.9400 177.0000 1.0000
18.9600 152.0000 1.0000
18.9800 168.0000 1.0000
19.0000 151.0000 1.0000
19.0200 186.0000 1.0000
19.0400 186.0000 1.0000
19.0600 197.0000 1.0000
19.0800 166.0000 1.0000
19.1000 188.0000 1.0000
19.1200 177.0000 1.0000
19.1400 172.0000 1.0000
19.1600 147.0000 1.0000
19.1800 155.0000 1.0000
19.2000 172.0000 1.0000
19.2200 159.0000 1.0000
19.2400 172.0000 1.0000
19.2600 145.0000 1.0000
19.2800 145.0000 1.0000
19.3000 136.0000 1.0000
19.3200 160.0000 1.0000
19.3400 156.0000 1.0000
19.3600 171.0000 1.0000
19.3800 174.0000 1.0000
19.4000 171.0000 1.0000
19.4200 183.0000 1.0000
19.4400 177.0000 1.0000
19.4600 198.0000 1.0000
19.4800 192.0000 1.0000
19.5000 185.0000 1.0000
19.5200 202.0000 1.0000
19.5400 217.0000 1.0000
19.5600 217.0000 1.0000
19.5800 206.0000 1.0000
19.6000 211.0000 1.0000
19.6200 208.0000 1.0000
19.6400 208.0000 1.0000
19.6600 188.0000 1.0000
19.6800 226.0000 1.0000
19.7000 187.0000 1.0000
19.7200 199.0000 1.0000
19.7400 197.0000 1.0000
19.7600 185.0000 1.0000
19.7800 171.0000 1.0000
19.8000 186.0000 1.0000
19.8200 166.0000 1.0000
19.8400 165.0000 1.0000
19.8600 144.0000 1.0000
19.8800 156.0000 1.0000
19.9000 145.0000 1.0000
19.9200 151.0000 1.0000
19.9400 168.0000 1.0000
19.9600 168.0000 1.0000
19.9800 163.0000 1.0000
20.0000 149.0000 1.0000
20.0200 168.0000 1.0000
20.0400 144.0000 1.0000
20.0600 164.0000 1.0000
20.0800 180.0000 1.0000
20.1000 157.0000 1.0000
20.1200 163.0000 1.0000
20.1400 202.0000 1.0000
20.1600 201.0000 1.0000
20.1800 189.0000 1.0000
20.2000 220.0000 1.0000
20.2200 204.0000 1.0000
20.2400 202.0000 1.0000
20.2600 227.0000 1.0000
20.2800 221.0000 1.0000
20.3000 207.0000 1.0000
20.3200 231.0000 1.0000
20.3400 249.0000 1.0000
20.3600 277.0000 1.0000
20.3800 295.0000 1.0000
20.4000 326.0000 1.0000
20.4200 336.0000 1.0000
20.4400 380.0000 1.0000
20.4600 414.0000 1.0000
20.4800 496.0000 1.0000
20.5000 539.0000 1.0000
20.5200 635.0000 1.0000
20.5400 747.0000 1.0000
20.5600 901.0000 1.0000
20.5800 1099.0000 1.0000
20.6000 1389.0000 1.0000
20.6200 1613.0000 1.0000
20.6400 1916.0000 1.0000
20.6600 2130.0000 1.0000
20.6800 2230.0000 1.0000
20.7000 2228.0000 1.0000
20.7200 2030.0000 1.0000
20.7400 1652.0000 1.0000
20.7600 1314.0000 1.0000
20.7800 996.0000 1.0000
20.8000 791.0000 1.0000
20.8200 639.0000 1.0000
20.8400 594.0000 1.0000
20.8600 565.0000 1.0000
20.8800 585.0000 1.0000
20.9000 462.0000 1.0000
20.9200 414.0000 1.0000
20.9400 405.0000 1.0000
20.9600 285.0000 1.0000
20.9800 290.0000 1.0000
21.0000 283.0000 1.0000
21.0200 259.0000 1.0000
21.0400 218.0000 1.0000
21.0600 221.0000 1.0000
21.0800 245.0000 1.0000
21.1000 227.0000 1.0000
21.1200 212.0000 1.0000
21.1400 217.0000 1.0000
21.1600 212.0000 1.0000
21.1800 201.0000 1.0000
21.2000 198.0000 1.0000
21.2200 203.0000 1.0000
21.2400 219.0000 1.0000
21.2600 196.0000 1.0000
21.2800 183.0000 1.0000
21.3000 209.0000 1.0000
21.3200 218.0000 1.0000
21.3400 189.0000 1.0000
21.3600 209.0000 1.0000
21.3800 212.0000 1.0000
21.4000 198.0000 1.0000
21.4200 159.0000 1.0000
21.4400 211.0000 1.0000
21.4600 236.0000 1.0000
21.4800 225.0000 1.0000
21.5000 219.0000 1.0000
21.5200 207.0000 1.0000
21.5400 236.0000 1.0000
21.5600 256.0000 1.0000
21.5800 269.0000 1.0000
21.6000 270.0000 1.0000
21.6200 339.0000 1.0000
21.6400 365.0000 1.0000
21.6600 453.0000 1.0000
21.6800 490.0000 1.0000
21.7000 565.0000 1.0000
21.7200 663.0000 1.0000
21.7400 750.0000 1.0000
21.7600 876.0000 1.0000
21.7800 1016.0000 1.0000
21.8000 1153.0000 1.0000
21.8200 1246.0000 1.0000
21.8400 1203.0000 1.0000
21.8600 1116.0000 1.0000
21.8800 1015.0000 1.0000
21.9000 836.0000 1.0000
21.9200 646.0000 1.0000
21.9400 562.0000 1.0000
21.9600 432.0000 1.0000
21.9800 335.0000 1.0000
22.0000 304.0000 1.0000
22.0200 272.0000 1.0000
22.0400 251.0000 1.0000
22.0600 245.0000 1.0000
22.0800 265.0000 1.0000
22.1000 251.0000 1.0000
22.1200 244.0000 1.0000
22.1400 266.0000 1.0000
22.1600 265.0000 1.0000
22.1800 246.0000 1.0000
22.2000 258.0000 1.0000
22.2200 232.0000 1.0000
22.2400 229.0000 1.0000
22.2600 202.0000 1.0000
22.2800 251.0000 1.0000
22.3000 202.0000 1.0000
22.3200 211.0000 1.0000
22.3400 206.0000 1.0000
22.3600 210.0000 1.0000
22.3800 182.0000 1.0000
22.4000 206.0000 1.0000
22.4200 222.0000 1.0000
22.4400 207.0000 1.0000
22.4600 188.0000 1.0000
22.4800 189.0000 1.0000
22.5000 199.0000 1.0000
22.5200 203.0000 1.0000
22.5400 200.0000 1.0000
22.5600 203.0000 1.0000
22.5800 216.0000 1.0000
22.6000 226.0000 1.0000
22.6200 207.0000 1.0000
22.6400 262.0000 1.0000
22.6600 254.0000 1.0000
22.6800 293.0000 1.0000
22.7000 333.0000 1.0000
22.7200 367.0000 1.0000
22.7400 349.0000 1.0000
22.7600 407.0000 1.0000
22.7800 418.0000 1.0000
22.8000 366.0000 1.0000
22.8200 399.0000 1.0000
22.8400 349.0000 1.0000
22.8600 347.0000 1.0000
22.8800 354.0000 1.0000
22.9000 343.0000 1.0000
22.9200 299.0000 1.0000
22.9400 328.0000 1.0000
22.9600 340.0000 1.0000
22.9800 345.0000 1.0000
23.0000 341.0000 1.0000
23.0200 340.0000 1.0000
23.0400 339.0000 1.0000
23.0600 326.0000 1.0000
23.0800 313.0000 1.0000
23.1000 319.0000 1.0000
23.1200 319.0000 1.0000
23.1400 288.0000 1.0000
23.1600 312.0000 1.0000
23.1800 311.0000 1.0000
23.2000 354.0000 1.0000
23.2200 347.0000 1.0000
23.2400 333.0000 1.0000
23.2600 403.0000 1.0000
23.2800 423.0000 1.0000
23.3000 497.0000 1.0000
23.3200 544.0000 1.0000
23.3400 592.0000 1.0000
23.3600 658.0000 1.0000
23.3800 715.0000 1.0000
23.4000 751.0000 1.0000
23.4200 753.0000 1.0000
23.4400 783.0000 1.0000
23.4600 759.0000 1.0000
23.4800 687.0000 1.0000
23.5000 643.0000 1.0000
23.5200 528.0000 1.0000
23.5400 477.0000 1.0000
23.5600 420.0000 1.0000
23.5800 394.0000 1.0000
23.6000 391.0000 1.0000
23.6200 408.0000 1.0000
23.6400 444.0000 1.0000
23.6600 468.0000 1.0000
23.6800 505.0000 1.0000
23.7000 520.0000 1.0000
23.7200 588.0000 1.0000
23.7400 627.0000 1.0000
23.7600 638.0000 1.0000
23.7800 658.0000 1.0000
23.8000 667.0000 1.0000
23.8200 644.0000 1.0000
23.8400 601.0000 1.0000
23.8600 566.0000 1.0000
23.8800 556.0000 1.0000
23.9000 553.0000 1.0000
23.9200 515.0000 1.0000
23.9400 541.0000 1.0000
23.9600 568.0000 1.0000
23.9800 624.0000 1.0000
24.0000 665.0000 1.0000
24.0200 710.0000 1.0000
24.0400 743.0000 1.0000
24.0600 754.0000 1.0000
24.0800 803.0000 1.0000
24.1000 819.0000 1.0000
24.1200 807.0000 1.0000
24.1400 797.0000 1.0000
24.1600 766.0000 1.0000
24.1800 683.0000 1.0000
24.2000 611.0000 1.0000
24.2200 548.0000 1.0000
24.2400 441.0000 1.0000
24.2600 393.0000 1.0000
24.2800 356.0000 1.0000
24.3000 324.0000 1.0000
24.3200 299.0000 1.0000
24.3400 245.0000 1.0000
24.3600 233.0000 1.0000
24.3800 234.0000 1.0000
24.4000 242.0000 1.0000
24.4200 256.0000 1.0000
24.4400 232.0000 1.0000
24.4600 235.0000 1.0000
24.4800 249.0000 1.0000
24.5000 210.0000 1.0000
24.5200 210.0000 1.0000
24.5400 235.0000 1.0000
24.5600 254.0000 1.0000
24.5800 236.0000 1.0000
24.6000 214.0000 1.0000
24.6200 229.0000 1.0000
24.6400 214.0000 1.0000
24.6600 228.0000 1.0000
24.6800 222.0000 1.0000
24.7000 228.0000 1.0000
24.7200 216.0000 1.0000
24.7400 211.0000 1.0000
24.7600 231.0000 1.0000
24.7800 217.0000 1.0000
24.8000 220.0000 1.0000
24.8200 229.0000 1.0000
24.8400 243.0000 1.0000
24.8600 231.0000 1.0000
24.8800 233.0000 1.0000
24.9000 255.0000 1.0000
24.9200 265.0000 1.0000
24.9400 296.0000 1.0000
24.9600 265.0000 1.0000
24.9800 295.0000 1.0000
25.0000 301.0000 1.0000
25.0200 306.0000 1.0000
25.0400 322.0000 1.0000
25.0600 325.0000 1.0000
25.0800 326.0000 1.0000
25.1000 342.0000 1.0000
25.1200 341.0000 1.0000
25.1400 378.0000 1.0000
25.1600 395.0000 1.0000
25.1800 474.0000 1.0000
25.2000 572.0000 1.0000
25.2200 629.0000 1.0000
25.2400 705.0000 1.0000
25.2600 826.0000 1.0000
25.2800 939.0000 1.0000
25.3000 1118.0000 1.0000
25.3200 1294.0000 1.0000
25.3400 1501.0000 1.0000
25.3600 1623.0000 1.0000
25.3800 1737.0000 1.0000
25.4000 1753.0000 1.0000
25.4200 1663.0000 1.0000
25.4400 1509.0000 1.0000
25.4600 1264.0000 1.0000
25.4800 1085.0000 1.0000
25.5000 922.0000 1.0000
25.5200 757.0000 1.0000
25.5400 616.0000 1.0000
25.5600 516.0000 1.0000
25.5800 473.0000 1.0000
25.6000 388.0000 1.0000
25.6200 353.0000 1.0000
25.6400 340.0000 1.0000
25.6600 334.0000 1.0000
25.6800 324.0000 1.0000
25.7000 299.0000 1.0000
25.7200 299.0000 1.0000
25.7400 294.0000 1.0000
25.7600 294.0000 1.0000
25.7800 316.0000 1.0000
25.8000 323.0000 1.0000
25.8200 330.0000 1.0000
25.8400 336.0000 1.0000
25.8600 345.0000 1.0000
25.8800 369.0000 1.0000
25.9000 379.0000 1.0000
25.9200 420.0000 1.0000
25.9400 442.0000 1.0000
25.9600 452.0000 1.0000
25.9800 468.0000 1.0000
26.0000 511.0000 1.0000
26.0200 561.0000 1.0000
26.0400 591.0000 1.0000
26.0600 660.0000 1.0000
26.0800 736.0000 1.0000
26.1000 783.0000 1.0000
26.1200 882.0000 1.0000
26.1400 943.0000 1.0000
26.1600 1053.0000 1.0000
26.1800 1250.0000 1.0000
26.2000 1454.0000 1.0000
26.2200 1643.0000 1.0000
26.2400 1860.0000 1.0000
26.2600 2197.0000 1.0000
26.2800 2539.0000 1.0000
26.3000 2990.0000 1.0000
26.3200 3560.0000 1.0000
26.3400 4432.0000 1.0000
26.3600 5504.0000 1.0000
26.3800 6759.0000 1.0000
26.4000 8195.0000 1.0000
26.4200 9570.0000 1.0000
26.4400 10387.0000 1.0000
26.4600 10763.0000 1.0000
26.4800 10514.0000 1.0000
26.5000 9499.0000 1.0000
26.5200 7856.0000 1.0000
26.5400 5996.0000 1.0000
26.5600 4415.0000 1.0000
26.5800 3140.0000 1.0000
26.6000 2207.0000 1.0000
26.6200 1557.0000 1.0000
26.6400 1167.0000 1.0000
26.6600 983.0000 1.0000
26.6800 869.0000 1.0000
26.7000 801.0000 1.0000
26.7200 776.0000 1.0000
26.7400 776.0000 1.0000
26.7600 770.0000 1.0000
26.7800 754.0000 1.0000
26.8000 779.0000 1.0000
26.8200 797.0000 1.0000
26.8400 797.0000 1.0000
26.8600 799.0000 1.0000
26.8800 793.0000 1.0000
26.9000 788.0000 1.0000
26.9200 758.0000 1.0000
26.9400 711.0000 1.0000
26.9600 680.0000 1.0000
26.9800 631.0000 1.0000
27.0000 568.0000 1.0000
27.0200 543.0000 1.0000
27.0400 522.0000 1.0000
27.0600 525.0000 1.0000
27.0800 554.0000 1.0000
27.1000 597.0000 1.0000
27.1200 635.0000 1.0000
27.1400 677.0000 1.0000
27.1600 757.0000 1.0000
27.1800 837.0000 1.0000
27.2000 936.0000 1.0000
27.2200 1057.0000 1.0000
27.2400 1185.0000 1.0000
27.2600 1345.0000 1.0000
27.2800 1427.0000 1.0000
27.3000 1462.0000 1.0000
27.3200 1437.0000 1.0000
27.3400 1334.0000 1.0000
27.3600 1243.0000 1.0000
27.3800 1180.0000 1.0000
27.4000 1114.0000 1.0000
27.4200 1042.0000 1.0000
27.4400 1020.0000 1.0000
27.4600 1064.0000 1.0000
27.4800 1115.0000 1.0000
27.5000 1221.0000 1.0000
27.5200 1399.0000 1.0000
27.5400 1589.0000 1.0000
27.5600 1802.0000 1.0000
27.5800 1975.0000 1.0000
27.6000 2131.0000 1.0000
27.6200 2245.0000 1.0000
27.6400 2341.0000 1.0000
27.6600 2516.0000 1.0000
27.6800 2619.0000 1.0000
27.7000 2653.0000 1.0000
27.7200 2777.0000 1.0000
27.7400 2952.0000 1.0000
27.7600 3089.0000 1.0000
27.7800 3088.0000 1.0000
27.8000 2998.0000 1.0000
27.8200 2819.0000 1.0000
27.8400 2605.0000 1.0000
27.8600 2371.0000 1.0000
27.8800 2004.0000 1.0000
27.9000 1614.0000 1.0000
27.9200 1322.0000 1.0000
27.9400 1142.0000 1.0000
27.9600 985.0000 1.0000
27.9800 870.0000 1.0000
28.0000 803.0000 1.0000
28.0200 771.0000 1.0000
28.0400 758.0000 1.0000
28.0600 762.0000 1.0000
28.0800 776.0000 1.0000
28.1000 780.0000 1.0000
28.1200 762.0000 1.0000
28.1400 700.0000 1.0000
28.1600 651.0000 1.0000
28.1800 578.0000 1.0000
28.2000 508.0000 1.0000
28.2200 447.0000 1.0000
28.2400 366.0000 1.0000
28.2600 310.0000 1.0000
28.2800 286.0000 1.0000
28.3000 272.0000 1.0000
28.3200 259.0000 1.0000
28.3400 239.0000 1.0000
28.3600 209.0000 1.0000
28.3800 200.0000 1.0000
28.4000 194.0000 1.0000
28.4200 177.0000 1.0000
28.4400 177.0000 1.0000
28.4600 177.0000 1.0000
28.4800 177.0000 1.0000
28.5000 173.0000 1.0000
28.5200 169.0000 1.0000
28.5400 171.0000 1.0000
28.5600 174.0000 1.0000
28.5800 173.0000 1.0000
28.6000 180.0000 1.0000
28.6200 181.0000 1.0000
28.6400 171.0000 1.0000
28.6600 160.0000 1.0000
28.6800 172.0000 1.0000
28.7000 177.0000 1.0000
28.7200 173.0000 1.0000
28.7400 185.0000 1.0000
28.7600 193.0000 1.0000
28.7800 186.0000 1.0000
28.8000 172.0000 1.0000
28.8200 185.0000 1.0000
28.8400 184.0000 1.0000
28.8600 193.0000 1.0000
28.8800 196.0000 1.0000
28.9000 201.0000 1.0000
28.9200 201.0000 1.0000
28.9400 206.0000 1.0000
28.9600 211.0000 1.0000
28.9800 187.0000 1.0000
29.0000 188.0000 1.0000
29.0200 195.0000 1.0000
29.0400 197.0000 1.0000
29.0600 189.0000 1.0000
29.0800 176.0000 1.0000
29.1000 174.0000 1.0000
29.1200 188.0000 1.0000
29.1400 205.0000 1.0000
29.1600 220.0000 1.0000
29.1800 239.0000 1.0000
29.2000 239.0000 1.0000
29.2200 242.0000 1.0000
29.2400 250.0000 1.0000
29.2600 279.0000 1.0000
29.2800 310.0000 1.0000
29.3000 294.0000 1.0000
29.3200 280.0000 1.0000
29.3400 278.0000 1.0000
29.3600 256.0000 1.0000
29.3800 254.0000 1.0000
29.4000 264.0000 1.0000
29.4200 267.0000 1.0000
29.4400 268.0000 1.0000
29.4600 279.0000 1.0000
29.4800 305.0000 1.0000
29.5000 294.0000 1.0000
29.5200 334.0000 1.0000
29.5400 356.0000 1.0000
29.5600 352.0000 1.0000
29.5800 362.0000 1.0000
29.6000 382.0000 1.0000
29.6200 413.0000 1.0000
29.6400 430.0000 1.0000
29.6600 445.0000 1.0000
29.6800 389.0000 1.0000
29.7000 371.0000 1.0000
29.7200 386.0000 1.0000
29.7400 369.0000 1.0000
29.7600 361.0000 1.0000
29.7800 354.0000 1.0000
29.8000 358.0000 1.0000
29.8200 360.0000 1.0000
29.8400 357.0000 1.0000
29.8600 371.0000 1.0000
29.8800 405.0000 1.0000
29.9000 380.0000 1.0000
29.9200 395.0000 1.0000
29.9400 422.0000 1.0000
29.9600 423.0000 1.0000
29.9800 387.0000 1.0000
30.0000 383.0000 1.0000
30.0200 412.0000 1.0000
30.0400 438.0000 1.0000
30.0600 467.0000 1.0000
30.0800 480.0000 1.0000
30.1000 502.0000 1.0000
30.1200 518.0000 1.0000
30.1400 585.0000 1.0000
30.1600 593.0000 1.0000
30.1800 609.0000 1.0000
30.2000 641.0000 1.0000
30.2200 664.0000 1.0000
30.2400 692.0000 1.0000
30.2600 674.0000 1.0000
30.2800 667.0000 1.0000
30.3000 620.0000 1.0000
30.3200 590.0000 1.0000
30.3400 533.0000 1.0000
30.3600 467.0000 1.0000
30.3800 438.0000 1.0000
30.4000 402.0000 1.0000
30.4200 333.0000 1.0000
30.4400 311.0000 1.0000
30.4600 295.0000 1.0000
30.4800 304.0000 1.0000
30.5000 277.0000 1.0000
30.5200 299.0000 1.0000
30.5400 300.0000 1.0000
30.5600 317.0000 1.0000
30.5800 315.0000 1.0000
30.6000 332.0000 1.0000
30.6200 346.0000 1.0000
30.6400 337.0000 1.0000
30.6600 312.0000 1.0000
30.6800 302.0000 1.0000
30.7000 299.0000 1.0000
30.7200 275.0000 1.0000
30.7400 293.0000 1.0000
30.7600 267.0000 1.0000
30.7800 227.0000 1.0000
30.8000 224.0000 1.0000
30.8200 203.0000 1.0000
30.8400 188.0000 1.0000
30.8600 186.0000 1.0000
30.8800 185.0000 1.0000
30.9000 171.0000 1.0000
30.9200 178.0000 1.0000
30.9400 183.0000 1.0000
30.9600 173.0000 1.0000
30.9800 189.0000 1.0000
31.0000 200.0000 1.0000
31.0200 213.0000 1.0000
31.0400 225.0000 1.0000
31.0600 235.0000 1.0000
31.0800 252.0000 1.0000
31.1000 264.0000 1.0000
31.1200 269.0000 1.0000
31.1400 283.0000 1.0000
31.1600 298.0000 1.0000
31.1800 313.0000 1.0000
31.2000 330.0000 1.0000
31.2200 340.0000 1.0000
31.2400 331.0000 1.0000
31.2600 319.0000 1.0000
31.2800 291.0000 1.0000
31.3000 270.0000 1.0000
31.3200 267.0000 1.0000
31.3400 250.0000 1.0000
31.3600 224.0000 1.0000
31.3800 213.0000 1.0000
31.4000 218.0000 1.0000
31.4200 196.0000 1.0000
31.4400 196.0000 1.0000
31.4600 191.0000 1.0000
31.4800 179.0000 1.0000
31.5000 175.0000 1.0000
31.5200 163.0000 1.0000
31.5400 176.0000 1.0000
31.5600 180.0000 1.0000
31.5800 173.0000 1.0000
31.6000 166.0000 1.0000
31.6200 156.0000 1.0000
31.6400 156.0000 1.0000
31.6600 167.0000 1.0000
31.6800 170.0000 1.0000
31.7000 157.0000 1.0000
31.7200 178.0000 1.0000
31.7400 157.0000 1.0000
31.7600 157.0000 1.0000
31.7800 176.0000 1.0000
31.8000 168.0000 1.0000
31.8200 167.0000 1.0000
31.8400 157.0000 1.0000
31.8600 156.0000 1.0000
31.8800 175.0000 1.0000
31.9000 176.0000 1.0000
31.9200 172.0000 1.0000
31.9400 169.0000 1.0000
31.9600 177.0000 1.0000
31.9800 169.0000 1.0000
32.0000 180.0000 1.0000
32.0200 192.0000 1.0000
32.0400 163.0000 1.0000
32.0600 163.0000 1.0000
32.0800 178.0000 1.0000
32.1000 187.0000 1.0000
32.1200 166.0000 1.0000
32.1400 197.0000 1.0000
32.1600 159.0000 1.0000
32.1800 150.0000 1.0000
32.2000 178.0000 1.0000
32.2200 171.0000 1.0000
32.2400 180.0000 1.0000
32.2600 161.0000 1.0000
32.2800 153.0000 1.0000
32.3000 172.0000 1.0000
32.3200 168.0000 1.0000
32.3400 155.0000 1.0000
32.3600 142.0000 1.0000
32.3800 145.0000 1.0000
32.4000 130.0000 1.0000
32.4200 145.0000 1.0000
32.4400 132.0000 1.0000
32.4600 146.0000 1.0000
32.4800 126.0000 1.0000
32.5000 113.0000 1.0000
32.5200 121.0000 1.0000
32.5400 121.0000 1.0000
32.5600 109.0000 1.0000
32.5800 111.0000 1.0000
32.6000 112.0000 1.0000
32.6200 104.0000 1.0000
32.6400 108.0000 1.0000
32.6600 110.0000 1.0000
32.6800 113.0000 1.0000
32.7000 117.0000 1.0000
32.7200 116.0000 1.0000
32.7400 127.0000 1.0000
32.7600 123.0000 1.0000
32.7800 129.0000 1.0000
32.8000 120.0000 1.0000
32.8200 118.0000 1.0000
32.8400 128.0000 1.0000
32.8600 121.0000 1.0000
32.8800 121.0000 1.0000
32.9000 130.0000 1.0000
32.9200 126.0000 1.0000
32.9400 136.0000 1.0000
32.9600 127.0000 1.0000
32.9800 121.0000 1.0000
33.0000 128.0000 1.0000
33.0200 114.0000 1.0000
33.0400 109.0000 1.0000
33.0600 119.0000 1.0000
33.0800 122.0000 1.0000
33.1000 115.0000 1.0000
33.1200 111.0000 1.0000
33.1400 122.0000 1.0000
33.1600 111.0000 1.0000
33.1800 107.0000 1.0000
33.2000 114.0000 1.0000
33.2200 126.0000 1.0000
33.2400 123.0000 1.0000
33.2600 128.0000 1.0000
33.2800 124.0000 1.0000
33.3000 137.0000 1.0000
33.3200 139.0000 1.0000
33.3400 131.0000 1.0000
33.3600 128.0000 1.0000
33.3800 139.0000 1.0000
33.4000 151.0000 1.0000
33.4200 141.0000 1.0000
33.4400 148.0000 1.0000
33.4600 151.0000 1.0000
33.4800 188.0000 1.0000
33.5000 163.0000 1.0000
33.5200 167.0000 1.0000
33.5400 182.0000 1.0000
33.5600 179.0000 1.0000
33.5800 189.0000 1.0000
33.6000 213.0000 1.0000
33.6200 243.0000 1.0000
33.6400 252.0000 1.0000
33.6600 273.0000 1.0000
33.6800 288.0000 1.0000
33.7000 285.0000 1.0000
33.7200 275.0000 1.0000
33.7400 259.0000 1.0000
33.7600 304.0000 1.0000
33.7800 268.0000 1.0000
33.8000 267.0000 1.0000
33.8200 262.0000 1.0000
33.8400 263.0000 1.0000
33.8600 281.0000 1.0000
33.8800 216.0000 1.0000
33.9000 246.0000 1.0000
33.9200 258.0000 1.0000
33.9400 217.0000 1.0000
33.9600 259.0000 1.0000
33.9800 301.0000 1.0000
34.0000 295.0000 1.0000
34.0200 273.0000 1.0000
34.0400 275.0000 1.0000
34.0600 266.0000 1.0000
34.0800 301.0000 1.0000
34.1000 245.0000 1.0000
34.1200 252.0000 1.0000
34.1400 242.0000 1.0000
34.1600 228.0000 1.0000
34.1800 221.0000 1.0000
34.2000 209.0000 1.0000
34.2200 218.0000 1.0000
34.2400 229.0000 1.0000
34.2600 234.0000 1.0000
34.2800 225.0000 1.0000
34.3000 235.0000 1.0000
34.3200 234.0000 1.0000
34.3400 274.0000 1.0000
34.3600 246.0000 1.0000
34.3800 239.0000 1.0000
34.4000 258.0000 1.0000
34.4200 232.0000 1.0000
34.4400 262.0000 1.0000
34.4600 262.0000 1.0000
34.4800 257.0000 1.0000
34.5000 266.0000 1.0000
34.5200 285.0000 1.0000
34.5400 264.0000 1.0000
34.5600 259.0000 1.0000
34.5800 307.0000 1.0000
34.6000 305.0000 1.0000
34.6200 339.0000 1.0000
34.6400 294.0000 1.0000
34.6600 323.0000 1.0000
34.6800 326.0000 1.0000
34.7000 388.0000 1.0000
34.7200 398.0000 1.0000
34.7400 426.0000 1.0000
34.7600 464.0000 1.0000
34.7800 529.0000 1.0000
34.8000 568.0000 1.0000
34.8200 688.0000 1.0000
34.8400 777.0000 1.0000
34.8600 938.0000 1.0000
34.8800 1142.0000 1.0000
34.9000 1356.0000 1.0000
34.9200 1556.0000 1.0000
34.9400 1836.0000 1.0000
34.9600 1927.0000 1.0000
34.9800 1946.0000 1.0000
35.0000 1811.0000 1.0000
35.0200 1734.0000 1.0000
35.0400 1499.0000 1.0000
35.0600 1358.0000 1.0000
35.0800 1189.0000 1.0000
35.1000 938.0000 1.0000
35.1200 848.0000 1.0000
35.1400 669.0000 1.0000
35.1600 574.0000 1.0000
35.1800 539.0000 1.0000
35.2000 481.0000 1.0000
35.2200 471.0000 1.0000
35.2400 405.0000 1.0000
35.2600 400.0000 1.0000
35.2800 380.0000 1.0000
35.3000 354.0000 1.0000
35.3200 358.0000 1.0000
35.3400 325.0000 1.0000
35.3600 349.0000 1.0000
35.3800 336.0000 1.0000
35.4000 320.0000 1.0000
35.4200 324.0000 1.0000
35.4400 289.0000 1.0000
35.4600 300.0000 1.0000
35.4800 311.0000 1.0000
35.5000 296.0000 1.0000
35.5200 287.0000 1.0000
35.5400 229.0000 1.0000
35.5600 254.0000 1.0000
35.5800 254.0000 1.0000
35.6000 239.0000 1.0000
35.6200 198.0000 1.0000
35.6400 195.0000 1.0000
35.6600 242.0000 1.0000
35.6800 228.0000 1.0000
35.7000 213.0000 1.0000
35.7200 195.0000 1.0000
35.7400 209.0000 1.0000
35.7600 209.0000 1.0000
35.7800 201.0000 1.0000
35.8000 184.0000 1.0000
35.8200 210.0000 1.0000
35.8400 227.0000 1.0000
35.8600 216.0000 1.0000
35.8800 228.0000 1.0000
35.9000 234.0000 1.0000
35.9200 221.0000 1.0000
35.9400 212.0000 1.0000
35.9600 254.0000 1.0000
35.9800 240.0000 1.0000
36.0000 260.0000 1.0000
36.0200 274.0000 1.0000
36.0400 266.0000 1.0000
36.0600 274.0000 1.0000
36.0800 271.0000 1.0000
36.1000 269.0000 1.0000
36.1200 292.0000 1.0000
36.1400 289.0000 1.0000
36.1600 290.0000 1.0000
36.1800 275.0000 1.0000
36.2000 315.0000 1.0000
36.2200 342.0000 1.0000
36.2400 342.0000 1.0000
36.2600 446.0000 1.0000
36.2800 525.0000 1.0000
36.3000 629.0000 1.0000
36.3200 731.0000 1.0000
36.3400 838.0000 1.0000
36.3600 840.0000 1.0000
36.3800 870.0000 1.0000
36.4000 827.0000 1.0000
36.4200 772.0000 1.0000
36.4400 723.0000 1.0000
36.4600 659.0000 1.0000
36.4800 556.0000 1.0000
36.5000 508.0000 1.0000
36.5200 438.0000 1.0000
36.5400 363.0000 1.0000
36.5600 326.0000 1.0000
36.5800 313.0000 1.0000
36.6000 293.0000 1.0000
36.6200 275.0000 1.0000
36.6400 261.0000 1.0000
36.6600 276.0000 1.0000
36.6800 240.0000 1.0000
36.7000 250.0000 1.0000
36.7200 285.0000 1.0000
36.7400 276.0000 1.0000
36.7600 289.0000 1.0000
36.7800 265.0000 1.0000
36.8000 298.0000 1.0000
36.8200 294.0000 1.0000
36.8400 325.0000 1.0000
36.8600 271.0000 1.0000
36.8800 272.0000 1.0000
36.9000 270.0000 1.0000
36.9200 233.0000 1.0000
36.9400 236.0000 1.0000
36.9600 241.0000 1.0000
36.9800 230.0000 1.0000
37.0000 227.0000 1.0000
37.0200 215.0000 1.0000
37.0400 194.0000 1.0000
37.0600 179.0000 1.0000
37.0800 190.0000 1.0000
37.1000 183.0000 1.0000
37.1200 192.0000 1.0000
37.1400 223.0000 1.0000
37.1600 209.0000 1.0000
37.1800 210.0000 1.0000
37.2000 232.0000 1.0000
37.2200 214.0000 1.0000
37.2400 210.0000 1.0000
37.2600 209.0000 1.0000
37.2800 248.0000 1.0000
37.3000 239.0000 1.0000
37.3200 244.0000 1.0000
37.3400 262.0000 1.0000
37.3600 285.0000 1.0000
37.3800 259.0000 1.0000
37.4000 289.0000 1.0000
37.4200 328.0000 1.0000
37.4400 377.0000 1.0000
37.4600 394.0000 1.0000
37.4800 414.0000 1.0000
37.5000 511.0000 1.0000
37.5200 624.0000 1.0000
37.5400 682.0000 1.0000
37.5600 729.0000 1.0000
37.5800 811.0000 1.0000
37.6000 785.0000 1.0000
37.6200 780.0000 1.0000
37.6400 752.0000 1.0000
37.6600 652.0000 1.0000
37.6800 592.0000 1.0000
37.7000 521.0000 1.0000
37.7200 434.0000 1.0000
37.7400 344.0000 1.0000
37.7600 285.0000 1.0000
37.7800 253.0000 1.0000
37.8000 202.0000 1.0000
37.8200 172.0000 1.0000
37.8400 154.0000 1.0000
37.8600 152.0000 1.0000
37.8800 170.0000 1.0000
37.9000 161.0000 1.0000
37.9200 156.0000 1.0000
37.9400 160.0000 1.0000
37.9600 148.0000 1.0000
37.9800 150.0000 1.0000
38.0000 148.0000 1.0000
38.0200 141.0000 1.0000
38.0400 141.0000 1.0000
38.0600 151.0000 1.0000
38.0800 144.0000 1.0000
38.1000 130.0000 1.0000
38.1200 122.0000 1.0000
38.1400 134.0000 1.0000
38.1600 126.0000 1.0000
38.1800 139.0000 1.0000
38.2000 151.0000 1.0000
38.2200 146.0000 1.0000
38.2400 154.0000 1.0000
38.2600 154.0000 1.0000
38.2800 151.0000 1.0000
38.3000 161.0000 1.0000
38.3200 180.0000 1.0000
38.3400 189.0000 1.0000
38.3600 184.0000 1.0000
38.3800 205.0000 1.0000
38.4000 197.0000 1.0000
38.4200 176.0000 1.0000
38.4400 177.0000 1.0000
38.4600 192.0000 1.0000
38.4800 187.0000 1.0000
38.5000 163.0000 1.0000
38.5200 149.0000 1.0000
38.5400 161.0000 1.0000
38.5600 161.0000 1.0000
38.5800 156.0000 1.0000
38.6000 155.0000 1.0000
38.6200 173.0000 1.0000
38.6400 175.0000 1.0000
38.6600 166.0000 1.0000
38.6800 153.0000 1.0000
38.7000 163.0000 1.0000
38.7200 169.0000 1.0000
38.7400 181.0000 1.0000
38.7600 188.0000 1.0000
38.7800 184.0000 1.0000
38.8000 163.0000 1.0000
38.8200 173.0000 1.0000
38.8400 196.0000 1.0000
38.8600 186.0000 1.0000
38.8800 180.0000 1.0000
38.9000 182.0000 1.0000
38.9200 193.0000 1.0000
38.9400 214.0000 1.0000
38.9600 217.0000 1.0000
38.9800 197.0000 1.0000
39.0000 197.0000 1.0000
39.0200 208.0000 1.0000
39.0400 215.0000 1.0000
39.0600 223.0000 1.0000
39.0800 221.0000 1.0000
39.1000 219.0000 1.0000
39.1200 226.0000 1.0000
39.1400 274.0000 1.0000
39.1600 304.0000 1.0000
39.1800 336.0000 1.0000
39.2000 394.0000 1.0000
39.2200 468.0000 1.0000
39.2400 574.0000 1.0000
39.2600 658.0000 1.0000
39.2800 692.0000 1.0000
39.3000 745.0000 1.0000
39.3200 722.0000 1.0000
39.3400 689.0000 1.0000
39.3600 631.0000 1.0000
39.3800 550.0000 1.0000
39.4000 490.0000 1.0000
39.4200 424.0000 1.0000
39.4400 365.0000 1.0000
39.4600 339.0000 1.0000
39.4800 281.0000 1.0000
39.5000 236.0000 1.0000
39.5200 216.0000 1.0000
39.5400 205.0000 1.0000
39.5600 206.0000 1.0000
39.5800 198.0000 1.0000
39.6000 181.0000 1.0000
39.6200 177.0000 1.0000
39.6400 167.0000 1.0000
39.6600 168.0000 1.0000
39.6800 162.0000 1.0000
39.7000 139.0000 1.0000
39.7200 138.0000 1.0000
39.7400 158.0000 1.0000
39.7600 142.0000 1.0000
39.7800 135.0000 1.0000
39.8000 141.0000 1.0000
39.8200 142.0000 1.0000
39.8400 152.0000 1.0000
39.8600 161.0000 1.0000
39.8800 169.0000 1.0000
39.9000 184.0000 1.0000
39.9200 185.0000 1.0000
39.9400 177.0000 1.0000
39.9600 187.0000 1.0000
39.9800 216.0000 1.0000
40.0000 224.0000 1.0000
40.0200 257.0000 1.0000
40.0400 286.0000 1.0000
40.0600 330.0000 1.0000
40.0800 368.0000 1.0000
40.1000 417.0000 1.0000
40.1200 442.0000 1.0000
40.1400 417.0000 1.0000
40.1600 407.0000 1.0000
40.1800 393.0000 1.0000
40.2000 363.0000 1.0000
40.2200 313.0000 1.0000
40.2400 264.0000 1.0000
40.2600 232.0000 1.0000
40.2800 202.0000 1.0000
40.3000 184.0000 1.0000
40.3200 160.0000 1.0000
40.3400 151.0000 1.0000
40.3600 159.0000 1.0000
40.3800 146.0000 1.0000
40.4000 139.0000 1.0000
40.4200 143.0000 1.0000
40.4400 145.0000 1.0000
40.4600 142.0000 1.0000
40.4800 136.0000 1.0000
40.5000 140.0000 1.0000
40.5200 136.0000 1.0000
40.5400 142.0000 1.0000
40.5600 152.0000 1.0000
40.5800 149.0000 1.0000
40.6000 159.0000 1.0000
40.6200 167.0000 1.0000
40.6400 168.0000 1.0000
40.6600 163.0000 1.0000
40.6800 170.0000 1.0000
40.7000 170.0000 1.0000
40.7200 161.0000 1.0000
40.7400 153.0000 1.0000
40.7600 161.0000 1.0000
40.7800 170.0000 1.0000
40.8000 147.0000 1.0000
40.8200 136.0000 1.0000
40.8400 146.0000 1.0000
40.8600 157.0000 1.0000
40.8800 151.0000 1.0000
40.9000 147.0000 1.0000
40.9200 151.0000 1.0000
40.9400 149.0000 1.0000
40.9600 154.0000 1.0000
40.9800 150.0000 1.0000
41.0000 146.0000 1.0000
41.0200 156.0000 1.0000
41.0400 164.0000 1.0000
41.0600 175.0000 1.0000
41.0800 178.0000 1.0000
41.1000 168.0000 1.0000
41.1200 178.0000 1.0000
41.1400 165.0000 1.0000
41.1600 172.0000 1.0000
41.1800 186.0000 1.0000
41.2000 169.0000 1.0000
41.2200 156.0000 1.0000
41.2400 156.0000 1.0000
41.2600 171.0000 1.0000
41.2800 163.0000 1.0000
41.3000 168.0000 1.0000
41.3200 166.0000 1.0000
41.3400 149.0000 1.0000
41.3600 149.0000 1.0000
41.3800 158.0000 1.0000
41.4000 157.0000 1.0000
41.4200 159.0000 1.0000
41.4400 175.0000 1.0000
41.4600 188.0000 1.0000
41.4800 195.0000 1.0000
41.5000 218.0000 1.0000
41.5200 237.0000 1.0000
41.5400 247.0000 1.0000
41.5600 275.0000 1.0000
41.5800 288.0000 1.0000
41.6000 305.0000 1.0000
41.6200 305.0000 1.0000
41.6400 298.0000 1.0000
41.6600 291.0000 1.0000
41.6800 298.0000 1.0000
41.7000 283.0000 1.0000
41.7200 268.0000 1.0000
41.7400 266.0000 1.0000
41.7600 252.0000 1.0000
41.7800 230.0000 1.0000
41.8000 211.0000 1.0000
41.8200 195.0000 1.0000
41.8400 176.0000 1.0000
41.8600 179.0000 1.0000
41.8800 181.0000 1.0000
41.9000 184.0000 1.0000
41.9200 167.0000 1.0000
41.9400 166.0000 1.0000
41.9600 179.0000 1.0000
41.9800 179.0000 1.0000
42.0000 200.0000 1.0000
42.0200 212.0000 1.0000
42.0400 223.0000 1.0000
42.0600 255.0000 1.0000
42.0800 252.0000 1.0000
42.1000 286.0000 1.0000
42.1200 327.0000 1.0000
42.1400 363.0000 1.0000
42.1600 385.0000 1.0000
42.1800 434.0000 1.0000
42.2000 515.0000 1.0000
42.2200 559.0000 1.0000
42.2400 585.0000 1.0000
42.2600 645.0000 1.0000
42.2800 669.0000 1.0000
42.3000 634.0000 1.0000
42.3200 603.0000 1.0000
42.3400 561.0000 1.0000
42.3600 521.0000 1.0000
42.3800 456.0000 1.0000
42.4000 439.0000 1.0000
42.4200 405.0000 1.0000
42.4400 337.0000 1.0000
42.4600 297.0000 1.0000
42.4800 257.0000 1.0000
42.5000 250.0000 1.0000
42.5200 239.0000 1.0000
42.5400 212.0000 1.0000
42.5600 231.0000 1.0000
42.5800 239.0000 1.0000
42.6000 244.0000 1.0000
42.6200 276.0000 1.0000
42.6400 263.0000 1.0000
42.6600 266.0000 1.0000
42.6800 285.0000 1.0000
42.7000 299.0000 1.0000
42.7200 280.0000 1.0000
42.7400 315.0000 1.0000
42.7600 311.0000 1.0000
42.7800 269.0000 1.0000
42.8000 287.0000 1.0000
42.8200 295.0000 1.0000
42.8400 277.0000 1.0000
42.8600 294.0000 1.0000
42.8800 268.0000 1.0000
42.9000 254.0000 1.0000
42.9200 285.0000 1.0000
42.9400 298.0000 1.0000
42.9600 341.0000 1.0000
42.9800 378.0000 1.0000
43.0000 409.0000 1.0000
43.0200 478.0000 1.0000
43.0400 587.0000 1.0000
43.0600 669.0000 1.0000
43.0800 825.0000 1.0000
43.1000 1048.0000 1.0000
43.1200 1259.0000 1.0000
43.1400 1530.0000 1.0000
43.1600 1682.0000 1.0000
43.1800 1715.0000 1.0000
43.2000 1720.0000 1.0000
43.2200 1775.0000 1.0000
43.2400 1598.0000 1.0000
43.2600 1344.0000 1.0000
43.2800 1162.0000 1.0000
43.3000 1052.0000 1.0000
43.3200 899.0000 1.0000
43.3400 739.0000 1.0000
43.3600 622.0000 1.0000
43.3800 493.0000 1.0000
43.4000 365.0000 1.0000
43.4200 316.0000 1.0000
43.4400 252.0000 1.0000
43.4600 236.0000 1.0000
43.4800 258.0000 1.0000
43.5000 207.0000 1.0000
43.5200 183.0000 1.0000
43.5400 187.0000 1.0000
43.5600 201.0000 1.0000
43.5800 157.0000 1.0000
43.6000 160.0000 1.0000
43.6200 171.0000 1.0000
43.6400 165.0000 1.0000
43.6600 152.0000 1.0000
43.6800 147.0000 1.0000
43.7000 148.0000 1.0000
43.7200 148.0000 1.0000
43.7400 133.0000 1.0000
43.7600 153.0000 1.0000
43.7800 152.0000 1.0000
43.8000 138.0000 1.0000
43.8200 132.0000 1.0000
43.8400 154.0000 1.0000
43.8600 133.0000 1.0000
43.8800 130.0000 1.0000
43.9000 115.0000 1.0000
43.9200 150.0000 1.0000
43.9400 151.0000 1.0000
43.9600 149.0000 1.0000
43.9800 128.0000 1.0000
44.0000 133.0000 1.0000
44.0200 121.0000 1.0000
44.0400 130.0000 1.0000
44.0600 150.0000 1.0000
44.0800 136.0000 1.0000
44.1000 139.0000 1.0000
44.1200 128.0000 1.0000
44.1400 117.0000 1.0000
44.1600 128.0000 1.0000
44.1800 150.0000 1.0000
44.2000 137.0000 1.0000
44.2200 122.0000 1.0000
44.2400 142.0000 1.0000
44.2600 135.0000 1.0000
44.2800 120.0000 1.0000
44.3000 122.0000 1.0000
44.3200 106.0000 1.0000
44.3400 130.0000 1.0000
44.3600 136.0000 1.0000
44.3800 144.0000 1.0000
44.4000 147.0000 1.0000
44.4200 135.0000 1.0000
44.4400 129.0000 1.0000
44.4600 126.0000 1.0000
44.4800 137.0000 1.0000
44.5000 139.0000 1.0000
44.5200 144.0000 1.0000
44.5400 134.0000 1.0000
44.5600 147.0000 1.0000
44.5800 151.0000 1.0000
44.6000 159.0000 1.0000
44.6200 148.0000 1.0000
44.6400 176.0000 1.0000
44.6600 158.0000 1.0000
44.6800 168.0000 1.0000
44.7000 175.0000 1.0000
44.7200 165.0000 1.0000
44.7400 197.0000 1.0000
44.7600 184.0000 1.0000
44.7800 167.0000 1.0000
44.8000 185.0000 1.0000
44.8200 169.0000 1.0000
44.8400 199.0000 1.0000
44.8600 194.0000 1.0000
44.8800 171.0000 1.0000
44.9000 155.0000 1.0000
44.9200 176.0000 1.0000
44.9400 184.0000 1.0000
44.9600 165.0000 1.0000
44.9800 171.0000 1.0000
45.0000 170.0000 1.0000
45.0200 191.0000 1.0000
45.0400 166.0000 1.0000
45.0600 191.0000 1.0000
45.0800 163.0000 1.0000
45.1000 182.0000 1.0000
45.1200 195.0000 1.0000
45.1400 201.0000 1.0000
45.1600 182.0000 1.0000
45.1800 195.0000 1.0000
45.2000 201.0000 1.0000
45.2200 208.0000 1.0000
45.2400 197.0000 1.0000
45.2600 211.0000 1.0000
45.2800 197.0000 1.0000
45.3000 215.0000 1.0000
45.3200 221.0000 1.0000
45.3400 229.0000 1.0000
45.3600 195.0000 1.0000
45.3800 233.0000 1.0000
45.4000 201.0000 1.0000
45.4200 235.0000 1.0000
45.4400 240.0000 1.0000
45.4600 248.0000 1.0000
45.4800 287.0000 1.0000
45.5000 309.0000 1.0000
45.5200 317.0000 1.0000
45.5400 369.0000 1.0000
45.5600 402.0000 1.0000
45.5800 459.0000 1.0000
45.6000 481.0000 1.0000
45.6200 497.0000 1.0000
45.6400 511.0000 1.0000
45.6600 467.0000 1.0000
45.6800 425.0000 1.0000
45.7000 409.0000 1.0000
45.7200 376.0000 1.0000
45.7400 334.0000 1.0000
45.7600 309.0000 1.0000
45.7800 286.0000 1.0000
45.8000 234.0000 1.0000
45.8200 216.0000 1.0000
45.8400 173.0000 1.0000
45.8600 160.0000 1.0000
45.8800 167.0000 1.0000
45.9000 162.0000 1.0000
45.9200 153.0000 1.0000
45.9400 172.0000 1.0000
45.9600 174.0000 1.0000
45.9800 187.0000 1.0000
46.0000 163.0000 1.0000
46.0200 171.0000 1.0000
46.0400 143.0000 1.0000
46.0600 169.0000 1.0000
46.0800 160.0000 1.0000
46.1000 153.0000 1.0000
46.1200 127.0000 1.0000
46.1400 129.0000 1.0000
46.1600 149.0000 1.0000
46.1800 146.0000 1.0000
46.2000 144.0000 1.0000
46.2200 117.0000 1.0000
46.2400 124.0000 1.0000
46.2600 121.0000 1.0000
46.2800 123.0000 1.0000
46.3000 129.0000 1.0000
46.3200 125.0000 1.0000
46.3400 128.0000 1.0000
46.3600 121.0000 1.0000
46.3800 121.0000 1.0000
46.4000 127.0000 1.0000
46.4200 132.0000 1.0000
46.4400 132.0000 1.0000
46.4600 116.0000 1.0000
46.4800 113.0000 1.0000
46.5000 118.0000 1.0000
46.5200 126.0000 1.0000
46.5400 119.0000 1.0000
46.5600 130.0000 1.0000
46.5800 123.0000 1.0000
46.6000 117.0000 1.0000
46.6200 131.0000 1.0000
46.6400 143.0000 1.0000
46.6600 161.0000 1.0000
46.6800 141.0000 1.0000
46.7000 152.0000 1.0000
46.7200 149.0000 1.0000
46.7400 158.0000 1.0000
46.7600 140.0000 1.0000
46.7800 173.0000 1.0000
46.8000 161.0000 1.0000
46.8200 147.0000 1.0000
46.8400 130.0000 1.0000
46.8600 134.0000 1.0000
46.8800 141.0000 1.0000
46.9000 150.0000 1.0000
46.9200 165.0000 1.0000
46.9400 146.0000 1.0000
46.9600 154.0000 1.0000
46.9800 141.0000 1.0000
47.0000 152.0000 1.0000
47.0200 137.0000 1.0000
47.0400 144.0000 1.0000
47.0600 154.0000 1.0000
47.0800 156.0000 1.0000
47.1000 139.0000 1.0000
47.1200 128.0000 1.0000
47.1400 133.0000 1.0000
47.1600 147.0000 1.0000
47.1800 171.0000 1.0000
47.2000 143.0000 1.0000
47.2200 138.0000 1.0000
47.2400 158.0000 1.0000
47.2600 168.0000 1.0000
47.2800 170.0000 1.0000
47.3000 181.0000 1.0000
47.3200 169.0000 1.0000
47.3400 178.0000 1.0000
47.3600 195.0000 1.0000
47.3800 200.0000 1.0000
47.4000 179.0000 1.0000
47.4200 187.0000 1.0000
47.4400 179.0000 1.0000
47.4600 180.0000 1.0000
47.4800 155.0000 1.0000
47.5000 147.0000 1.0000
47.5200 141.0000 1.0000
47.5400 152.0000 1.0000
47.5600 151.0000 1.0000
47.5800 142.0000 1.0000
47.6000 140.0000 1.0000
47.6200 139.0000 1.0000
47.6400 142.0000 1.0000
47.6600 154.0000 1.0000
47.6800 142.0000 1.0000
47.7000 139.0000 1.0000
47.7200 133.0000 1.0000
47.7400 119.0000 1.0000
47.7600 140.0000 1.0000
47.7800 148.0000 1.0000
47.8000 139.0000 1.0000
47.8200 139.0000 1.0000
47.8400 137.0000 1.0000
47.8600 138.0000 1.0000
47.8800 135.0000 1.0000
47.9000 134.0000 1.0000
47.9200 141.0000 1.0000
47.9400 138.0000 1.0000
47.9600 138.0000 1.0000
47.9800 146.0000 1.0000
48.0000 142.0000 1.0000
48.0200 144.0000 1.0000
48.0400 159.0000 1.0000
48.0600 159.0000 1.0000
48.0800 159.0000 1.0000
48.1000 165.0000 1.0000
48.1200 182.0000 1.0000
48.1400 197.0000 1.0000
48.1600 212.0000 1.0000
48.1800 207.0000 1.0000
48.2000 190.0000 1.0000
48.2200 184.0000 1.0000
48.2400 171.0000 1.0000
48.2600 165.0000 1.0000
48.2800 174.0000 1.0000
48.3000 164.0000 1.0000
48.3200 151.0000 1.0000
48.3400 144.0000 1.0000
48.3600 136.0000 1.0000
48.3800 140.0000 1.0000
48.4000 139.0000 1.0000
48.4200 127.0000 1.0000
48.4400 128.0000 1.0000
48.4600 135.0000 1.0000
48.4800 134.0000 1.0000
48.5000 144.0000 1.0000
48.5200 143.0000 1.0000
48.5400 140.0000 1.0000
48.5600 134.0000 1.0000
48.5800 132.0000 1.0000
48.6000 146.0000 1.0000
48.6200 153.0000 1.0000
48.6400 147.0000 1.0000
48.6600 137.0000 1.0000
48.6800 142.0000 1.0000
48.7000 164.0000 1.0000
48.7200 166.0000 1.0000
48.7400 160.0000 1.0000
48.7600 163.0000 1.0000
48.7800 174.0000 1.0000
48.8000 189.0000 1.0000
48.8200 192.0000 1.0000
48.8400 202.0000 1.0000
48.8600 214.0000 1.0000
48.8800 210.0000 1.0000
48.9000 204.0000 1.0000
48.9200 202.0000 1.0000
48.9400 204.0000 1.0000
48.9600 213.0000 1.0000
48.9800 219.0000 1.0000
49.0000 244.0000 1.0000
49.0200 263.0000 1.0000
49.0400 260.0000 1.0000
49.0600 264.0000 1.0000
49.0800 251.0000 1.0000
49.1000 249.0000 1.0000
49.1200 256.0000 1.0000
49.1400 225.0000 1.0000
49.1600 194.0000 1.0000
49.1800 191.0000 1.0000
49.2000 201.0000 1.0000
49.2200 192.0000 1.0000
49.2400 175.0000 1.0000
49.2600 172.0000 1.0000
49.2800 174.0000 1.0000
49.3000 182.0000 1.0000
49.3200 187.0000 1.0000
49.3400 180.0000 1.0000
49.3600 182.0000 1.0000
49.3800 183.0000 1.0000
49.4000 187.0000 1.0000
49.4200 194.0000 1.0000
49.4400 199.0000 1.0000
49.4600 212.0000 1.0000
49.4800 212.0000 1.0000
49.5000 240.0000 1.0000
49.5200 265.0000 1.0000
49.5400 263.0000 1.0000
49.5600 274.0000 1.0000
49.5800 307.0000 1.0000
49.6000 327.0000 1.0000
49.6200 331.0000 1.0000
49.6400 377.0000 1.0000
49.6600 401.0000 1.0000
49.6800 416.0000 1.0000
49.7000 406.0000 1.0000
49.7200 418.0000 1.0000
49.7400 445.0000 1.0000
49.7600 458.0000 1.0000
49.7800 463.0000 1.0000
49.8000 480.0000 1.0000
49.8200 488.0000 1.0000
49.8400 583.0000 1.0000
49.8600 680.0000 1.0000
49.8800 739.0000 1.0000
49.9000 876.0000 1.0000
49.9200 1066.0000 1.0000
49.9400 1156.0000 1.0000
49.9600 1230.0000 1.0000
49.9800 1215.0000 1.0000
50.0000 1218.0000 1.0000
50.0200 1114.0000 1.0000
50.0400 977.0000 1.0000
50.0600 891.0000 1.0000
50.0800 795.0000 1.0000
50.1000 713.0000 1.0000
50.1200 652.0000 1.0000
50.1400 606.0000 1.0000
50.1600 526.0000 1.0000
50.1800 459.0000 1.0000
50.2000 358.0000 1.0000
50.2200 285.0000 1.0000
50.2400 246.0000 1.0000
50.2600 241.0000 1.0000
50.2800 271.0000 1.0000
50.3000 291.0000 1.0000
50.3200 292.0000 1.0000
50.3400 314.0000 1.0000
50.3600 349.0000 1.0000
50.3800 341.0000 1.0000
50.4000 352.0000 1.0000
50.4200 368.0000 1.0000
50.4400 364.0000 1.0000
50.4600 361.0000 1.0000
50.4800 387.0000 1.0000
50.5000 408.0000 1.0000
50.5200 387.0000 1.0000
50.5400 368.0000 1.0000
50.5600 349.0000 1.0000
50.5800 331.0000 1.0000
50.6000 330.0000 1.0000
50.6200 322.0000 1.0000
50.6400 285.0000 1.0000
50.6600 292.0000 1.0000
50.6800 267.0000 1.0000
50.7000 277.0000 1.0000
50.7200 242.0000 1.0000
50.7400 231.0000 1.0000
50.7600 214.0000 1.0000
50.7800 204.0000 1.0000
50.8000 204.0000 1.0000
50.8200 195.0000 1.0000
50.8400 191.0000 1.0000
50.8600 187.0000 1.0000
50.8800 191.0000 1.0000
50.9000 180.0000 1.0000
50.9200 186.0000 1.0000
50.9400 216.0000 1.0000
50.9600 242.0000 1.0000
50.9800 240.0000 1.0000
51.0000 254.0000 1.0000
51.0200 251.0000 1.0000
51.0400 275.0000 1.0000
51.0600 288.0000 1.0000
51.0800 259.0000 1.0000
51.1000 281.0000 1.0000
51.1200 309.0000 1.0000
51.1400 346.0000 1.0000
51.1600 312.0000 1.0000
51.1800 321.0000 1.0000
51.2000 301.0000 1.0000
51.2200 300.0000 1.0000
51.2400 278.0000 1.0000
51.2600 271.0000 1.0000
51.2800 243.0000 1.0000
51.3000 226.0000 1.0000
51.3200 233.0000 1.0000
51.3400 229.0000 1.0000
51.3600 196.0000 1.0000
51.3800 180.0000 1.0000
51.4000 185.0000 1.0000
51.4200 153.0000 1.0000
51.4400 159.0000 1.0000
51.4600 154.0000 1.0000
51.4800 149.0000 1.0000
51.5000 142.0000 1.0000
51.5200 150.0000 1.0000
51.5400 138.0000 1.0000
51.5600 139.0000 1.0000
51.5800 120.0000 1.0000
51.6000 139.0000 1.0000
51.6200 155.0000 1.0000
51.6400 129.0000 1.0000
51.6600 135.0000 1.0000
51.6800 135.0000 1.0000
51.7000 118.0000 1.0000
51.7200 117.0000 1.0000
51.7400 102.0000 1.0000
51.7600 126.0000 1.0000
51.7800 118.0000 1.0000
51.8000 130.0000 1.0000
51.8200 127.0000 1.0000
51.8400 120.0000 1.0000
51.8600 132.0000 1.0000
51.8800 139.0000 1.0000
51.9000 130.0000 1.0000
51.9200 137.0000 1.0000
51.9400 148.0000 1.0000
51.9600 152.0000 1.0000
51.9800 155.0000 1.0000
52.0000 169.0000 1.0000
52.0200 181.0000 1.0000
52.0400 167.0000 1.0000
52.0600 178.0000 1.0000
52.0800 175.0000 1.0000
52.1000 170.0000 1.0000
52.1200 221.0000 1.0000
52.1400 201.0000 1.0000
52.1600 211.0000 1.0000
52.1800 209.0000 1.0000
52.2000 219.0000 1.0000
52.2200 283.0000 1.0000
52.2400 273.0000 1.0000
52.2600 342.0000 1.0000
52.2800 425.0000 1.0000
52.3000 493.0000 1.0000
52.3200 627.0000 1.0000
52.3400 682.0000 1.0000
52.3600 785.0000 1.0000
52.3800 802.0000 1.0000
52.4000 801.0000 1.0000
52.4200 798.0000 1.0000
52.4400 768.0000 1.0000
52.4600 734.0000 1.0000
52.4800 658.0000 1.0000
52.5000 599.0000 1.0000
52.5200 598.0000 1.0000
52.5400 582.0000 1.0000
52.5600 541.0000 1.0000
52.5800 481.0000 1.0000
52.6000 405.0000 1.0000
52.6200 325.0000 1.0000
52.6400 292.0000 1.0000
52.6600 256.0000 1.0000
52.6800 257.0000 1.0000
52.7000 219.0000 1.0000
52.7200 215.0000 1.0000
52.7400 212.0000 1.0000
52.7600 191.0000 1.0000
52.7800 185.0000 1.0000
52.8000 198.0000 1.0000
52.8200 193.0000 1.0000
52.8400 201.0000 1.0000
52.8600 183.0000 1.0000
52.8800 171.0000 1.0000
52.9000 192.0000 1.0000
52.9200 165.0000 1.0000
52.9400 163.0000 1.0000
52.9600 180.0000 1.0000
52.9800 209.0000 1.0000
53.0000 180.0000 1.0000
53.0200 188.0000 1.0000
53.0400 204.0000 1.0000
53.0600 195.0000 1.0000
53.0800 195.0000 1.0000
53.1000 199.0000 1.0000
53.1200 177.0000 1.0000
53.1400 172.0000 1.0000
53.1600 169.0000 1.0000
53.1800 161.0000 1.0000
53.2000 173.0000 1.0000
53.2200 168.0000 1.0000
53.2400 153.0000 1.0000
53.2600 142.0000 1.0000
53.2800 132.0000 1.0000
53.3000 119.0000 1.0000
53.3200 133.0000 1.0000
53.3400 145.0000 1.0000
53.3600 128.0000 1.0000
53.3800 131.0000 1.0000
53.4000 139.0000 1.0000
53.4200 138.0000 1.0000
53.4400 135.0000 1.0000
53.4600 113.0000 1.0000
53.4800 131.0000 1.0000
53.5000 124.0000 1.0000
53.5200 132.0000 1.0000
53.5400 108.0000 1.0000
53.5600 125.0000 1.0000
53.5800 138.0000 1.0000
53.6000 136.0000 1.0000
53.6200 113.0000 1.0000
53.6400 133.0000 1.0000
53.6600 138.0000 1.0000
53.6800 140.0000 1.0000
53.7000 157.0000 1.0000
53.7200 139.0000 1.0000
53.7400 154.0000 1.0000
53.7600 145.0000 1.0000
53.7800 156.0000 1.0000
53.8000 142.0000 1.0000
53.8200 152.0000 1.0000
53.8400 132.0000 1.0000
53.8600 136.0000 1.0000
53.8800 146.0000 1.0000
53.9000 146.0000 1.0000
53.9200 141.0000 1.0000
53.9400 169.0000 1.0000
53.9600 170.0000 1.0000
53.9800 159.0000 1.0000
54.0000 144.0000 1.0000
54.0200 141.0000 1.0000
54.0400 137.0000 1.0000
54.0600 155.0000 1.0000
54.0800 147.0000 1.0000
54.1000 145.0000 1.0000
54.1200 139.0000 1.0000
54.1400 129.0000 1.0000
54.1600 150.0000 1.0000
54.1800 161.0000 1.0000
54.2000 163.0000 1.0000
54.2200 159.0000 1.0000
54.2400 157.0000 1.0000
54.2600 179.0000 1.0000
54.2800 193.0000 1.0000
54.3000 195.0000 1.0000
54.3200 187.0000 1.0000
54.3400 164.0000 1.0000
54.3600 166.0000 1.0000
54.3800 172.0000 1.0000
54.4000 162.0000 1.0000
54.4200 166.0000 1.0000
54.4400 166.0000 1.0000
54.4600 170.0000 1.0000
54.4800 171.0000 1.0000
54.5000 177.0000 1.0000
54.5200 183.0000 1.0000
54.5400 206.0000 1.0000
54.5600 206.0000 1.0000
54.5800 212.0000 1.0000
54.6000 241.0000 1.0000
54.6200 283.0000 1.0000
54.6400 312.0000 1.0000
54.6600 377.0000 1.0000
54.6800 403.0000 1.0000
54.7000 440.0000 1.0000
54.7200 469.0000 1.0000
54.7400 448.0000 1.0000
54.7600 416.0000 1.0000
54.7800 404.0000 1.0000
54.8000 346.0000 1.0000
54.8200 308.0000 1.0000
54.8400 307.0000 1.0000
54.8600 290.0000 1.0000
54.8800 277.0000 1.0000
54.9000 284.0000 1.0000
54.9200 244.0000 1.0000
54.9400 214.0000 1.0000
54.9600 208.0000 1.0000
54.9800 214.0000 1.0000
55.0000 192.0000 1.0000
55.0200 177.0000 1.0000
55.0400 200.0000 1.0000
55.0600 213.0000 1.0000
55.0800 207.0000 1.0000
55.1000 224.0000 1.0000
55.1200 237.0000 1.0000
55.1400 257.0000 1.0000
55.1600 278.0000 1.0000
55.1800 282.0000 1.0000
55.2000 276.0000 1.0000
55.2200 265.0000 1.0000
55.2400 263.0000 1.0000
55.2600 235.0000 1.0000
55.2800 217.0000 1.0000
55.3000 217.0000 1.0000
55.3200 224.0000 1.0000
55.3400 220.0000 1.0000
55.3600 194.0000 1.0000
55.3800 193.0000 1.0000
55.4000 181.0000 1.0000
55.4200 151.0000 1.0000
55.4400 149.0000 1.0000
55.4600 150.0000 1.0000
55.4800 146.0000 1.0000
55.5000 142.0000 1.0000
55.5200 143.0000 1.0000
55.5400 148.0000 1.0000
55.5600 130.0000 1.0000
55.5800 118.0000 1.0000
55.6000 126.0000 1.0000
55.6200 133.0000 1.0000
55.6400 140.0000 1.0000
55.6600 144.0000 1.0000
55.6800 142.0000 1.0000
55.7000 127.0000 1.0000
55.7200 114.0000 1.0000
55.7400 125.0000 1.0000
55.7600 119.0000 1.0000
55.7800 121.0000 1.0000
55.8000 137.0000 1.0000
55.8200 124.0000 1.0000
55.8400 117.0000 1.0000
55.8600 120.0000 1.0000
55.8800 129.0000 1.0000
55.9000 136.0000 1.0000
55.9200 126.0000 1.0000
55.9400 111.0000 1.0000
55.9600 120.0000 1.0000
55.9800 133.0000 1.0000
56.0000 117.0000 1.0000
56.0200 117.0000 1.0000
56.0400 136.0000 1.0000
56.0600 134.0000 1.0000
56.0800 126.0000 1.0000
56.1000 114.0000 1.0000
56.1200 112.0000 1.0000
56.1400 127.0000 1.0000
56.1600 127.0000 1.0000
56.1800 124.0000 1.0000
56.2000 120.0000 1.0000
56.2200 134.0000 1.0000
56.2400 139.0000 1.0000
56.2600 120.0000 1.0000
56.2800 114.0000 1.0000
56.3000 120.0000 1.0000
56.3200 123.0000 1.0000
56.3400 110.0000 1.0000
56.3600 110.0000 1.0000
56.3800 124.0000 1.0000
56.4000 118.0000 1.0000
56.4200 108.0000 1.0000
56.4400 103.0000 1.0000
56.4600 112.0000 1.0000
56.4800 127.0000 1.0000
56.5000 122.0000 1.0000
56.5200 116.0000 1.0000
56.5400 113.0000 1.0000
56.5600 123.0000 1.0000
56.5800 133.0000 1.0000
56.6000 129.0000 1.0000
56.6200 119.0000 1.0000
56.6400 110.0000 1.0000
56.6600 132.0000 1.0000
56.6800 132.0000 1.0000
56.7000 129.0000 1.0000
56.7200 127.0000 1.0000
56.7400 111.0000 1.0000
56.7600 116.0000 1.0000
56.7800 128.0000 1.0000
56.8000 124.0000 1.0000
56.8200 127.0000 1.0000
56.8400 138.0000 1.0000
56.8600 147.0000 1.0000
56.8800 124.0000 1.0000
56.9000 124.0000 1.0000
56.9200 148.0000 1.0000
56.9400 156.0000 1.0000
56.9600 160.0000 1.0000
56.9800 173.0000 1.0000
57.0000 171.0000 1.0000
57.0200 174.0000 1.0000
57.0400 186.0000 1.0000
57.0600 205.0000 1.0000
57.0800 215.0000 1.0000
57.1000 207.0000 1.0000
57.1200 229.0000 1.0000
57.1400 288.0000 1.0000
57.1600 318.0000 1.0000
57.1800 351.0000 1.0000
57.2000 429.0000 1.0000
57.2200 546.0000 1.0000
57.2400 652.0000 1.0000
57.2600 845.0000 1.0000
57.2800 1015.0000 1.0000
57.3000 1208.0000 1.0000
57.3200 1366.0000 1.0000
57.3400 1449.0000 1.0000
57.3600 1477.0000 1.0000
57.3800 1387.0000 1.0000
57.4000 1274.0000 1.0000
57.4200 1082.0000 1.0000
57.4400 1000.0000 1.0000
57.4600 970.0000 1.0000
57.4800 948.0000 1.0000
57.5000 882.0000 1.0000
57.5200 781.0000 1.0000
57.5400 712.0000 1.0000
57.5600 588.0000 1.0000
57.5800 447.0000 1.0000
57.6000 386.0000 1.0000
57.6200 328.0000 1.0000
57.6400 295.0000 1.0000
57.6600 250.0000 1.0000
57.6800 222.0000 1.0000
57.7000 199.0000 1.0000
57.7200 201.0000 1.0000
57.7400 196.0000 1.0000
57.7600 188.0000 1.0000
57.7800 173.0000 1.0000
57.8000 175.0000 1.0000
57.8200 161.0000 1.0000
57.8400 145.0000 1.0000
57.8600 151.0000 1.0000
57.8800 146.0000 1.0000
57.9000 151.0000 1.0000
57.9200 154.0000 1.0000
57.9400 139.0000 1.0000
57.9600 137.0000 1.0000
57.9800 141.0000 1.0000
58.0000 145.0000 1.0000
58.0200 132.0000 1.0000
58.0400 129.0000 1.0000
58.0600 134.0000 1.0000
58.0800 143.0000 1.0000
58.1000 146.0000 1.0000
58.1200 158.0000 1.0000
58.1400 153.0000 1.0000
58.1600 138.0000 1.0000
58.1800 152.0000 1.0000
58.2000 162.0000 1.0000
58.2200 172.0000 1.0000
58.2400 173.0000 1.0000
58.2600 153.0000 1.0000
58.2800 169.0000 1.0000
58.3000 155.0000 1.0000
58.3200 171.0000 1.0000
58.3400 173.0000 1.0000
58.3600 168.0000 1.0000
58.3800 181.0000 1.0000
58.4000 201.0000 1.0000
58.4200 186.0000 1.0000
58.4400 168.0000 1.0000
58.4600 174.0000 1.0000
58.4800 184.0000 1.0000
58.5000 180.0000 1.0000
58.5200 189.0000 1.0000
58.5400 196.0000 1.0000
58.5600 183.0000 1.0000
58.5800 170.0000 1.0000
58.6000 169.0000 1.0000
58.6200 183.0000 1.0000
58.6400 188.0000 1.0000
58.6600 176.0000 1.0000
58.6800 152.0000 1.0000
58.7000 175.0000 1.0000
58.7200 178.0000 1.0000
58.7400 152.0000 1.0000
58.7600 138.0000 1.0000
58.7800 136.0000 1.0000
58.8000 127.0000 1.0000
58.8200 135.0000 1.0000
58.8400 138.0000 1.0000
58.8600 126.0000 1.0000
58.8800 124.0000 1.0000
58.9000 116.0000 1.0000
58.9200 117.0000 1.0000
58.9400 139.0000 1.0000
58.9600 131.0000 1.0000
58.9800 125.0000 1.0000
59.0000 128.0000 1.0000
59.0200 130.0000 1.0000
59.0400 130.0000 1.0000
59.0600 140.0000 1.0000
59.0800 146.0000 1.0000
59.1000 124.0000 1.0000
59.1200 148.0000 1.0000
59.1400 144.0000 1.0000
59.1600 138.0000 1.0000
59.1800 147.0000 1.0000
59.2000 133.0000 1.0000
59.2200 128.0000 1.0000
59.2400 135.0000 1.0000
59.2600 153.0000 1.0000
59.2800 145.0000 1.0000
59.3000 168.0000 1.0000
59.3200 159.0000 1.0000
59.3400 179.0000 1.0000
59.3600 191.0000 1.0000
59.3800 192.0000 1.0000
59.4000 181.0000 1.0000
59.4200 205.0000 1.0000
59.4400 190.0000 1.0000
59.4600 213.0000 1.0000
59.4800 214.0000 1.0000
59.5000 220.0000 1.0000
59.5200 259.0000 1.0000
59.5400 241.0000 1.0000
59.5600 258.0000 1.0000
59.5800 243.0000 1.0000
59.6000 279.0000 1.0000
59.6200 303.0000 1.0000
59.6400 300.0000 1.0000
59.6600 366.0000 1.0000
59.6800 415.0000 1.0000
59.7000 507.0000 1.0000
59.7200 565.0000 1.0000
59.7400 663.0000 1.0000
59.7600 734.0000 1.0000
59.7800 842.0000 1.0000
59.8000 923.0000 1.0000
59.8200 842.0000 1.0000
59.8400 796.0000 1.0000
59.8600 751.0000 1.0000
59.8800 645.0000 1.0000
59.9000 608.0000 1.0000
59.9200 583.0000 1.0000
59.9400 551.0000 1.0000
59.9600 537.0000 1.0000
59.9800 560.0000 1.0000
60.0000 509.0000 1.0000
60.0200 462.0000 1.0000
60.0400 391.0000 1.0000
60.0600 331.0000 1.0000
60.0800 296.0000 1.0000
60.1000 253.0000 1.0000
60.1200 237.0000 1.0000
60.1400 247.0000 1.0000
60.1600 220.0000 1.0000
60.1800 214.0000 1.0000
60.2000 213.0000 1.0000
60.2200 180.0000 1.0000
60.2400 211.0000 1.0000
60.2600 197.0000 1.0000
60.2800 186.0000 1.0000
60.3000 173.0000 1.0000
60.3200 168.0000 1.0000
60.3400 155.0000 1.0000
60.3600 162.0000 1.0000
60.3800 159.0000 1.0000
60.4000 157.0000 1.0000
60.4200 157.0000 1.0000
60.4400 167.0000 1.0000
60.4600 162.0000 1.0000
60.4800 164.0000 1.0000
60.5000 154.0000 1.0000
60.5200 146.0000 1.0000
60.5400 149.0000 1.0000
60.5600 164.0000 1.0000
60.5800 144.0000 1.0000
60.6000 173.0000 1.0000
60.6200 154.0000 1.0000
60.6400 144.0000 1.0000
60.6600 138.0000 1.0000
60.6800 152.0000 1.0000
60.7000 182.0000 1.0000
60.7200 125.0000 1.0000
60.7400 172.0000 1.0000
60.7600 167.0000 1.0000
60.7800 156.0000 1.0000
60.8000 180.0000 1.0000
60.8200 148.0000 1.0000
60.8400 149.0000 1.0000
60.8600 155.0000 1.0000
60.8800 178.0000 1.0000
60.9000 202.0000 1.0000
60.9200 170.0000 1.0000
60.9400 219.0000 1.0000
60.9600 196.0000 1.0000
60.9800 200.0000 1.0000
61.0000 206.0000 1.0000
61.0200 241.0000 1.0000
61.0400 252.0000 1.0000
61.0600 231.0000 1.0000
61.0800 230.0000 1.0000
61.1000 231.0000 1.0000
61.1200 266.0000 1.0000
61.1400 311.0000 1.0000
61.1600 256.0000 1.0000
61.1800 286.0000 1.0000
61.2000 275.0000 1.0000
61.2200 243.0000 1.0000
61.2400 237.0000 1.0000
61.2600 227.0000 1.0000
61.2800 217.0000 1.0000
61.3000 221.0000 1.0000
61.3200 232.0000 1.0000
61.3400 205.0000 1.0000
61.3600 187.0000 1.0000
61.3800 195.0000 1.0000
61.4000 171.0000 1.0000
61.4200 165.0000 1.0000
61.4400 171.0000 1.0000
61.4600 171.0000 1.0000
61.4800 169.0000 1.0000
61.5000 167.0000 1.0000
61.5200 172.0000 1.0000
61.5400 158.0000 1.0000
61.5600 173.0000 1.0000
61.5800 180.0000 1.0000
61.6000 178.0000 1.0000
61.6200 184.0000 1.0000
61.6400 183.0000 1.0000
61.6600 170.0000 1.0000
61.6800 195.0000 1.0000
61.7000 174.0000 1.0000
61.7200 148.0000 1.0000
61.7400 172.0000 1.0000
61.7600 179.0000 1.0000
61.7800 179.0000 1.0000
61.8000 163.0000 1.0000
61.8200 163.0000 1.0000
61.8400 171.0000 1.0000
61.8600 177.0000 1.0000
61.8800 169.0000 1.0000
61.9000 169.0000 1.0000
61.9200 167.0000 1.0000
61.9400 175.0000 1.0000
61.9600 138.0000 1.0000
61.9800 146.0000 1.0000
62.0000 166.0000 1.0000
62.0200 149.0000 1.0000
62.0400 166.0000 1.0000
62.0600 157.0000 1.0000
62.0800 154.0000 1.0000
62.1000 144.0000 1.0000
62.1200 151.0000 1.0000
62.1400 139.0000 1.0000
62.1600 144.0000 1.0000
62.1800 141.0000 1.0000
62.2000 144.0000 1.0000
62.2200 142.0000 1.0000
62.2400 136.0000 1.0000
62.2600 149.0000 1.0000
62.2800 139.0000 1.0000
62.3000 145.0000 1.0000
62.3200 141.0000 1.0000
62.3400 134.0000 1.0000
62.3600 128.0000 1.0000
62.3800 121.0000 1.0000
62.4000 113.0000 1.0000
62.4200 124.0000 1.0000
62.4400 136.0000 1.0000
62.4600 138.0000 1.0000
62.4800 133.0000 1.0000
62.5000 139.0000 1.0000
62.5200 124.0000 1.0000
62.5400 136.0000 1.0000
62.5600 129.0000 1.0000
62.5800 120.0000 1.0000
62.6000 131.0000 1.0000
62.6200 138.0000 1.0000
62.6400 145.0000 1.0000
62.6600 142.0000 1.0000
62.6800 140.0000 1.0000
62.7000 171.0000 1.0000
62.7200 190.0000 1.0000
62.7400 181.0000 1.0000
62.7600 169.0000 1.0000
62.7800 133.0000 1.0000
62.8000 154.0000 1.0000
62.8200 155.0000 1.0000
62.8400 159.0000 1.0000
62.8600 162.0000 1.0000
62.8800 148.0000 1.0000
62.9000 152.0000 1.0000
62.9200 178.0000 1.0000
62.9400 135.0000 1.0000
62.9600 154.0000 1.0000
62.9800 176.0000 1.0000
63.0000 175.0000 1.0000
63.0200 160.0000 1.0000
63.0400 176.0000 1.0000
63.0600 164.0000 1.0000
63.0800 165.0000 1.0000
63.1000 158.0000 1.0000
63.1200 166.0000 1.0000
63.1400 168.0000 1.0000
63.1600 163.0000 1.0000
63.1800 184.0000 1.0000
63.2000 171.0000 1.0000
63.2200 167.0000 1.0000
63.2400 167.0000 1.0000
63.2600 170.0000 1.0000
63.2800 174.0000 1.0000
63.3000 171.0000 1.0000
63.3200 176.0000 1.0000
63.3400 166.0000 1.0000
63.3600 182.0000 1.0000
63.3800 171.0000 1.0000
63.4000 192.0000 1.0000
63.4200 182.0000 1.0000
63.4400 186.0000 1.0000
63.4600 190.0000 1.0000
63.4800 192.0000 1.0000
63.5000 216.0000 1.0000
63.5200 199.0000 1.0000
63.5400 218.0000 1.0000
63.5600 233.0000 1.0000
63.5800 222.0000 1.0000
63.6000 245.0000 1.0000
63.6200 240.0000 1.0000
63.6400 247.0000 1.0000
63.6600 236.0000 1.0000
63.6800 242.0000 1.0000
63.7000 257.0000 1.0000
63.7200 275.0000 1.0000
63.7400 236.0000 1.0000
63.7600 244.0000 1.0000
63.7800 273.0000 1.0000
63.8000 271.0000 1.0000
63.8200 287.0000 1.0000
63.8400 310.0000 1.0000
63.8600 304.0000 1.0000
63.8800 321.0000 1.0000
63.9000 285.0000 1.0000
63.9200 296.0000 1.0000
63.9400 289.0000 1.0000
63.9600 253.0000 1.0000
63.9800 250.0000 1.0000
64.0000 230.0000 1.0000
64.0200 218.0000 1.0000
64.0400 218.0000 1.0000
64.0600 245.0000 1.0000
64.0800 207.0000 1.0000
64.1000 203.0000 1.0000
64.1200 195.0000 1.0000
64.1400 164.0000 1.0000
64.1600 178.0000 1.0000
64.1800 147.0000 1.0000
64.2000 142.0000 1.0000
64.2200 150.0000 1.0000
64.2400 141.0000 1.0000
64.2600 140.0000 1.0000
64.2800 120.0000 1.0000
64.3000 130.0000 1.0000
64.3200 138.0000 1.0000
64.3400 143.0000 1.0000
64.3600 119.0000 1.0000
64.3800 128.0000 1.0000
64.4000 133.0000 1.0000
64.4200 138.0000 1.0000
64.4400 140.0000 1.0000
64.4600 135.0000 1.0000
64.4800 131.0000 1.0000
64.5000 156.0000 1.0000
64.5200 142.0000 1.0000
64.5400 130.0000 1.0000
64.5600 126.0000 1.0000
64.5800 127.0000 1.0000
64.6000 124.0000 1.0000
64.6200 127.0000 1.0000
64.6400 132.0000 1.0000
64.6600 139.0000 1.0000
64.6800 137.0000 1.0000
64.7000 137.0000 1.0000
64.7200 131.0000 1.0000
64.7400 125.0000 1.0000
64.7600 146.0000 1.0000
64.7800 123.0000 1.0000
64.8000 140.0000 1.0000
64.8200 156.0000 1.0000
64.8400 169.0000 1.0000
64.8600 169.0000 1.0000
64.8800 147.0000 1.0000
64.9000 162.0000 1.0000
64.9200 161.0000 1.0000
64.9400 184.0000 1.0000
64.9600 194.0000 1.0000
64.9800 194.0000 1.0000
65.0000 194.0000 1.0000
*RAS_INT_END
*RAS_DATA_END
