*RAS_DATA_START
*RAS_HEADER_START
*CORR_POS_DB_NAME "Angle Correction ASC6 SC WITH Mono_04082019"
*CORR_POS_GONIO_RADIUS ""
*CORR_POS_NODE_INDEX01 ""
*CORR_POS_NODE_INDEX02 ""
*CORR_POS_NODE_INDEX03 ""
*CORR_POS_NODE_INDEX04 ""
*CORR_POS_NODE_INDEX05 ""
*CORR_POS_NODE_INDEX06 ""
*CORR_POS_NODE_INDEX07 ""
*CORR_POS_NODE_INDEX08 ""
*CORR_POS_NODE_INDEX09 ""
*CORR_POS_NODE_INDEX10 ""
*CORR_POS_NODE_INDEX11 ""
*CORR_POS_NODE_LABEL01 "Si(111)"
*CORR_POS_NODE_LABEL02 "Si(220)"
*CORR_POS_NODE_LABEL03 "Si(311)"
*CORR_POS_NODE_LABEL04 "Si(400)"
*CORR_POS_NODE_LABEL05 "Si(331)"
*CORR_POS_NODE_LABEL06 "Si(422)"
*CORR_POS_NODE_LABEL07 "Si(511)"
*CORR_POS_NODE_LABEL08 "Si(440)"
*CORR_POS_NODE_LABEL09 "Si(531)"
*CORR_POS_NODE_LABEL10 "Si(620)"
*CORR_POS_NODE_LABEL11 "Si(533)"
*CORR_POS_NODE_POS_CALC01 "28.377"
*CORR_POS_NODE_POS_CALC02 "47.2506"
*CORR_POS_NODE_POS_CALC03 "56.0725"
*CORR_POS_NODE_POS_CALC04 "69.0822"
*CORR_POS_NODE_POS_CALC05 "76.3294"
*CORR_POS_NODE_POS_CALC06 "87.9853"
*CORR_POS_NODE_POS_CALC07 "94.9091"
*CORR_POS_NODE_POS_CALC08 "106.668"
*CORR_POS_NODE_POS_CALC09 "114.054"
*CORR_POS_NODE_POS_CALC10 "127.511"
*CORR_POS_NODE_POS_CALC11 "136.864"
*CORR_POS_NODE_POS_MEAS01 "28.5058"
*CORR_POS_NODE_POS_MEAS02 "47.345"
*CORR_POS_NODE_POS_MEAS03 "56.1421"
*CORR_POS_NODE_POS_MEAS04 "69.1304"
*CORR_POS_NODE_POS_MEAS05 "76.366"
*CORR_POS_NODE_POS_MEAS06 "88.0213"
*CORR_POS_NODE_POS_MEAS07 "94.9406"
*CORR_POS_NODE_POS_MEAS08 "106.689"
*CORR_POS_NODE_POS_MEAS09 "114.065"
*CORR_POS_NODE_POS_MEAS10 "127.518"
*CORR_POS_NODE_POS_MEAS11 "136.869"
*CORR_POS_OPT_ATTR "集中法"
*CORR_POS_PARAM_MU ""
*CORR_POS_PARAM_PL ""
*CORR_POS_SEMODEL_TYPE "0"
*CORR_POS_STANDARD_TYPE ""
*CORR_POS_VALUE_ANALYZER "None"
*CORR_POS_VALUE_CMONO "None"
*CORR_POS_VALUE_IMONO "None"
*CORR_POS_VALUE_IS "1.250deg"
*CORR_POS_VALUE_ISL "10.0mm"
*CORR_POS_VALUE_ISOLLER "5.0deg"
*CORR_POS_VALUE_RS1 "1.250deg"
*CORR_POS_VALUE_RS2 "0.3mm"
*CORR_POS_VALUE_RSOLLER "5.0deg"
*CORR_POS_XG_FOCUS_L ""
*CORR_POS_XG_WAVE_TYPE ""
*CORR_POS_XG_WAVE_VALUE ""
*DISP_FMT_X "%.2f"
*DISP_FMT_Y "%.0f"
*DISP_FULLSCALE "6658.2000000000"
*DISP_LINE_COLOR "255.0000000000"
*DISP_LINE_STYLE "0.0000000000"
*DISP_LINE_WIDTH "0.2500000000"
*DISP_NOTE "Collected Data-17"
*DISP_OFFSET_Y "0.0000000000"
*DISP_PEAKSEARCH_UNIT_Y "CPS"
*DISP_RANGE_BOTTOM "0.0000000000"
*DISP_RANGE_LEFT "5.0000000000"
*DISP_RANGE_LOGCUTOFF "0.0100000000"
*DISP_RANGE_RIGHT "65.0000000000"
*DISP_RANGE_TOP "6658.2000000000"
*DISP_SCALE_MODE_Y "0.0000000000"
*DISP_TAB_NAME "Theta/2-Theta"
*DISP_TITLE_Y "Intensity"
*DISP_UNIT_Y "CPS"
*DISP_WINDOW_NAME "MSG_MACROENGINE"
*FILE_COMMENT " "
*FILE_MD5 ""
*FILE_MEMO " "
*FILE_OPERATOR "Administrator"
*FILE_PART_ID "MEAS_PBEA_00223"
*FILE_SAMPLE " "
*FILE_TYPE "RAS_RAW"
*FILE_USERGROUP "System Manager"
*FILE_VERSION "1.0000000000"
*HW_ATTACHMENT_ID "ATT1031"
*HW_ATTACHMENT_NAME "6サンプルチェンジャ|ASC-6"
*HW_COUNTER_ID-0 "CUT0021"
*HW_COUNTER_ID-1 "CUT0020"
*HW_COUNTER_ID-2 "CUT0020"
*HW_COUNTER_ID-3 "CMC0021"
*HW_COUNTER_NAME-0 "SC-70|SC-70"
*HW_COUNTER_NAME-1 "None|None"
*HW_COUNTER_NAME-2 "None|None"
*HW_COUNTER_NAME-3 "検出器モノクロメータ|Detector monochromator"
*HW_COUNTER_SELECT_NAME "SC-70|SC-70"
*HW_ECP_HV "671.5000000000"
*HW_ECP_HV_UNIT "V"
*HW_GONIOMETER_ID "GON0070"
*HW_GONIOMETER_NAME "MiniFlex 300/600|MiniFlex 300/600"
*HW_GONIOMETER_RADIUS-0 "79.0"
*HW_GONIOMETER_RADIUS-1 "91.5"
*HW_GONIOMETER_RADIUS-2 "150.0"
*HW_GONIOMETER_RADIUS-3 "0"
*HW_GONIOMETER_RADIUS-4 "103.4"
*HW_GONIOMETER_RADIUS-5 "150.0"
*HW_GONIOMETER_RADIUS-6 "46.6"
*HW_GONIOMETER_RADIUS-7 "160.0"
*HW_I_OPT_ID-0 "ISL0021"
*HW_I_OPT_ID-1 "ISO0021"
*HW_I_OPT_NAME-0 "発散スリット|Divergence slit"
*HW_I_OPT_NAME-1 "入射平行スリット|Incident parallel slit"
*HW_R_ATTENUATER_AUTOMODE "0"
*HW_R_OPT_ID-0 "RSS0021"
*HW_R_OPT_ID-1 "RSO0021"
*HW_R_OPT_ID-2 "RRS0021"
*HW_R_OPT_NAME-0 "散乱スリット|Scattering slit"
*HW_R_OPT_NAME-1 "受光平行スリット|Receiving soller slit"
*HW_R_OPT_NAME-2 "受光スリット|Receiving slit"
*HW_SAMPLE_HOLDER_ID "SMP0000"
*HW_SAMPLE_HOLDER_NAME "無し|None"
*HW_XG_CURRENT_MAX "15"
*HW_XG_CURRENT_MIN "2"
*HW_XG_CURRENT_RESOLUTION "1"
*HW_XG_CURRENT_UNIT "mA"
*HW_XG_FOCUS "1mm x 10mm"
*HW_XG_FOCUS_TYPE "Normal"
*HW_XG_ID "1060"
*HW_XG_NAME "300W/600W 封入管-B|300W/600W Sealed tube-B"
*HW_XG_TARGET_ATOMIC_NUMBER "29.0000000000"
*HW_XG_TARGET_NAME "Cu"
*HW_XG_TYPE "Hermetic"
*HW_XG_VOLTAGE_MAX "40"
*HW_XG_VOLTAGE_MIN "20"
*HW_XG_VOLTAGE_RESOLUTION "1"
*HW_XG_VOLTAGE_UNIT "kV"
*HW_XG_WATT_MAX "0.600"
*HW_XG_WATT_UNIT "kW"
*HW_XG_WAVE_LENGTH_ALPHA1 "1.540593"
*HW_XG_WAVE_LENGTH_ALPHA2 "1.544414"
*HW_XG_WAVE_LENGTH_BETA "1.392250"
*MEAS_COND_AXIS_NAME-0 "Theta/2-Theta"
*MEAS_COND_AXIS_NAME-1 "Spin"
*MEAS_COND_AXIS_NAME-2 "Change"
*MEAS_COND_AXIS_NAME-3 "Soller(inc.)"
*MEAS_COND_AXIS_NAME-4 "IHS"
*MEAS_COND_AXIS_NAME-5 "DS"
*MEAS_COND_AXIS_NAME-6 "SS"
*MEAS_COND_AXIS_NAME-7 "Soller(rec.)"
*MEAS_COND_AXIS_NAME-8 "RS"
*MEAS_COND_AXIS_NAME-9 "Filter"
*MEAS_COND_AXIS_NAME-10 "Monochromator"
*MEAS_COND_AXIS_NAME-11 "HV"
*MEAS_COND_AXIS_NAME-12 "PHA"
*MEAS_COND_AXIS_NAME_INTERNAL-0 "TwoThetaTheta"
*MEAS_COND_AXIS_NAME_INTERNAL-1 "Spin"
*MEAS_COND_AXIS_NAME_INTERNAL-2 "Change"
*MEAS_COND_AXIS_NAME_INTERNAL-3 "IncidentSollerSlit"
*MEAS_COND_AXIS_NAME_INTERNAL-4 "IncidentAxdSlit"
*MEAS_COND_AXIS_NAME_INTERNAL-5 "IncidentSlitBox"
*MEAS_COND_AXIS_NAME_INTERNAL-6 "ReceivingSlitBox1"
*MEAS_COND_AXIS_NAME_INTERNAL-7 "ReceivingSollerSlit"
*MEAS_COND_AXIS_NAME_INTERNAL-8 "ReceivingSlitBox2"
*MEAS_COND_AXIS_NAME_INTERNAL-9 "Filter"
*MEAS_COND_AXIS_NAME_INTERNAL-10 "CounterMonochromator"
*MEAS_COND_AXIS_NAME_INTERNAL-11 "HV"
*MEAS_COND_AXIS_NAME_INTERNAL-12 "PHA"
*MEAS_COND_AXIS_NAME_MAGICNO-0 "268632064.0000000000"
*MEAS_COND_AXIS_NAME_MAGICNO-1 "16842752.0000000000"
*MEAS_COND_AXIS_NAME_MAGICNO-2 "16842752.0000000000"
*MEAS_COND_AXIS_NAME_MAGICNO-3 "20971521.0000000000"
*MEAS_COND_AXIS_NAME_MAGICNO-4 "22020097.0000000000"
*MEAS_COND_AXIS_NAME_MAGICNO-5 "22020097.0000000000"
*MEAS_COND_AXIS_NAME_MAGICNO-6 "23068673.0000000000"
*MEAS_COND_AXIS_NAME_MAGICNO-7 "20971521.0000000000"
*MEAS_COND_AXIS_NAME_MAGICNO-8 "23068673.0000000000"
*MEAS_COND_AXIS_NAME_MAGICNO-9 "20971521.0000000000"
*MEAS_COND_AXIS_NAME_MAGICNO-10 "20971521.0000000000"
*MEAS_COND_AXIS_NAME_MAGICNO-11 "0.0000000000"
*MEAS_COND_AXIS_NAME_MAGICNO-12 "0.0000000000"
*MEAS_COND_AXIS_OFFSET-0 "0.0000000000"
*MEAS_COND_AXIS_OFFSET-1 "-"
*MEAS_COND_AXIS_OFFSET-2 "-"
*MEAS_COND_AXIS_OFFSET-3 "-"
*MEAS_COND_AXIS_OFFSET-4 "-"
*MEAS_COND_AXIS_OFFSET-5 "-"
*MEAS_COND_AXIS_OFFSET-6 "-"
*MEAS_COND_AXIS_OFFSET-7 "-"
*MEAS_COND_AXIS_OFFSET-8 "-"
*MEAS_COND_AXIS_OFFSET-9 "-"
*MEAS_COND_AXIS_OFFSET-10 "-"
*MEAS_COND_AXIS_OFFSET-11 "-"
*MEAS_COND_AXIS_OFFSET-12 "-"
*MEAS_COND_AXIS_POSITION-0 "65.0000000000"
*MEAS_COND_AXIS_POSITION-1 "0.0000000000"
*MEAS_COND_AXIS_POSITION-2 "5.0000000000"
*MEAS_COND_AXIS_POSITION-3 "5.0deg"
*MEAS_COND_AXIS_POSITION-4 "10.0mm"
*MEAS_COND_AXIS_POSITION-5 "1.250deg"
*MEAS_COND_AXIS_POSITION-6 "1.250deg"
*MEAS_COND_AXIS_POSITION-7 "5.0deg"
*MEAS_COND_AXIS_POSITION-8 "0.3mm"
*MEAS_COND_AXIS_POSITION-9 "None"
*MEAS_COND_AXIS_POSITION-10 "Bent"
*MEAS_COND_AXIS_POSITION-11 "671.5000000000"
*MEAS_COND_AXIS_POSITION-12 "551.2500000000"
*MEAS_COND_AXIS_UNIT-0 "deg"
*MEAS_COND_AXIS_UNIT-1 ""
*MEAS_COND_AXIS_UNIT-2 ""
*MEAS_COND_AXIS_UNIT-3 ""
*MEAS_COND_AXIS_UNIT-4 ""
*MEAS_COND_AXIS_UNIT-5 ""
*MEAS_COND_AXIS_UNIT-6 ""
*MEAS_COND_AXIS_UNIT-7 ""
*MEAS_COND_AXIS_UNIT-8 ""
*MEAS_COND_AXIS_UNIT-9 ""
*MEAS_COND_AXIS_UNIT-10 ""
*MEAS_COND_AXIS_UNIT-11 "V"
*MEAS_COND_AXIS_UNIT-12 "mV"
*MEAS_COND_CORRECTION_SLIT_COUNTERMONO "None"
*MEAS_COND_CORRECTION_SLIT_DS "1.250deg"
*MEAS_COND_CORRECTION_SLIT_FILTER "None"
*MEAS_COND_CORRECTION_SLIT_IHS "10.0mm"
*MEAS_COND_CORRECTION_SLIT_RS "0.3mm"
*MEAS_COND_CORRECTION_SLIT_SOLLER_INC "5.0deg"
*MEAS_COND_CORRECTION_SLIT_SOLLER_REC "5.0deg"
*MEAS_COND_CORRECTION_SLIT_SS "1.250deg"
*MEAS_COND_COUNTER_CNTLOSS_CORR "0.0000000000"
*MEAS_COND_COUNTER_PHABASE "551.2500000000"
*MEAS_COND_COUNTER_PHAWINDOW "926.2500000000"
*MEAS_COND_COUNTER_PHA_UNIT "mV"
*MEAS_COND_COUNTER_TAUDIFF "0.2500000000"
*MEAS_COND_COUNTER_TAUINT "0.7500000000"
*MEAS_COND_IRRADIATION_MODE "OFF"
*MEAS_COND_IRRADIATION_WIDTH ""
*MEAS_COND_OPT_ATTR " "
*MEAS_COND_OPT_NAME ""
*MEAS_COND_UNSYMMETRIC_MODE "OFF"
*MEAS_COND_XG_CURRENT "15.0000000000"
*MEAS_COND_XG_VOLTAGE "40.0000000000"
*MEAS_COND_XG_WAVE_TYPE "Ka"
*MEAS_DATA_COUNT "3001.0000000000"
*MEAS_SCAN_AXIS_X "Theta/2-Theta"
*MEAS_SCAN_AXIS_X_INTERNAL "TwoThetaTheta"
*MEAS_SCAN_END_TIME "07/29/25 00:05:08"
*MEAS_SCAN_MODE "STEP"
*MEAS_SCAN_MONITOR "0"
*MEAS_SCAN_RESOLUTION_X "0.0025"
*MEAS_SCAN_SPEED "2.00"
*MEAS_SCAN_SPEED_UNIT "sec."
*MEAS_SCAN_SPEED_USER "2.00"
*MEAS_SCAN_START "5.0000000000"
*MEAS_SCAN_START_TIME "07/28/25 22:19:52"
*MEAS_SCAN_STEP "0.0200000000"
*MEAS_SCAN_STOP "65.0000000000"
*MEAS_SCAN_UNIT_X "deg"
*MEAS_SCAN_UNIT_Y "counts"
*SLIT_SYSTEM "0"
*RAS_HEADER_END
*RAS_INT_START
5.0000 934.0000 1.0000
5.0200 934.0000 1.0000
5.0400 830.0000 1.0000
5.0600 871.0000 1.0000
5.0800 963.0000 1.0000
5.1000 923.0000 1.0000
5.1200 912.0000 1.0000
5.1400 941.0000 1.0000
5.1600 908.0000 1.0000
5.1800 973.0000 1.0000
5.2000 991.0000 1.0000
5.2200 880.0000 1.0000
5.2400 866.0000 1.0000
5.2600 863.0000 1.0000
5.2800 923.0000 1.0000
5.3000 955.0000 1.0000
5.3200 934.0000 1.0000
5.3400 969.0000 1.0000
5.3600 892.0000 1.0000
5.3800 1024.0000 1.0000
5.4000 875.0000 1.0000
5.4200 923.0000 1.0000
5.4400 944.0000 1.0000
5.4600 951.0000 1.0000
5.4800 992.0000 1.0000
5.5000 974.0000 1.0000
5.5200 920.0000 1.0000
5.5400 924.0000 1.0000
5.5600 846.0000 1.0000
5.5800 884.0000 1.0000
5.6000 780.0000 1.0000
5.6200 821.0000 1.0000
5.6400 831.0000 1.0000
5.6600 772.0000 1.0000
5.6800 796.0000 1.0000
5.7000 819.0000 1.0000
5.7200 793.0000 1.0000
5.7400 810.0000 1.0000
5.7600 918.0000 1.0000
5.7800 853.0000 1.0000
5.8000 799.0000 1.0000
5.8200 882.0000 1.0000
5.8400 851.0000 1.0000
5.8600 797.0000 1.0000
5.8800 810.0000 1.0000
5.9000 836.0000 1.0000
5.9200 763.0000 1.0000
5.9400 777.0000 1.0000
5.9600 821.0000 1.0000
5.9800 862.0000 1.0000
6.0000 837.0000 1.0000
6.0200 853.0000 1.0000
6.0400 822.0000 1.0000
6.0600 817.0000 1.0000
6.0800 832.0000 1.0000
6.1000 781.0000 1.0000
6.1200 735.0000 1.0000
6.1400 715.0000 1.0000
6.1600 676.0000 1.0000
6.1800 689.0000 1.0000
6.2000 714.0000 1.0000
6.2200 715.0000 1.0000
6.2400 715.0000 1.0000
6.2600 674.0000 1.0000
6.2800 613.0000 1.0000
6.3000 649.0000 1.0000
6.3200 632.0000 1.0000
6.3400 654.0000 1.0000
6.3600 625.0000 1.0000
6.3800 603.0000 1.0000
6.4000 619.0000 1.0000
6.4200 579.0000 1.0000
6.4400 606.0000 1.0000
6.4600 598.0000 1.0000
6.4800 631.0000 1.0000
6.5000 629.0000 1.0000
6.5200 596.0000 1.0000
6.5400 551.0000 1.0000
6.5600 552.0000 1.0000
6.5800 531.0000 1.0000
6.6000 560.0000 1.0000
6.6200 547.0000 1.0000
6.6400 495.0000 1.0000
6.6600 482.0000 1.0000
6.6800 526.0000 1.0000
6.7000 541.0000 1.0000
6.7200 553.0000 1.0000
6.7400 563.0000 1.0000
6.7600 550.0000 1.0000
6.7800 559.0000 1.0000
6.8000 593.0000 1.0000
6.8200 581.0000 1.0000
6.8400 519.0000 1.0000
6.8600 504.0000 1.0000
6.8800 486.0000 1.0000
6.9000 471.0000 1.0000
6.9200 507.0000 1.0000
6.9400 541.0000 1.0000
6.9600 539.0000 1.0000
6.9800 514.0000 1.0000
7.0000 475.0000 1.0000
7.0200 495.0000 1.0000
7.0400 536.0000 1.0000
7.0600 508.0000 1.0000
7.0800 485.0000 1.0000
7.1000 492.0000 1.0000
7.1200 488.0000 1.0000
7.1400 508.0000 1.0000
7.1600 535.0000 1.0000
7.1800 523.0000 1.0000
7.2000 477.0000 1.0000
7.2200 448.0000 1.0000
7.2400 454.0000 1.0000
7.2600 494.0000 1.0000
7.2800 480.0000 1.0000
7.3000 448.0000 1.0000
7.3200 454.0000 1.0000
7.3400 440.0000 1.0000
7.3600 487.0000 1.0000
7.3800 509.0000 1.0000
7.4000 447.0000 1.0000
7.4200 410.0000 1.0000
7.4400 442.0000 1.0000
7.4600 488.0000 1.0000
7.4800 470.0000 1.0000
7.5000 438.0000 1.0000
7.5200 445.0000 1.0000
7.5400 478.0000 1.0000
7.5600 494.0000 1.0000
7.5800 503.0000 1.0000
7.6000 516.0000 1.0000
7.6200 515.0000 1.0000
7.6400 487.0000 1.0000
7.6600 439.0000 1.0000
7.6800 440.0000 1.0000
7.7000 456.0000 1.0000
7.7200 460.0000 1.0000
7.7400 478.0000 1.0000
7.7600 395.0000 1.0000
7.7800 411.0000 1.0000
7.8000 462.0000 1.0000
7.8200 509.0000 1.0000
7.8400 505.0000 1.0000
7.8600 482.0000 1.0000
7.8800 486.0000 1.0000
7.9000 480.0000 1.0000
7.9200 481.0000 1.0000
7.9400 482.0000 1.0000
7.9600 500.0000 1.0000
7.9800 485.0000 1.0000
8.0000 462.0000 1.0000
8.0200 457.0000 1.0000
8.0400 472.0000 1.0000
8.0600 464.0000 1.0000
8.0800 412.0000 1.0000
8.1000 477.0000 1.0000
8.1200 502.0000 1.0000
8.1400 457.0000 1.0000
8.1600 460.0000 1.0000
8.1800 548.0000 1.0000
8.2000 515.0000 1.0000
8.2200 523.0000 1.0000
8.2400 476.0000 1.0000
8.2600 498.0000 1.0000
8.2800 569.0000 1.0000
8.3000 531.0000 1.0000
8.3200 499.0000 1.0000
8.3400 531.0000 1.0000
8.3600 581.0000 1.0000
8.3800 609.0000 1.0000
8.4000 618.0000 1.0000
8.4200 619.0000 1.0000
8.4400 664.0000 1.0000
8.4600 705.0000 1.0000
8.4800 749.0000 1.0000
8.5000 758.0000 1.0000
8.5200 864.0000 1.0000
8.5400 974.0000 1.0000
8.5600 1026.0000 1.0000
8.5800 1030.0000 1.0000
8.6000 1201.0000 1.0000
8.6200 1279.0000 1.0000
8.6400 1315.0000 1.0000
8.6600 1282.0000 1.0000
8.6800 1190.0000 1.0000
8.7000 1027.0000 1.0000
8.7200 891.0000 1.0000
8.7400 753.0000 1.0000
8.7600 642.0000 1.0000
8.7800 596.0000 1.0000
8.8000 578.0000 1.0000
8.8200 538.0000 1.0000
8.8400 556.0000 1.0000
8.8600 601.0000 1.0000
8.8800 612.0000 1.0000
8.9000 638.0000 1.0000
8.9200 641.0000 1.0000
8.9400 706.0000 1.0000
8.9600 784.0000 1.0000
8.9800 814.0000 1.0000
9.0000 918.0000 1.0000
9.0200 974.0000 1.0000
9.0400 1106.0000 1.0000
9.0600 1221.0000 1.0000
9.0800 1383.0000 1.0000
9.1000 1581.0000 1.0000
9.1200 1840.0000 1.0000
9.1400 1885.0000 1.0000
9.1600 1824.0000 1.0000
9.1800 1669.0000 1.0000
9.2000 1288.0000 1.0000
9.2200 989.0000 1.0000
9.2400 669.0000 1.0000
9.2600 464.0000 1.0000
9.2800 393.0000 1.0000
9.3000 330.0000 1.0000
9.3200 287.0000 1.0000
9.3400 286.0000 1.0000
9.3600 311.0000 1.0000
9.3800 323.0000 1.0000
9.4000 290.0000 1.0000
9.4200 276.0000 1.0000
9.4400 297.0000 1.0000
9.4600 304.0000 1.0000
9.4800 300.0000 1.0000
9.5000 262.0000 1.0000
9.5200 261.0000 1.0000
9.5400 290.0000 1.0000
9.5600 229.0000 1.0000
9.5800 267.0000 1.0000
9.6000 247.0000 1.0000
9.6200 288.0000 1.0000
9.6400 285.0000 1.0000
9.6600 265.0000 1.0000
9.6800 276.0000 1.0000
9.7000 247.0000 1.0000
9.7200 240.0000 1.0000
9.7400 261.0000 1.0000
9.7600 255.0000 1.0000
9.7800 258.0000 1.0000
9.8000 257.0000 1.0000
9.8200 278.0000 1.0000
9.8400 230.0000 1.0000
9.8600 254.0000 1.0000
9.8800 269.0000 1.0000
9.9000 232.0000 1.0000
9.9200 251.0000 1.0000
9.9400 209.0000 1.0000
9.9600 225.0000 1.0000
9.9800 236.0000 1.0000
10.0000 237.0000 1.0000
10.0200 183.0000 1.0000
10.0400 210.0000 1.0000
10.0600 214.0000 1.0000
10.0800 213.0000 1.0000
10.1000 228.0000 1.0000
10.1200 223.0000 1.0000
10.1400 245.0000 1.0000
10.1600 212.0000 1.0000
10.1800 230.0000 1.0000
10.2000 244.0000 1.0000
10.2200 229.0000 1.0000
10.2400 212.0000 1.0000
10.2600 204.0000 1.0000
10.2800 233.0000 1.0000
10.3000 240.0000 1.0000
10.3200 279.0000 1.0000
10.3400 231.0000 1.0000
10.3600 193.0000 1.0000
10.3800 232.0000 1.0000
10.4000 219.0000 1.0000
10.4200 231.0000 1.0000
10.4400 236.0000 1.0000
10.4600 234.0000 1.0000
10.4800 205.0000 1.0000
10.5000 233.0000 1.0000
10.5200 231.0000 1.0000
10.5400 209.0000 1.0000
10.5600 232.0000 1.0000
10.5800 247.0000 1.0000
10.6000 219.0000 1.0000
10.6200 229.0000 1.0000
10.6400 241.0000 1.0000
10.6600 217.0000 1.0000
10.6800 233.0000 1.0000
10.7000 199.0000 1.0000
10.7200 239.0000 1.0000
10.7400 273.0000 1.0000
10.7600 250.0000 1.0000
10.7800 234.0000 1.0000
10.8000 223.0000 1.0000
10.8200 256.0000 1.0000
10.8400 269.0000 1.0000
10.8600 265.0000 1.0000
10.8800 253.0000 1.0000
10.9000 232.0000 1.0000
10.9200 257.0000 1.0000
10.9400 250.0000 1.0000
10.9600 275.0000 1.0000
10.9800 266.0000 1.0000
11.0000 280.0000 1.0000
11.0200 278.0000 1.0000
11.0400 269.0000 1.0000
11.0600 269.0000 1.0000
11.0800 327.0000 1.0000
11.1000 330.0000 1.0000
11.1200 323.0000 1.0000
11.1400 324.0000 1.0000
11.1600 297.0000 1.0000
11.1800 279.0000 1.0000
11.2000 326.0000 1.0000
11.2200 322.0000 1.0000
11.2400 286.0000 1.0000
11.2600 287.0000 1.0000
11.2800 274.0000 1.0000
11.3000 275.0000 1.0000
11.3200 248.0000 1.0000
11.3400 246.0000 1.0000
11.3600 255.0000 1.0000
11.3800 250.0000 1.0000
11.4000 231.0000 1.0000
11.4200 260.0000 1.0000
11.4400 247.0000 1.0000
11.4600 225.0000 1.0000
11.4800 207.0000 1.0000
11.5000 228.0000 1.0000
11.5200 224.0000 1.0000
11.5400 219.0000 1.0000
11.5600 238.0000 1.0000
11.5800 229.0000 1.0000
11.6000 216.0000 1.0000
11.6200 233.0000 1.0000
11.6400 230.0000 1.0000
11.6600 229.0000 1.0000
11.6800 200.0000 1.0000
11.7000 208.0000 1.0000
11.7200 227.0000 1.0000
11.7400 228.0000 1.0000
11.7600 229.0000 1.0000
11.7800 221.0000 1.0000
11.8000 212.0000 1.0000
11.8200 242.0000 1.0000
11.8400 261.0000 1.0000
11.8600 266.0000 1.0000
11.8800 247.0000 1.0000
11.9000 226.0000 1.0000
11.9200 242.0000 1.0000
11.9400 246.0000 1.0000
11.9600 258.0000 1.0000
11.9800 248.0000 1.0000
12.0000 242.0000 1.0000
12.0200 274.0000 1.0000
12.0400 263.0000 1.0000
12.0600 327.0000 1.0000
12.0800 314.0000 1.0000
12.1000 309.0000 1.0000
12.1200 298.0000 1.0000
12.1400 373.0000 1.0000
12.1600 358.0000 1.0000
12.1800 379.0000 1.0000
12.2000 408.0000 1.0000
12.2200 438.0000 1.0000
12.2400 536.0000 1.0000
12.2600 520.0000 1.0000
12.2800 539.0000 1.0000
12.3000 544.0000 1.0000
12.3200 586.0000 1.0000
12.3400 544.0000 1.0000
12.3600 462.0000 1.0000
12.3800 422.0000 1.0000
12.4000 364.0000 1.0000
12.4200 318.0000 1.0000
12.4400 278.0000 1.0000
12.4600 264.0000 1.0000
12.4800 325.0000 1.0000
12.5000 274.0000 1.0000
12.5200 290.0000 1.0000
12.5400 283.0000 1.0000
12.5600 341.0000 1.0000
12.5800 306.0000 1.0000
12.6000 361.0000 1.0000
12.6200 382.0000 1.0000
12.6400 368.0000 1.0000
12.6600 454.0000 1.0000
12.6800 546.0000 1.0000
12.7000 599.0000 1.0000
12.7200 625.0000 1.0000
12.7400 662.0000 1.0000
12.7600 695.0000 1.0000
12.7800 634.0000 1.0000
12.8000 582.0000 1.0000
12.8200 502.0000 1.0000
12.8400 398.0000 1.0000
12.8600 330.0000 1.0000
12.8800 289.0000 1.0000
12.9000 248.0000 1.0000
12.9200 243.0000 1.0000
12.9400 218.0000 1.0000
12.9600 222.0000 1.0000
12.9800 208.0000 1.0000
13.0000 213.0000 1.0000
13.0200 200.0000 1.0000
13.0400 185.0000 1.0000
13.0600 173.0000 1.0000
13.0800 183.0000 1.0000
13.1000 189.0000 1.0000
13.1200 180.0000 1.0000
13.1400 182.0000 1.0000
13.1600 165.0000 1.0000
13.1800 162.0000 1.0000
13.2000 163.0000 1.0000
13.2200 173.0000 1.0000
13.2400 195.0000 1.0000
13.2600 198.0000 1.0000
13.2800 196.0000 1.0000
13.3000 217.0000 1.0000
13.3200 229.0000 1.0000
13.3400 213.0000 1.0000
13.3600 239.0000 1.0000
13.3800 262.0000 1.0000
13.4000 263.0000 1.0000
13.4200 262.0000 1.0000
13.4400 290.0000 1.0000
13.4600 303.0000 1.0000
13.4800 282.0000 1.0000
13.5000 306.0000 1.0000
13.5200 303.0000 1.0000
13.5400 314.0000 1.0000
13.5600 294.0000 1.0000
13.5800 305.0000 1.0000
13.6000 343.0000 1.0000
13.6200 378.0000 1.0000
13.6400 420.0000 1.0000
13.6600 473.0000 1.0000
13.6800 457.0000 1.0000
13.7000 406.0000 1.0000
13.7200 404.0000 1.0000
13.7400 364.0000 1.0000
13.7600 290.0000 1.0000
13.7800 251.0000 1.0000
13.8000 225.0000 1.0000
13.8200 202.0000 1.0000
13.8400 196.0000 1.0000
13.8600 196.0000 1.0000
13.8800 177.0000 1.0000
13.9000 158.0000 1.0000
13.9200 168.0000 1.0000
13.9400 165.0000 1.0000
13.9600 160.0000 1.0000
13.9800 163.0000 1.0000
14.0000 156.0000 1.0000
14.0200 170.0000 1.0000
14.0400 197.0000 1.0000
14.0600 194.0000 1.0000
14.0800 193.0000 1.0000
14.1000 210.0000 1.0000
14.1200 203.0000 1.0000
14.1400 209.0000 1.0000
14.1600 201.0000 1.0000
14.1800 219.0000 1.0000
14.2000 212.0000 1.0000
14.2200 188.0000 1.0000
14.2400 189.0000 1.0000
14.2600 184.0000 1.0000
14.2800 159.0000 1.0000
14.3000 156.0000 1.0000
14.3200 150.0000 1.0000
14.3400 142.0000 1.0000
14.3600 150.0000 1.0000
14.3800 159.0000 1.0000
14.4000 165.0000 1.0000
14.4200 162.0000 1.0000
14.4400 169.0000 1.0000
14.4600 155.0000 1.0000
14.4800 146.0000 1.0000
14.5000 154.0000 1.0000
14.5200 133.0000 1.0000
14.5400 143.0000 1.0000
14.5600 161.0000 1.0000
14.5800 164.0000 1.0000
14.6000 162.0000 1.0000
14.6200 168.0000 1.0000
14.6400 171.0000 1.0000
14.6600 167.0000 1.0000
14.6800 166.0000 1.0000
14.7000 169.0000 1.0000
14.7200 203.0000 1.0000
14.7400 213.0000 1.0000
14.7600 204.0000 1.0000
14.7800 212.0000 1.0000
14.8000 210.0000 1.0000
14.8200 191.0000 1.0000
14.8400 188.0000 1.0000
14.8600 184.0000 1.0000
14.8800 176.0000 1.0000
14.9000 173.0000 1.0000
14.9200 157.0000 1.0000
14.9400 148.0000 1.0000
14.9600 146.0000 1.0000
14.9800 156.0000 1.0000
15.0000 160.0000 1.0000
15.0200 143.0000 1.0000
15.0400 137.0000 1.0000
15.0600 150.0000 1.0000
15.0800 143.0000 1.0000
15.1000 128.0000 1.0000
15.1200 137.0000 1.0000
15.1400 131.0000 1.0000
15.1600 114.0000 1.0000
15.1800 107.0000 1.0000
15.2000 126.0000 1.0000
15.2200 137.0000 1.0000
15.2400 127.0000 1.0000
15.2600 126.0000 1.0000
15.2800 131.0000 1.0000
15.3000 128.0000 1.0000
15.3200 121.0000 1.0000
15.3400 128.0000 1.0000
15.3600 139.0000 1.0000
15.3800 145.0000 1.0000
15.4000 145.0000 1.0000
15.4200 142.0000 1.0000
15.4400 132.0000 1.0000
15.4600 121.0000 1.0000
15.4800 127.0000 1.0000
15.5000 140.0000 1.0000
15.5200 140.0000 1.0000
15.5400 152.0000 1.0000
15.5600 143.0000 1.0000
15.5800 126.0000 1.0000
15.6000 146.0000 1.0000
15.6200 157.0000 1.0000
15.6400 153.0000 1.0000
15.6600 167.0000 1.0000
15.6800 176.0000 1.0000
15.7000 163.0000 1.0000
15.7200 152.0000 1.0000
15.7400 137.0000 1.0000
15.7600 120.0000 1.0000
15.7800 129.0000 1.0000
15.8000 132.0000 1.0000
15.8200 129.0000 1.0000
15.8400 122.0000 1.0000
15.8600 125.0000 1.0000
15.8800 120.0000 1.0000
15.9000 125.0000 1.0000
15.9200 121.0000 1.0000
15.9400 102.0000 1.0000
15.9600 107.0000 1.0000
15.9800 113.0000 1.0000
16.0000 130.0000 1.0000
16.0200 125.0000 1.0000
16.0400 118.0000 1.0000
16.0600 119.0000 1.0000
16.0800 129.0000 1.0000
16.1000 131.0000 1.0000
16.1200 132.0000 1.0000
16.1400 126.0000 1.0000
16.1600 123.0000 1.0000
16.1800 120.0000 1.0000
16.2000 119.0000 1.0000
16.2200 130.0000 1.0000
16.2400 127.0000 1.0000
16.2600 135.0000 1.0000
16.2800 130.0000 1.0000
16.3000 144.0000 1.0000
16.3200 134.0000 1.0000
16.3400 126.0000 1.0000
16.3600 125.0000 1.0000
16.3800 117.0000 1.0000
16.4000 121.0000 1.0000
16.4200 124.0000 1.0000
16.4400 126.0000 1.0000
16.4600 123.0000 1.0000
16.4800 114.0000 1.0000
16.5000 118.0000 1.0000
16.5200 118.0000 1.0000
16.5400 118.0000 1.0000
16.5600 129.0000 1.0000
16.5800 128.0000 1.0000
16.6000 130.0000 1.0000
16.6200 131.0000 1.0000
16.6400 135.0000 1.0000
16.6600 145.0000 1.0000
16.6800 151.0000 1.0000
16.7000 147.0000 1.0000
16.7200 148.0000 1.0000
16.7400 137.0000 1.0000
16.7600 122.0000 1.0000
16.7800 130.0000 1.0000
16.8000 138.0000 1.0000
16.8200 128.0000 1.0000
16.8400 120.0000 1.0000
16.8600 128.0000 1.0000
16.8800 119.0000 1.0000
16.9000 136.0000 1.0000
16.9200 155.0000 1.0000
16.9400 128.0000 1.0000
16.9600 143.0000 1.0000
16.9800 130.0000 1.0000
17.0000 136.0000 1.0000
17.0200 146.0000 1.0000
17.0400 133.0000 1.0000
17.0600 130.0000 1.0000
17.0800 145.0000 1.0000
17.1000 148.0000 1.0000
17.1200 162.0000 1.0000
17.1400 162.0000 1.0000
17.1600 167.0000 1.0000
17.1800 173.0000 1.0000
17.2000 165.0000 1.0000
17.2200 180.0000 1.0000
17.2400 189.0000 1.0000
17.2600 197.0000 1.0000
17.2800 211.0000 1.0000
17.3000 231.0000 1.0000
17.3200 252.0000 1.0000
17.3400 275.0000 1.0000
17.3600 268.0000 1.0000
17.3800 262.0000 1.0000
17.4000 263.0000 1.0000
17.4200 253.0000 1.0000
17.4400 274.0000 1.0000
17.4600 266.0000 1.0000
17.4800 267.0000 1.0000
17.5000 263.0000 1.0000
17.5200 240.0000 1.0000
17.5400 241.0000 1.0000
17.5600 211.0000 1.0000
17.5800 215.0000 1.0000
17.6000 229.0000 1.0000
17.6200 196.0000 1.0000
17.6400 176.0000 1.0000
17.6600 182.0000 1.0000
17.6800 171.0000 1.0000
17.7000 158.0000 1.0000
17.7200 153.0000 1.0000
17.7400 133.0000 1.0000
17.7600 137.0000 1.0000
17.7800 138.0000 1.0000
17.8000 125.0000 1.0000
17.8200 133.0000 1.0000
17.8400 124.0000 1.0000
17.8600 105.0000 1.0000
17.8800 124.0000 1.0000
17.9000 112.0000 1.0000
17.9200 127.0000 1.0000
17.9400 125.0000 1.0000
17.9600 118.0000 1.0000
17.9800 113.0000 1.0000
18.0000 125.0000 1.0000
18.0200 114.0000 1.0000
18.0400 123.0000 1.0000
18.0600 99.0000 1.0000
18.0800 117.0000 1.0000
18.1000 117.0000 1.0000
18.1200 120.0000 1.0000
18.1400 118.0000 1.0000
18.1600 107.0000 1.0000
18.1800 107.0000 1.0000
18.2000 134.0000 1.0000
18.2200 140.0000 1.0000
18.2400 132.0000 1.0000
18.2600 110.0000 1.0000
18.2800 147.0000 1.0000
18.3000 148.0000 1.0000
18.3200 132.0000 1.0000
18.3400 150.0000 1.0000
18.3600 147.0000 1.0000
18.3800 127.0000 1.0000
18.4000 148.0000 1.0000
18.4200 184.0000 1.0000
18.4400 202.0000 1.0000
18.4600 199.0000 1.0000
18.4800 234.0000 1.0000
18.5000 225.0000 1.0000
18.5200 271.0000 1.0000
18.5400 282.0000 1.0000
18.5600 276.0000 1.0000
18.5800 306.0000 1.0000
18.6000 288.0000 1.0000
18.6200 270.0000 1.0000
18.6400 239.0000 1.0000
18.6600 239.0000 1.0000
18.6800 198.0000 1.0000
18.7000 183.0000 1.0000
18.7200 178.0000 1.0000
18.7400 169.0000 1.0000
18.7600 146.0000 1.0000
18.7800 170.0000 1.0000
18.8000 167.0000 1.0000
18.8200 170.0000 1.0000
18.8400 163.0000 1.0000
18.8600 147.0000 1.0000
18.8800 153.0000 1.0000
18.9000 164.0000 1.0000
18.9200 168.0000 1.0000
18.9400 162.0000 1.0000
18.9600 178.0000 1.0000
18.9800 181.0000 1.0000
19.0000 172.0000 1.0000
19.0200 188.0000 1.0000
19.0400 179.0000 1.0000
19.0600 186.0000 1.0000
19.0800 185.0000 1.0000
19.1000 178.0000 1.0000
19.1200 169.0000 1.0000
19.1400 176.0000 1.0000
19.1600 163.0000 1.0000
19.1800 140.0000 1.0000
19.2000 174.0000 1.0000
19.2200 160.0000 1.0000
19.2400 176.0000 1.0000
19.2600 148.0000 1.0000
19.2800 174.0000 1.0000
19.3000 164.0000 1.0000
19.3200 187.0000 1.0000
19.3400 185.0000 1.0000
19.3600 179.0000 1.0000
19.3800 185.0000 1.0000
19.4000 215.0000 1.0000
19.4200 229.0000 1.0000
19.4400 231.0000 1.0000
19.4600 241.0000 1.0000
19.4800 288.0000 1.0000
19.5000 280.0000 1.0000
19.5200 332.0000 1.0000
19.5400 295.0000 1.0000
19.5600 378.0000 1.0000
19.5800 379.0000 1.0000
19.6000 408.0000 1.0000
19.6200 393.0000 1.0000
19.6400 411.0000 1.0000
19.6600 402.0000 1.0000
19.6800 371.0000 1.0000
19.7000 324.0000 1.0000
19.7200 299.0000 1.0000
19.7400 264.0000 1.0000
19.7600 240.0000 1.0000
19.7800 245.0000 1.0000
19.8000 239.0000 1.0000
19.8200 201.0000 1.0000
19.8400 200.0000 1.0000
19.8600 190.0000 1.0000
19.8800 214.0000 1.0000
19.9000 194.0000 1.0000
19.9200 177.0000 1.0000
19.9400 180.0000 1.0000
19.9600 171.0000 1.0000
19.9800 176.0000 1.0000
20.0000 170.0000 1.0000
20.0200 188.0000 1.0000
20.0400 173.0000 1.0000
20.0600 178.0000 1.0000
20.0800 194.0000 1.0000
20.1000 189.0000 1.0000
20.1200 183.0000 1.0000
20.1400 197.0000 1.0000
20.1600 209.0000 1.0000
20.1800 200.0000 1.0000
20.2000 198.0000 1.0000
20.2200 212.0000 1.0000
20.2400 217.0000 1.0000
20.2600 218.0000 1.0000
20.2800 235.0000 1.0000
20.3000 245.0000 1.0000
20.3200 261.0000 1.0000
20.3400 278.0000 1.0000
20.3600 302.0000 1.0000
20.3800 315.0000 1.0000
20.4000 311.0000 1.0000
20.4200 372.0000 1.0000
20.4400 421.0000 1.0000
20.4600 421.0000 1.0000
20.4800 513.0000 1.0000
20.5000 532.0000 1.0000
20.5200 640.0000 1.0000
20.5400 706.0000 1.0000
20.5600 808.0000 1.0000
20.5800 1076.0000 1.0000
20.6000 1266.0000 1.0000
20.6200 1608.0000 1.0000
20.6400 1970.0000 1.0000
20.6600 2160.0000 1.0000
20.6800 2358.0000 1.0000
20.7000 2472.0000 1.0000
20.7200 2259.0000 1.0000
20.7400 2028.0000 1.0000
20.7600 1544.0000 1.0000
20.7800 1125.0000 1.0000
20.8000 928.0000 1.0000
20.8200 713.0000 1.0000
20.8400 632.0000 1.0000
20.8600 600.0000 1.0000
20.8800 567.0000 1.0000
20.9000 514.0000 1.0000
20.9200 490.0000 1.0000
20.9400 497.0000 1.0000
20.9600 493.0000 1.0000
20.9800 427.0000 1.0000
21.0000 430.0000 1.0000
21.0200 483.0000 1.0000
21.0400 506.0000 1.0000
21.0600 548.0000 1.0000
21.0800 526.0000 1.0000
21.1000 580.0000 1.0000
21.1200 654.0000 1.0000
21.1400 620.0000 1.0000
21.1600 663.0000 1.0000
21.1800 699.0000 1.0000
21.2000 613.0000 1.0000
21.2200 607.0000 1.0000
21.2400 511.0000 1.0000
21.2600 474.0000 1.0000
21.2800 388.0000 1.0000
21.3000 322.0000 1.0000
21.3200 310.0000 1.0000
21.3400 259.0000 1.0000
21.3600 229.0000 1.0000
21.3800 230.0000 1.0000
21.4000 220.0000 1.0000
21.4200 221.0000 1.0000
21.4400 212.0000 1.0000
21.4600 223.0000 1.0000
21.4800 214.0000 1.0000
21.5000 222.0000 1.0000
21.5200 245.0000 1.0000
21.5400 233.0000 1.0000
21.5600 233.0000 1.0000
21.5800 243.0000 1.0000
21.6000 265.0000 1.0000
21.6200 261.0000 1.0000
21.6400 243.0000 1.0000
21.6600 275.0000 1.0000
21.6800 325.0000 1.0000
21.7000 340.0000 1.0000
21.7200 385.0000 1.0000
21.7400 456.0000 1.0000
21.7600 519.0000 1.0000
21.7800 608.0000 1.0000
21.8000 727.0000 1.0000
21.8200 791.0000 1.0000
21.8400 849.0000 1.0000
21.8600 857.0000 1.0000
21.8800 842.0000 1.0000
21.9000 753.0000 1.0000
21.9200 691.0000 1.0000
21.9400 562.0000 1.0000
21.9600 433.0000 1.0000
21.9800 341.0000 1.0000
22.0000 299.0000 1.0000
22.0200 258.0000 1.0000
22.0400 244.0000 1.0000
22.0600 271.0000 1.0000
22.0800 262.0000 1.0000
22.1000 265.0000 1.0000
22.1200 249.0000 1.0000
22.1400 255.0000 1.0000
22.1600 275.0000 1.0000
22.1800 235.0000 1.0000
22.2000 247.0000 1.0000
22.2200 238.0000 1.0000
22.2400 201.0000 1.0000
22.2600 193.0000 1.0000
22.2800 196.0000 1.0000
22.3000 187.0000 1.0000
22.3200 205.0000 1.0000
22.3400 210.0000 1.0000
22.3600 180.0000 1.0000
22.3800 198.0000 1.0000
22.4000 196.0000 1.0000
22.4200 204.0000 1.0000
22.4400 185.0000 1.0000
22.4600 211.0000 1.0000
22.4800 222.0000 1.0000
22.5000 204.0000 1.0000
22.5200 181.0000 1.0000
22.5400 211.0000 1.0000
22.5600 182.0000 1.0000
22.5800 162.0000 1.0000
22.6000 209.0000 1.0000
22.6200 226.0000 1.0000
22.6400 213.0000 1.0000
22.6600 219.0000 1.0000
22.6800 261.0000 1.0000
22.7000 261.0000 1.0000
22.7200 269.0000 1.0000
22.7400 265.0000 1.0000
22.7600 277.0000 1.0000
22.7800 303.0000 1.0000
22.8000 315.0000 1.0000
22.8200 343.0000 1.0000
22.8400 369.0000 1.0000
22.8600 400.0000 1.0000
22.8800 377.0000 1.0000
22.9000 366.0000 1.0000
22.9200 374.0000 1.0000
22.9400 336.0000 1.0000
22.9600 352.0000 1.0000
22.9800 369.0000 1.0000
23.0000 356.0000 1.0000
23.0200 324.0000 1.0000
23.0400 375.0000 1.0000
23.0600 376.0000 1.0000
23.0800 336.0000 1.0000
23.1000 308.0000 1.0000
23.1200 320.0000 1.0000
23.1400 311.0000 1.0000
23.1600 304.0000 1.0000
23.1800 308.0000 1.0000
23.2000 307.0000 1.0000
23.2200 332.0000 1.0000
23.2400 347.0000 1.0000
23.2600 398.0000 1.0000
23.2800 416.0000 1.0000
23.3000 431.0000 1.0000
23.3200 545.0000 1.0000
23.3400 599.0000 1.0000
23.3600 629.0000 1.0000
23.3800 660.0000 1.0000
23.4000 657.0000 1.0000
23.4200 661.0000 1.0000
23.4400 594.0000 1.0000
23.4600 574.0000 1.0000
23.4800 511.0000 1.0000
23.5000 454.0000 1.0000
23.5200 386.0000 1.0000
23.5400 341.0000 1.0000
23.5600 303.0000 1.0000
23.5800 323.0000 1.0000
23.6000 289.0000 1.0000
23.6200 323.0000 1.0000
23.6400 331.0000 1.0000
23.6600 325.0000 1.0000
23.6800 336.0000 1.0000
23.7000 371.0000 1.0000
23.7200 385.0000 1.0000
23.7400 403.0000 1.0000
23.7600 436.0000 1.0000
23.7800 434.0000 1.0000
23.8000 426.0000 1.0000
23.8200 460.0000 1.0000
23.8400 440.0000 1.0000
23.8600 454.0000 1.0000
23.8800 455.0000 1.0000
23.9000 479.0000 1.0000
23.9200 476.0000 1.0000
23.9400 502.0000 1.0000
23.9600 519.0000 1.0000
23.9800 567.0000 1.0000
24.0000 614.0000 1.0000
24.0200 677.0000 1.0000
24.0400 734.0000 1.0000
24.0600 797.0000 1.0000
24.0800 827.0000 1.0000
24.1000 830.0000 1.0000
24.1200 872.0000 1.0000
24.1400 878.0000 1.0000
24.1600 854.0000 1.0000
24.1800 785.0000 1.0000
24.2000 725.0000 1.0000
24.2200 647.0000 1.0000
24.2400 578.0000 1.0000
24.2600 495.0000 1.0000
24.2800 476.0000 1.0000
24.3000 440.0000 1.0000
24.3200 398.0000 1.0000
24.3400 377.0000 1.0000
24.3600 336.0000 1.0000
24.3800 333.0000 1.0000
24.4000 311.0000 1.0000
24.4200 314.0000 1.0000
24.4400 293.0000 1.0000
24.4600 265.0000 1.0000
24.4800 269.0000 1.0000
24.5000 263.0000 1.0000
24.5200 245.0000 1.0000
24.5400 248.0000 1.0000
24.5600 263.0000 1.0000
24.5800 240.0000 1.0000
24.6000 239.0000 1.0000
24.6200 225.0000 1.0000
24.6400 259.0000 1.0000
24.6600 249.0000 1.0000
24.6800 245.0000 1.0000
24.7000 244.0000 1.0000
24.7200 265.0000 1.0000
24.7400 257.0000 1.0000
24.7600 254.0000 1.0000
24.7800 246.0000 1.0000
24.8000 266.0000 1.0000
24.8200 273.0000 1.0000
24.8400 292.0000 1.0000
24.8600 340.0000 1.0000
24.8800 347.0000 1.0000
24.9000 373.0000 1.0000
24.9200 426.0000 1.0000
24.9400 417.0000 1.0000
24.9600 442.0000 1.0000
24.9800 480.0000 1.0000
25.0000 497.0000 1.0000
25.0200 541.0000 1.0000
25.0400 575.0000 1.0000
25.0600 597.0000 1.0000
25.0800 616.0000 1.0000
25.1000 608.0000 1.0000
25.1200 631.0000 1.0000
25.1400 723.0000 1.0000
25.1600 756.0000 1.0000
25.1800 855.0000 1.0000
25.2000 958.0000 1.0000
25.2200 1049.0000 1.0000
25.2400 1138.0000 1.0000
25.2600 1157.0000 1.0000
25.2800 1295.0000 1.0000
25.3000 1370.0000 1.0000
25.3200 1434.0000 1.0000
25.3400 1560.0000 1.0000
25.3600 1666.0000 1.0000
25.3800 1832.0000 1.0000
25.4000 1844.0000 1.0000
25.4200 1808.0000 1.0000
25.4400 1643.0000 1.0000
25.4600 1377.0000 1.0000
25.4800 1154.0000 1.0000
25.5000 933.0000 1.0000
25.5200 770.0000 1.0000
25.5400 639.0000 1.0000
25.5600 530.0000 1.0000
25.5800 454.0000 1.0000
25.6000 384.0000 1.0000
25.6200 357.0000 1.0000
25.6400 336.0000 1.0000
25.6600 317.0000 1.0000
25.6800 314.0000 1.0000
25.7000 307.0000 1.0000
25.7200 313.0000 1.0000
25.7400 328.0000 1.0000
25.7600 329.0000 1.0000
25.7800 369.0000 1.0000
25.8000 358.0000 1.0000
25.8200 348.0000 1.0000
25.8400 349.0000 1.0000
25.8600 362.0000 1.0000
25.8800 397.0000 1.0000
25.9000 428.0000 1.0000
25.9200 418.0000 1.0000
25.9400 442.0000 1.0000
25.9600 478.0000 1.0000
25.9800 497.0000 1.0000
26.0000 535.0000 1.0000
26.0200 565.0000 1.0000
26.0400 606.0000 1.0000
26.0600 626.0000 1.0000
26.0800 642.0000 1.0000
26.1000 689.0000 1.0000
26.1200 777.0000 1.0000
26.1400 847.0000 1.0000
26.1600 960.0000 1.0000
26.1800 1100.0000 1.0000
26.2000 1238.0000 1.0000
26.2200 1415.0000 1.0000
26.2400 1607.0000 1.0000
26.2600 1884.0000 1.0000
26.2800 2212.0000 1.0000
26.3000 2597.0000 1.0000
26.3200 3121.0000 1.0000
26.3400 3701.0000 1.0000
26.3600 4562.0000 1.0000
26.3800 5735.0000 1.0000
26.4000 7120.0000 1.0000
26.4200 8840.0000 1.0000
26.4400 10322.0000 1.0000
26.4600 11054.0000 1.0000
26.4800 11097.0000 1.0000
26.5000 10340.0000 1.0000
26.5200 8766.0000 1.0000
26.5400 6930.0000 1.0000
26.5600 5267.0000 1.0000
26.5800 3842.0000 1.0000
26.6000 2710.0000 1.0000
26.6200 1883.0000 1.0000
26.6400 1382.0000 1.0000
26.6600 1125.0000 1.0000
26.6800 988.0000 1.0000
26.7000 912.0000 1.0000
26.7200 849.0000 1.0000
26.7400 821.0000 1.0000
26.7600 800.0000 1.0000
26.7800 812.0000 1.0000
26.8000 808.0000 1.0000
26.8200 816.0000 1.0000
26.8400 850.0000 1.0000
26.8600 856.0000 1.0000
26.8800 846.0000 1.0000
26.9000 809.0000 1.0000
26.9200 807.0000 1.0000
26.9400 809.0000 1.0000
26.9600 793.0000 1.0000
26.9800 754.0000 1.0000
27.0000 722.0000 1.0000
27.0200 756.0000 1.0000
27.0400 773.0000 1.0000
27.0600 726.0000 1.0000
27.0800 759.0000 1.0000
27.1000 806.0000 1.0000
27.1200 783.0000 1.0000
27.1400 781.0000 1.0000
27.1600 799.0000 1.0000
27.1800 820.0000 1.0000
27.2000 860.0000 1.0000
27.2200 950.0000 1.0000
27.2400 1016.0000 1.0000
27.2600 1090.0000 1.0000
27.2800 1200.0000 1.0000
27.3000 1253.0000 1.0000
27.3200 1327.0000 1.0000
27.3400 1346.0000 1.0000
27.3600 1243.0000 1.0000
27.3800 1145.0000 1.0000
27.4000 1041.0000 1.0000
27.4200 919.0000 1.0000
27.4400 837.0000 1.0000
27.4600 839.0000 1.0000
27.4800 852.0000 1.0000
27.5000 907.0000 1.0000
27.5200 1018.0000 1.0000
27.5400 1149.0000 1.0000
27.5600 1276.0000 1.0000
27.5800 1304.0000 1.0000
27.6000 1338.0000 1.0000
27.6200 1420.0000 1.0000
27.6400 1513.0000 1.0000
27.6600 1606.0000 1.0000
27.6800 1791.0000 1.0000
27.7000 2038.0000 1.0000
27.7200 2236.0000 1.0000
27.7400 2454.0000 1.0000
27.7600 2589.0000 1.0000
27.7800 2581.0000 1.0000
27.8000 2501.0000 1.0000
27.8200 2326.0000 1.0000
27.8400 2030.0000 1.0000
27.8600 1689.0000 1.0000
27.8800 1409.0000 1.0000
27.9000 1190.0000 1.0000
27.9200 992.0000 1.0000
27.9400 882.0000 1.0000
27.9600 844.0000 1.0000
27.9800 797.0000 1.0000
28.0000 749.0000 1.0000
28.0200 698.0000 1.0000
28.0400 683.0000 1.0000
28.0600 680.0000 1.0000
28.0800 649.0000 1.0000
28.1000 648.0000 1.0000
28.1200 652.0000 1.0000
28.1400 626.0000 1.0000
28.1600 594.0000 1.0000
28.1800 543.0000 1.0000
28.2000 472.0000 1.0000
28.2200 398.0000 1.0000
28.2400 331.0000 1.0000
28.2600 303.0000 1.0000
28.2800 277.0000 1.0000
28.3000 256.0000 1.0000
28.3200 223.0000 1.0000
28.3400 216.0000 1.0000
28.3600 205.0000 1.0000
28.3800 184.0000 1.0000
28.4000 195.0000 1.0000
28.4200 191.0000 1.0000
28.4400 173.0000 1.0000
28.4600 177.0000 1.0000
28.4800 191.0000 1.0000
28.5000 187.0000 1.0000
28.5200 177.0000 1.0000
28.5400 176.0000 1.0000
28.5600 175.0000 1.0000
28.5800 184.0000 1.0000
28.6000 194.0000 1.0000
28.6200 181.0000 1.0000
28.6400 187.0000 1.0000
28.6600 203.0000 1.0000
28.6800 201.0000 1.0000
28.7000 201.0000 1.0000
28.7200 204.0000 1.0000
28.7400 224.0000 1.0000
28.7600 236.0000 1.0000
28.7800 230.0000 1.0000
28.8000 232.0000 1.0000
28.8200 238.0000 1.0000
28.8400 241.0000 1.0000
28.8600 262.0000 1.0000
28.8800 277.0000 1.0000
28.9000 260.0000 1.0000
28.9200 268.0000 1.0000
28.9400 283.0000 1.0000
28.9600 279.0000 1.0000
28.9800 283.0000 1.0000
29.0000 297.0000 1.0000
29.0200 305.0000 1.0000
29.0400 303.0000 1.0000
29.0600 330.0000 1.0000
29.0800 343.0000 1.0000
29.1000 362.0000 1.0000
29.1200 395.0000 1.0000
29.1400 442.0000 1.0000
29.1600 461.0000 1.0000
29.1800 496.0000 1.0000
29.2000 572.0000 1.0000
29.2200 607.0000 1.0000
29.2400 599.0000 1.0000
29.2600 582.0000 1.0000
29.2800 575.0000 1.0000
29.3000 581.0000 1.0000
29.3200 557.0000 1.0000
29.3400 510.0000 1.0000
29.3600 463.0000 1.0000
29.3800 408.0000 1.0000
29.4000 363.0000 1.0000
29.4200 343.0000 1.0000
29.4400 309.0000 1.0000
29.4600 284.0000 1.0000
29.4800 289.0000 1.0000
29.5000 257.0000 1.0000
29.5200 249.0000 1.0000
29.5400 288.0000 1.0000
29.5600 295.0000 1.0000
29.5800 276.0000 1.0000
29.6000 272.0000 1.0000
29.6200 294.0000 1.0000
29.6400 296.0000 1.0000
29.6600 278.0000 1.0000
29.6800 291.0000 1.0000
29.7000 302.0000 1.0000
29.7200 307.0000 1.0000
29.7400 314.0000 1.0000
29.7600 310.0000 1.0000
29.7800 326.0000 1.0000
29.8000 341.0000 1.0000
29.8200 345.0000 1.0000
29.8400 368.0000 1.0000
29.8600 380.0000 1.0000
29.8800 392.0000 1.0000
29.9000 408.0000 1.0000
29.9200 467.0000 1.0000
29.9400 503.0000 1.0000
29.9600 506.0000 1.0000
29.9800 502.0000 1.0000
30.0000 507.0000 1.0000
30.0200 510.0000 1.0000
30.0400 489.0000 1.0000
30.0600 474.0000 1.0000
30.0800 462.0000 1.0000
30.1000 443.0000 1.0000
30.1200 412.0000 1.0000
30.1400 381.0000 1.0000
30.1600 375.0000 1.0000
30.1800 408.0000 1.0000
30.2000 395.0000 1.0000
30.2200 379.0000 1.0000
30.2400 414.0000 1.0000
30.2600 457.0000 1.0000
30.2800 468.0000 1.0000
30.3000 497.0000 1.0000
30.3200 478.0000 1.0000
30.3400 476.0000 1.0000
30.3600 467.0000 1.0000
30.3800 428.0000 1.0000
30.4000 372.0000 1.0000
30.4200 337.0000 1.0000
30.4400 305.0000 1.0000
30.4600 289.0000 1.0000
30.4800 285.0000 1.0000
30.5000 292.0000 1.0000
30.5200 314.0000 1.0000
30.5400 305.0000 1.0000
30.5600 317.0000 1.0000
30.5800 319.0000 1.0000
30.6000 337.0000 1.0000
30.6200 344.0000 1.0000
30.6400 325.0000 1.0000
30.6600 329.0000 1.0000
30.6800 315.0000 1.0000
30.7000 299.0000 1.0000
30.7200 312.0000 1.0000
30.7400 285.0000 1.0000
30.7600 274.0000 1.0000
30.7800 277.0000 1.0000
30.8000 257.0000 1.0000
30.8200 269.0000 1.0000
30.8400 273.0000 1.0000
30.8600 280.0000 1.0000
30.8800 276.0000 1.0000
30.9000 273.0000 1.0000
30.9200 278.0000 1.0000
30.9400 320.0000 1.0000
30.9600 338.0000 1.0000
30.9800 327.0000 1.0000
31.0000 330.0000 1.0000
31.0200 351.0000 1.0000
31.0400 356.0000 1.0000
31.0600 363.0000 1.0000
31.0800 338.0000 1.0000
31.1000 331.0000 1.0000
31.1200 352.0000 1.0000
31.1400 290.0000 1.0000
31.1600 297.0000 1.0000
31.1800 290.0000 1.0000
31.2000 282.0000 1.0000
31.2200 238.0000 1.0000
31.2400 273.0000 1.0000
31.2600 245.0000 1.0000
31.2800 230.0000 1.0000
31.3000 249.0000 1.0000
31.3200 221.0000 1.0000
31.3400 221.0000 1.0000
31.3600 202.0000 1.0000
31.3800 193.0000 1.0000
31.4000 205.0000 1.0000
31.4200 183.0000 1.0000
31.4400 178.0000 1.0000
31.4600 177.0000 1.0000
31.4800 183.0000 1.0000
31.5000 191.0000 1.0000
31.5200 167.0000 1.0000
31.5400 168.0000 1.0000
31.5600 168.0000 1.0000
31.5800 172.0000 1.0000
31.6000 171.0000 1.0000
31.6200 178.0000 1.0000
31.6400 183.0000 1.0000
31.6600 183.0000 1.0000
31.6800 203.0000 1.0000
31.7000 199.0000 1.0000
31.7200 202.0000 1.0000
31.7400 192.0000 1.0000
31.7600 204.0000 1.0000
31.7800 214.0000 1.0000
31.8000 229.0000 1.0000
31.8200 258.0000 1.0000
31.8400 246.0000 1.0000
31.8600 234.0000 1.0000
31.8800 213.0000 1.0000
31.9000 221.0000 1.0000
31.9200 226.0000 1.0000
31.9400 225.0000 1.0000
31.9600 231.0000 1.0000
31.9800 246.0000 1.0000
32.0000 246.0000 1.0000
32.0200 268.0000 1.0000
32.0400 257.0000 1.0000
32.0600 213.0000 1.0000
32.0800 198.0000 1.0000
32.1000 209.0000 1.0000
32.1200 205.0000 1.0000
32.1400 201.0000 1.0000
32.1600 180.0000 1.0000
32.1800 182.0000 1.0000
32.2000 200.0000 1.0000
32.2200 193.0000 1.0000
32.2400 175.0000 1.0000
32.2600 190.0000 1.0000
32.2800 182.0000 1.0000
32.3000 181.0000 1.0000
32.3200 181.0000 1.0000
32.3400 152.0000 1.0000
32.3600 157.0000 1.0000
32.3800 136.0000 1.0000
32.4000 139.0000 1.0000
32.4200 136.0000 1.0000
32.4400 132.0000 1.0000
32.4600 145.0000 1.0000
32.4800 123.0000 1.0000
32.5000 128.0000 1.0000
32.5200 112.0000 1.0000
32.5400 125.0000 1.0000
32.5600 117.0000 1.0000
32.5800 130.0000 1.0000
32.6000 136.0000 1.0000
32.6200 121.0000 1.0000
32.6400 128.0000 1.0000
32.6600 117.0000 1.0000
32.6800 123.0000 1.0000
32.7000 117.0000 1.0000
32.7200 110.0000 1.0000
32.7400 122.0000 1.0000
32.7600 121.0000 1.0000
32.7800 119.0000 1.0000
32.8000 110.0000 1.0000
32.8200 119.0000 1.0000
32.8400 121.0000 1.0000
32.8600 113.0000 1.0000
32.8800 123.0000 1.0000
32.9000 133.0000 1.0000
32.9200 114.0000 1.0000
32.9400 114.0000 1.0000
32.9600 119.0000 1.0000
32.9800 98.0000 1.0000
33.0000 110.0000 1.0000
33.0200 117.0000 1.0000
33.0400 127.0000 1.0000
33.0600 117.0000 1.0000
33.0800 136.0000 1.0000
33.1000 123.0000 1.0000
33.1200 120.0000 1.0000
33.1400 127.0000 1.0000
33.1600 121.0000 1.0000
33.1800 117.0000 1.0000
33.2000 116.0000 1.0000
33.2200 116.0000 1.0000
33.2400 128.0000 1.0000
33.2600 123.0000 1.0000
33.2800 142.0000 1.0000
33.3000 126.0000 1.0000
33.3200 114.0000 1.0000
33.3400 126.0000 1.0000
33.3600 100.0000 1.0000
33.3800 120.0000 1.0000
33.4000 129.0000 1.0000
33.4200 126.0000 1.0000
33.4400 138.0000 1.0000
33.4600 127.0000 1.0000
33.4800 131.0000 1.0000
33.5000 134.0000 1.0000
33.5200 128.0000 1.0000
33.5400 153.0000 1.0000
33.5600 145.0000 1.0000
33.5800 139.0000 1.0000
33.6000 163.0000 1.0000
33.6200 170.0000 1.0000
33.6400 174.0000 1.0000
33.6600 168.0000 1.0000
33.6800 174.0000 1.0000
33.7000 200.0000 1.0000
33.7200 207.0000 1.0000
33.7400 222.0000 1.0000
33.7600 211.0000 1.0000
33.7800 213.0000 1.0000
33.8000 261.0000 1.0000
33.8200 232.0000 1.0000
33.8400 234.0000 1.0000
33.8600 225.0000 1.0000
33.8800 226.0000 1.0000
33.9000 213.0000 1.0000
33.9200 210.0000 1.0000
33.9400 217.0000 1.0000
33.9600 238.0000 1.0000
33.9800 208.0000 1.0000
34.0000 237.0000 1.0000
34.0200 250.0000 1.0000
34.0400 224.0000 1.0000
34.0600 253.0000 1.0000
34.0800 256.0000 1.0000
34.1000 242.0000 1.0000
34.1200 197.0000 1.0000
34.1400 234.0000 1.0000
34.1600 264.0000 1.0000
34.1800 291.0000 1.0000
34.2000 243.0000 1.0000
34.2200 267.0000 1.0000
34.2400 222.0000 1.0000
34.2600 266.0000 1.0000
34.2800 270.0000 1.0000
34.3000 288.0000 1.0000
34.3200 269.0000 1.0000
34.3400 284.0000 1.0000
34.3600 284.0000 1.0000
34.3800 315.0000 1.0000
34.4000 313.0000 1.0000
34.4200 356.0000 1.0000
34.4400 322.0000 1.0000
34.4600 371.0000 1.0000
34.4800 373.0000 1.0000
34.5000 397.0000 1.0000
34.5200 367.0000 1.0000
34.5400 409.0000 1.0000
34.5600 401.0000 1.0000
34.5800 376.0000 1.0000
34.6000 430.0000 1.0000
34.6200 425.0000 1.0000
34.6400 467.0000 1.0000
34.6600 493.0000 1.0000
34.6800 497.0000 1.0000
34.7000 491.0000 1.0000
34.7200 536.0000 1.0000
34.7400 539.0000 1.0000
34.7600 575.0000 1.0000
34.7800 666.0000 1.0000
34.8000 668.0000 1.0000
34.8200 777.0000 1.0000
34.8400 843.0000 1.0000
34.8600 955.0000 1.0000
34.8800 1096.0000 1.0000
34.9000 1326.0000 1.0000
34.9200 1529.0000 1.0000
34.9400 1721.0000 1.0000
34.9600 1835.0000 1.0000
34.9800 1996.0000 1.0000
35.0000 1898.0000 1.0000
35.0200 1838.0000 1.0000
35.0400 1624.0000 1.0000
35.0600 1435.0000 1.0000
35.0800 1155.0000 1.0000
35.1000 1005.0000 1.0000
35.1200 864.0000 1.0000
35.1400 698.0000 1.0000
35.1600 595.0000 1.0000
35.1800 462.0000 1.0000
35.2000 402.0000 1.0000
35.2200 398.0000 1.0000
35.2400 353.0000 1.0000
35.2600 371.0000 1.0000
35.2800 350.0000 1.0000
35.3000 312.0000 1.0000
35.3200 342.0000 1.0000
35.3400 309.0000 1.0000
35.3600 327.0000 1.0000
35.3800 294.0000 1.0000
35.4000 299.0000 1.0000
35.4200 259.0000 1.0000
35.4400 269.0000 1.0000
35.4600 263.0000 1.0000
35.4800 244.0000 1.0000
35.5000 260.0000 1.0000
35.5200 248.0000 1.0000
35.5400 274.0000 1.0000
35.5600 257.0000 1.0000
35.5800 236.0000 1.0000
35.6000 235.0000 1.0000
35.6200 224.0000 1.0000
35.6400 227.0000 1.0000
35.6600 221.0000 1.0000
35.6800 203.0000 1.0000
35.7000 201.0000 1.0000
35.7200 227.0000 1.0000
35.7400 229.0000 1.0000
35.7600 217.0000 1.0000
35.7800 217.0000 1.0000
35.8000 205.0000 1.0000
35.8200 220.0000 1.0000
35.8400 216.0000 1.0000
35.8600 232.0000 1.0000
35.8800 190.0000 1.0000
35.9000 209.0000 1.0000
35.9200 215.0000 1.0000
35.9400 195.0000 1.0000
35.9600 203.0000 1.0000
35.9800 208.0000 1.0000
36.0000 198.0000 1.0000
36.0200 171.0000 1.0000
36.0400 212.0000 1.0000
36.0600 206.0000 1.0000
36.0800 230.0000 1.0000
36.1000 234.0000 1.0000
36.1200 216.0000 1.0000
36.1400 238.0000 1.0000
36.1600 264.0000 1.0000
36.1800 279.0000 1.0000
36.2000 273.0000 1.0000
36.2200 302.0000 1.0000
36.2400 378.0000 1.0000
36.2600 420.0000 1.0000
36.2800 506.0000 1.0000
36.3000 592.0000 1.0000
36.3200 759.0000 1.0000
36.3400 839.0000 1.0000
36.3600 945.0000 1.0000
36.3800 939.0000 1.0000
36.4000 962.0000 1.0000
36.4200 912.0000 1.0000
36.4400 833.0000 1.0000
36.4600 714.0000 1.0000
36.4800 644.0000 1.0000
36.5000 565.0000 1.0000
36.5200 553.0000 1.0000
36.5400 479.0000 1.0000
36.5600 404.0000 1.0000
36.5800 383.0000 1.0000
36.6000 356.0000 1.0000
36.6200 378.0000 1.0000
36.6400 401.0000 1.0000
36.6600 379.0000 1.0000
36.6800 359.0000 1.0000
36.7000 388.0000 1.0000
36.7200 422.0000 1.0000
36.7400 405.0000 1.0000
36.7600 378.0000 1.0000
36.7800 365.0000 1.0000
36.8000 326.0000 1.0000
36.8200 327.0000 1.0000
36.8400 290.0000 1.0000
36.8600 292.0000 1.0000
36.8800 285.0000 1.0000
36.9000 277.0000 1.0000
36.9200 270.0000 1.0000
36.9400 237.0000 1.0000
36.9600 231.0000 1.0000
36.9800 211.0000 1.0000
37.0000 206.0000 1.0000
37.0200 198.0000 1.0000
37.0400 212.0000 1.0000
37.0600 197.0000 1.0000
37.0800 222.0000 1.0000
37.1000 187.0000 1.0000
37.1200 190.0000 1.0000
37.1400 181.0000 1.0000
37.1600 216.0000 1.0000
37.1800 228.0000 1.0000
37.2000 216.0000 1.0000
37.2200 255.0000 1.0000
37.2400 244.0000 1.0000
37.2600 236.0000 1.0000
37.2800 254.0000 1.0000
37.3000 291.0000 1.0000
37.3200 257.0000 1.0000
37.3400 239.0000 1.0000
37.3600 283.0000 1.0000
37.3800 293.0000 1.0000
37.4000 303.0000 1.0000
37.4200 308.0000 1.0000
37.4400 328.0000 1.0000
37.4600 346.0000 1.0000
37.4800 405.0000 1.0000
37.5000 455.0000 1.0000
37.5200 522.0000 1.0000
37.5400 618.0000 1.0000
37.5600 723.0000 1.0000
37.5800 855.0000 1.0000
37.6000 872.0000 1.0000
37.6200 826.0000 1.0000
37.6400 820.0000 1.0000
37.6600 766.0000 1.0000
37.6800 698.0000 1.0000
37.7000 572.0000 1.0000
37.7200 537.0000 1.0000
37.7400 463.0000 1.0000
37.7600 380.0000 1.0000
37.7800 322.0000 1.0000
37.8000 283.0000 1.0000
37.8200 256.0000 1.0000
37.8400 223.0000 1.0000
37.8600 221.0000 1.0000
37.8800 222.0000 1.0000
37.9000 239.0000 1.0000
37.9200 246.0000 1.0000
37.9400 236.0000 1.0000
37.9600 225.0000 1.0000
37.9800 209.0000 1.0000
38.0000 205.0000 1.0000
38.0200 207.0000 1.0000
38.0400 192.0000 1.0000
38.0600 182.0000 1.0000
38.0800 178.0000 1.0000
38.1000 165.0000 1.0000
38.1200 174.0000 1.0000
38.1400 176.0000 1.0000
38.1600 152.0000 1.0000
38.1800 167.0000 1.0000
38.2000 159.0000 1.0000
38.2200 162.0000 1.0000
38.2400 159.0000 1.0000
38.2600 154.0000 1.0000
38.2800 188.0000 1.0000
38.3000 190.0000 1.0000
38.3200 189.0000 1.0000
38.3400 186.0000 1.0000
38.3600 178.0000 1.0000
38.3800 180.0000 1.0000
38.4000 181.0000 1.0000
38.4200 190.0000 1.0000
38.4400 184.0000 1.0000
38.4600 180.0000 1.0000
38.4800 179.0000 1.0000
38.5000 183.0000 1.0000
38.5200 167.0000 1.0000
38.5400 165.0000 1.0000
38.5600 149.0000 1.0000
38.5800 176.0000 1.0000
38.6000 189.0000 1.0000
38.6200 207.0000 1.0000
38.6400 189.0000 1.0000
38.6600 191.0000 1.0000
38.6800 212.0000 1.0000
38.7000 191.0000 1.0000
38.7200 203.0000 1.0000
38.7400 197.0000 1.0000
38.7600 184.0000 1.0000
38.7800 169.0000 1.0000
38.8000 167.0000 1.0000
38.8200 178.0000 1.0000
38.8400 176.0000 1.0000
38.8600 174.0000 1.0000
38.8800 179.0000 1.0000
38.9000 165.0000 1.0000
38.9200 152.0000 1.0000
38.9400 167.0000 1.0000
38.9600 185.0000 1.0000
38.9800 169.0000 1.0000
39.0000 162.0000 1.0000
39.0200 166.0000 1.0000
39.0400 174.0000 1.0000
39.0600 172.0000 1.0000
39.0800 173.0000 1.0000
39.1000 203.0000 1.0000
39.1200 220.0000 1.0000
39.1400 236.0000 1.0000
39.1600 275.0000 1.0000
39.1800 312.0000 1.0000
39.2000 376.0000 1.0000
39.2200 485.0000 1.0000
39.2400 552.0000 1.0000
39.2600 630.0000 1.0000
39.2800 730.0000 1.0000
39.3000 771.0000 1.0000
39.3200 766.0000 1.0000
39.3400 766.0000 1.0000
39.3600 688.0000 1.0000
39.3800 614.0000 1.0000
39.4000 584.0000 1.0000
39.4200 499.0000 1.0000
39.4400 442.0000 1.0000
39.4600 379.0000 1.0000
39.4800 307.0000 1.0000
39.5000 271.0000 1.0000
39.5200 246.0000 1.0000
39.5400 224.0000 1.0000
39.5600 211.0000 1.0000
39.5800 205.0000 1.0000
39.6000 204.0000 1.0000
39.6200 176.0000 1.0000
39.6400 166.0000 1.0000
39.6600 164.0000 1.0000
39.6800 143.0000 1.0000
39.7000 147.0000 1.0000
39.7200 156.0000 1.0000
39.7400 148.0000 1.0000
39.7600 149.0000 1.0000
39.7800 162.0000 1.0000
39.8000 159.0000 1.0000
39.8200 155.0000 1.0000
39.8400 165.0000 1.0000
39.8600 164.0000 1.0000
39.8800 156.0000 1.0000
39.9000 156.0000 1.0000
39.9200 168.0000 1.0000
39.9400 189.0000 1.0000
39.9600 201.0000 1.0000
39.9800 206.0000 1.0000
40.0000 238.0000 1.0000
40.0200 270.0000 1.0000
40.0400 305.0000 1.0000
40.0600 351.0000 1.0000
40.0800 385.0000 1.0000
40.1000 399.0000 1.0000
40.1200 432.0000 1.0000
40.1400 428.0000 1.0000
40.1600 414.0000 1.0000
40.1800 425.0000 1.0000
40.2000 380.0000 1.0000
40.2200 310.0000 1.0000
40.2400 284.0000 1.0000
40.2600 276.0000 1.0000
40.2800 251.0000 1.0000
40.3000 215.0000 1.0000
40.3200 177.0000 1.0000
40.3400 173.0000 1.0000
40.3600 180.0000 1.0000
40.3800 166.0000 1.0000
40.4000 140.0000 1.0000
40.4200 130.0000 1.0000
40.4400 147.0000 1.0000
40.4600 161.0000 1.0000
40.4800 165.0000 1.0000
40.5000 156.0000 1.0000
40.5200 151.0000 1.0000
40.5400 155.0000 1.0000
40.5600 155.0000 1.0000
40.5800 172.0000 1.0000
40.6000 184.0000 1.0000
40.6200 171.0000 1.0000
40.6400 167.0000 1.0000
40.6600 174.0000 1.0000
40.6800 170.0000 1.0000
40.7000 164.0000 1.0000
40.7200 159.0000 1.0000
40.7400 167.0000 1.0000
40.7600 172.0000 1.0000
40.7800 167.0000 1.0000
40.8000 168.0000 1.0000
40.8200 160.0000 1.0000
40.8400 162.0000 1.0000
40.8600 166.0000 1.0000
40.8800 173.0000 1.0000
40.9000 172.0000 1.0000
40.9200 159.0000 1.0000
40.9400 151.0000 1.0000
40.9600 157.0000 1.0000
40.9800 167.0000 1.0000
41.0000 168.0000 1.0000
41.0200 167.0000 1.0000
41.0400 195.0000 1.0000
41.0600 202.0000 1.0000
41.0800 193.0000 1.0000
41.1000 211.0000 1.0000
41.1200 219.0000 1.0000
41.1400 203.0000 1.0000
41.1600 191.0000 1.0000
41.1800 182.0000 1.0000
41.2000 179.0000 1.0000
41.2200 185.0000 1.0000
41.2400 185.0000 1.0000
41.2600 180.0000 1.0000
41.2800 175.0000 1.0000
41.3000 166.0000 1.0000
41.3200 168.0000 1.0000
41.3400 170.0000 1.0000
41.3600 163.0000 1.0000
41.3800 159.0000 1.0000
41.4000 173.0000 1.0000
41.4200 174.0000 1.0000
41.4400 187.0000 1.0000
41.4600 206.0000 1.0000
41.4800 205.0000 1.0000
41.5000 200.0000 1.0000
41.5200 227.0000 1.0000
41.5400 231.0000 1.0000
41.5600 251.0000 1.0000
41.5800 301.0000 1.0000
41.6000 320.0000 1.0000
41.6200 334.0000 1.0000
41.6400 355.0000 1.0000
41.6600 370.0000 1.0000
41.6800 348.0000 1.0000
41.7000 354.0000 1.0000
41.7200 367.0000 1.0000
41.7400 330.0000 1.0000
41.7600 315.0000 1.0000
41.7800 321.0000 1.0000
41.8000 326.0000 1.0000
41.8200 305.0000 1.0000
41.8400 284.0000 1.0000
41.8600 276.0000 1.0000
41.8800 279.0000 1.0000
41.9000 253.0000 1.0000
41.9200 242.0000 1.0000
41.9400 227.0000 1.0000
41.9600 239.0000 1.0000
41.9800 239.0000 1.0000
42.0000 224.0000 1.0000
42.0200 225.0000 1.0000
42.0400 221.0000 1.0000
42.0600 220.0000 1.0000
42.0800 249.0000 1.0000
42.1000 264.0000 1.0000
42.1200 253.0000 1.0000
42.1400 277.0000 1.0000
42.1600 318.0000 1.0000
42.1800 396.0000 1.0000
42.2000 421.0000 1.0000
42.2200 468.0000 1.0000
42.2400 564.0000 1.0000
42.2600 649.0000 1.0000
42.2800 688.0000 1.0000
42.3000 650.0000 1.0000
42.3200 623.0000 1.0000
42.3400 599.0000 1.0000
42.3600 576.0000 1.0000
42.3800 527.0000 1.0000
42.4000 472.0000 1.0000
42.4200 452.0000 1.0000
42.4400 393.0000 1.0000
42.4600 342.0000 1.0000
42.4800 301.0000 1.0000
42.5000 281.0000 1.0000
42.5200 267.0000 1.0000
42.5400 261.0000 1.0000
42.5600 254.0000 1.0000
42.5800 230.0000 1.0000
42.6000 236.0000 1.0000
42.6200 226.0000 1.0000
42.6400 220.0000 1.0000
42.6600 230.0000 1.0000
42.6800 224.0000 1.0000
42.7000 215.0000 1.0000
42.7200 198.0000 1.0000
42.7400 198.0000 1.0000
42.7600 219.0000 1.0000
42.7800 217.0000 1.0000
42.8000 214.0000 1.0000
42.8200 210.0000 1.0000
42.8400 213.0000 1.0000
42.8600 218.0000 1.0000
42.8800 214.0000 1.0000
42.9000 234.0000 1.0000
42.9200 260.0000 1.0000
42.9400 296.0000 1.0000
42.9600 324.0000 1.0000
42.9800 345.0000 1.0000
43.0000 375.0000 1.0000
43.0200 458.0000 1.0000
43.0400 491.0000 1.0000
43.0600 630.0000 1.0000
43.0800 751.0000 1.0000
43.1000 899.0000 1.0000
43.1200 1104.0000 1.0000
43.1400 1418.0000 1.0000
43.1600 1618.0000 1.0000
43.1800 1741.0000 1.0000
43.2000 1768.0000 1.0000
43.2200 1853.0000 1.0000
43.2400 1695.0000 1.0000
43.2600 1494.0000 1.0000
43.2800 1329.0000 1.0000
43.3000 1163.0000 1.0000
43.3200 996.0000 1.0000
43.3400 917.0000 1.0000
43.3600 734.0000 1.0000
43.3800 579.0000 1.0000
43.4000 475.0000 1.0000
43.4200 377.0000 1.0000
43.4400 320.0000 1.0000
43.4600 282.0000 1.0000
43.4800 271.0000 1.0000
43.5000 231.0000 1.0000
43.5200 237.0000 1.0000
43.5400 221.0000 1.0000
43.5600 204.0000 1.0000
43.5800 191.0000 1.0000
43.6000 157.0000 1.0000
43.6200 179.0000 1.0000
43.6400 186.0000 1.0000
43.6600 160.0000 1.0000
43.6800 157.0000 1.0000
43.7000 159.0000 1.0000
43.7200 170.0000 1.0000
43.7400 159.0000 1.0000
43.7600 148.0000 1.0000
43.7800 134.0000 1.0000
43.8000 152.0000 1.0000
43.8200 149.0000 1.0000
43.8400 149.0000 1.0000
43.8600 155.0000 1.0000
43.8800 136.0000 1.0000
43.9000 152.0000 1.0000
43.9200 139.0000 1.0000
43.9400 125.0000 1.0000
43.9600 160.0000 1.0000
43.9800 133.0000 1.0000
44.0000 146.0000 1.0000
44.0200 132.0000 1.0000
44.0400 150.0000 1.0000
44.0600 142.0000 1.0000
44.0800 152.0000 1.0000
44.1000 144.0000 1.0000
44.1200 111.0000 1.0000
44.1400 152.0000 1.0000
44.1600 149.0000 1.0000
44.1800 159.0000 1.0000
44.2000 126.0000 1.0000
44.2200 117.0000 1.0000
44.2400 137.0000 1.0000
44.2600 135.0000 1.0000
44.2800 139.0000 1.0000
44.3000 146.0000 1.0000
44.3200 130.0000 1.0000
44.3400 133.0000 1.0000
44.3600 166.0000 1.0000
44.3800 132.0000 1.0000
44.4000 139.0000 1.0000
44.4200 135.0000 1.0000
44.4400 154.0000 1.0000
44.4600 157.0000 1.0000
44.4800 181.0000 1.0000
44.5000 142.0000 1.0000
44.5200 123.0000 1.0000
44.5400 151.0000 1.0000
44.5600 131.0000 1.0000
44.5800 141.0000 1.0000
44.6000 149.0000 1.0000
44.6200 156.0000 1.0000
44.6400 132.0000 1.0000
44.6600 158.0000 1.0000
44.6800 150.0000 1.0000
44.7000 165.0000 1.0000
44.7200 170.0000 1.0000
44.7400 134.0000 1.0000
44.7600 147.0000 1.0000
44.7800 135.0000 1.0000
44.8000 141.0000 1.0000
44.8200 164.0000 1.0000
44.8400 167.0000 1.0000
44.8600 160.0000 1.0000
44.8800 160.0000 1.0000
44.9000 179.0000 1.0000
44.9200 188.0000 1.0000
44.9400 169.0000 1.0000
44.9600 188.0000 1.0000
44.9800 189.0000 1.0000
45.0000 195.0000 1.0000
45.0200 233.0000 1.0000
45.0400 218.0000 1.0000
45.0600 199.0000 1.0000
45.0800 207.0000 1.0000
45.1000 214.0000 1.0000
45.1200 178.0000 1.0000
45.1400 219.0000 1.0000
45.1600 244.0000 1.0000
45.1800 230.0000 1.0000
45.2000 259.0000 1.0000
45.2200 225.0000 1.0000
45.2400 262.0000 1.0000
45.2600 276.0000 1.0000
45.2800 276.0000 1.0000
45.3000 278.0000 1.0000
45.3200 278.0000 1.0000
45.3400 259.0000 1.0000
45.3600 271.0000 1.0000
45.3800 270.0000 1.0000
45.4000 267.0000 1.0000
45.4200 249.0000 1.0000
45.4400 253.0000 1.0000
45.4600 260.0000 1.0000
45.4800 285.0000 1.0000
45.5000 298.0000 1.0000
45.5200 334.0000 1.0000
45.5400 315.0000 1.0000
45.5600 354.0000 1.0000
45.5800 423.0000 1.0000
45.6000 471.0000 1.0000
45.6200 479.0000 1.0000
45.6400 520.0000 1.0000
45.6600 501.0000 1.0000
45.6800 476.0000 1.0000
45.7000 442.0000 1.0000
45.7200 356.0000 1.0000
45.7400 380.0000 1.0000
45.7600 341.0000 1.0000
45.7800 325.0000 1.0000
45.8000 281.0000 1.0000
45.8200 241.0000 1.0000
45.8400 205.0000 1.0000
45.8600 172.0000 1.0000
45.8800 163.0000 1.0000
45.9000 163.0000 1.0000
45.9200 193.0000 1.0000
45.9400 189.0000 1.0000
45.9600 182.0000 1.0000
45.9800 170.0000 1.0000
46.0000 190.0000 1.0000
46.0200 201.0000 1.0000
46.0400 206.0000 1.0000
46.0600 205.0000 1.0000
46.0800 180.0000 1.0000
46.1000 182.0000 1.0000
46.1200 193.0000 1.0000
46.1400 204.0000 1.0000
46.1600 181.0000 1.0000
46.1800 211.0000 1.0000
46.2000 195.0000 1.0000
46.2200 202.0000 1.0000
46.2400 185.0000 1.0000
46.2600 175.0000 1.0000
46.2800 160.0000 1.0000
46.3000 152.0000 1.0000
46.3200 155.0000 1.0000
46.3400 143.0000 1.0000
46.3600 151.0000 1.0000
46.3800 140.0000 1.0000
46.4000 123.0000 1.0000
46.4200 145.0000 1.0000
46.4400 133.0000 1.0000
46.4600 125.0000 1.0000
46.4800 112.0000 1.0000
46.5000 116.0000 1.0000
46.5200 134.0000 1.0000
46.5400 130.0000 1.0000
46.5600 144.0000 1.0000
46.5800 135.0000 1.0000
46.6000 147.0000 1.0000
46.6200 141.0000 1.0000
46.6400 140.0000 1.0000
46.6600 146.0000 1.0000
46.6800 130.0000 1.0000
46.7000 145.0000 1.0000
46.7200 151.0000 1.0000
46.7400 155.0000 1.0000
46.7600 143.0000 1.0000
46.7800 146.0000 1.0000
46.8000 139.0000 1.0000
46.8200 148.0000 1.0000
46.8400 135.0000 1.0000
46.8600 155.0000 1.0000
46.8800 154.0000 1.0000
46.9000 158.0000 1.0000
46.9200 175.0000 1.0000
46.9400 173.0000 1.0000
46.9600 174.0000 1.0000
46.9800 209.0000 1.0000
47.0000 188.0000 1.0000
47.0200 175.0000 1.0000
47.0400 187.0000 1.0000
47.0600 174.0000 1.0000
47.0800 169.0000 1.0000
47.1000 145.0000 1.0000
47.1200 140.0000 1.0000
47.1400 135.0000 1.0000
47.1600 142.0000 1.0000
47.1800 145.0000 1.0000
47.2000 148.0000 1.0000
47.2200 163.0000 1.0000
47.2400 144.0000 1.0000
47.2600 141.0000 1.0000
47.2800 140.0000 1.0000
47.3000 155.0000 1.0000
47.3200 161.0000 1.0000
47.3400 164.0000 1.0000
47.3600 152.0000 1.0000
47.3800 158.0000 1.0000
47.4000 171.0000 1.0000
47.4200 167.0000 1.0000
47.4400 153.0000 1.0000
47.4600 166.0000 1.0000
47.4800 160.0000 1.0000
47.5000 157.0000 1.0000
47.5200 154.0000 1.0000
47.5400 142.0000 1.0000
47.5600 139.0000 1.0000
47.5800 143.0000 1.0000
47.6000 141.0000 1.0000
47.6200 141.0000 1.0000
47.6400 150.0000 1.0000
47.6600 149.0000 1.0000
47.6800 144.0000 1.0000
47.7000 149.0000 1.0000
47.7200 144.0000 1.0000
47.7400 147.0000 1.0000
47.7600 169.0000 1.0000
47.7800 164.0000 1.0000
47.8000 165.0000 1.0000
47.8200 188.0000 1.0000
47.8400 198.0000 1.0000
47.8600 190.0000 1.0000
47.8800 174.0000 1.0000
47.9000 180.0000 1.0000
47.9200 203.0000 1.0000
47.9400 185.0000 1.0000
47.9600 183.0000 1.0000
47.9800 209.0000 1.0000
48.0000 201.0000 1.0000
48.0200 226.0000 1.0000
48.0400 226.0000 1.0000
48.0600 223.0000 1.0000
48.0800 236.0000 1.0000
48.1000 217.0000 1.0000
48.1200 196.0000 1.0000
48.1400 205.0000 1.0000
48.1600 213.0000 1.0000
48.1800 201.0000 1.0000
48.2000 199.0000 1.0000
48.2200 193.0000 1.0000
48.2400 173.0000 1.0000
48.2600 182.0000 1.0000
48.2800 177.0000 1.0000
48.3000 168.0000 1.0000
48.3200 170.0000 1.0000
48.3400 165.0000 1.0000
48.3600 164.0000 1.0000
48.3800 159.0000 1.0000
48.4000 168.0000 1.0000
48.4200 160.0000 1.0000
48.4400 147.0000 1.0000
48.4600 151.0000 1.0000
48.4800 162.0000 1.0000
48.5000 159.0000 1.0000
48.5200 159.0000 1.0000
48.5400 165.0000 1.0000
48.5600 165.0000 1.0000
48.5800 162.0000 1.0000
48.6000 168.0000 1.0000
48.6200 180.0000 1.0000
48.6400 176.0000 1.0000
48.6600 174.0000 1.0000
48.6800 179.0000 1.0000
48.7000 177.0000 1.0000
48.7200 188.0000 1.0000
48.7400 186.0000 1.0000
48.7600 184.0000 1.0000
48.7800 184.0000 1.0000
48.8000 185.0000 1.0000
48.8200 185.0000 1.0000
48.8400 195.0000 1.0000
48.8600 208.0000 1.0000
48.8800 200.0000 1.0000
48.9000 216.0000 1.0000
48.9200 215.0000 1.0000
48.9400 221.0000 1.0000
48.9600 236.0000 1.0000
48.9800 243.0000 1.0000
49.0000 262.0000 1.0000
49.0200 265.0000 1.0000
49.0400 263.0000 1.0000
49.0600 266.0000 1.0000
49.0800 278.0000 1.0000
49.1000 277.0000 1.0000
49.1200 254.0000 1.0000
49.1400 239.0000 1.0000
49.1600 246.0000 1.0000
49.1800 230.0000 1.0000
49.2000 196.0000 1.0000
49.2200 200.0000 1.0000
49.2400 205.0000 1.0000
49.2600 188.0000 1.0000
49.2800 184.0000 1.0000
49.3000 186.0000 1.0000
49.3200 194.0000 1.0000
49.3400 186.0000 1.0000
49.3600 191.0000 1.0000
49.3800 173.0000 1.0000
49.4000 178.0000 1.0000
49.4200 191.0000 1.0000
49.4400 193.0000 1.0000
49.4600 190.0000 1.0000
49.4800 182.0000 1.0000
49.5000 187.0000 1.0000
49.5200 202.0000 1.0000
49.5400 214.0000 1.0000
49.5600 232.0000 1.0000
49.5800 231.0000 1.0000
49.6000 255.0000 1.0000
49.6200 273.0000 1.0000
49.6400 274.0000 1.0000
49.6600 298.0000 1.0000
49.6800 334.0000 1.0000
49.7000 335.0000 1.0000
49.7200 328.0000 1.0000
49.7400 352.0000 1.0000
49.7600 383.0000 1.0000
49.7800 404.0000 1.0000
49.8000 441.0000 1.0000
49.8200 470.0000 1.0000
49.8400 475.0000 1.0000
49.8600 530.0000 1.0000
49.8800 635.0000 1.0000
49.9000 785.0000 1.0000
49.9200 920.0000 1.0000
49.9400 1070.0000 1.0000
49.9600 1218.0000 1.0000
49.9800 1305.0000 1.0000
50.0000 1273.0000 1.0000
50.0200 1182.0000 1.0000
50.0400 1105.0000 1.0000
50.0600 956.0000 1.0000
50.0800 838.0000 1.0000
50.1000 821.0000 1.0000
50.1200 805.0000 1.0000
50.1400 670.0000 1.0000
50.1600 570.0000 1.0000
50.1800 509.0000 1.0000
50.2000 416.0000 1.0000
50.2200 331.0000 1.0000
50.2400 294.0000 1.0000
50.2600 282.0000 1.0000
50.2800 254.0000 1.0000
50.3000 261.0000 1.0000
50.3200 287.0000 1.0000
50.3400 289.0000 1.0000
50.3600 311.0000 1.0000
50.3800 325.0000 1.0000
50.4000 366.0000 1.0000
50.4200 377.0000 1.0000
50.4400 370.0000 1.0000
50.4600 358.0000 1.0000
50.4800 361.0000 1.0000
50.5000 352.0000 1.0000
50.5200 359.0000 1.0000
50.5400 357.0000 1.0000
50.5600 329.0000 1.0000
50.5800 311.0000 1.0000
50.6000 288.0000 1.0000
50.6200 261.0000 1.0000
50.6400 248.0000 1.0000
50.6600 222.0000 1.0000
50.6800 254.0000 1.0000
50.7000 202.0000 1.0000
50.7200 195.0000 1.0000
50.7400 216.0000 1.0000
50.7600 178.0000 1.0000
50.7800 193.0000 1.0000
50.8000 185.0000 1.0000
50.8200 170.0000 1.0000
50.8400 176.0000 1.0000
50.8600 176.0000 1.0000
50.8800 176.0000 1.0000
50.9000 202.0000 1.0000
50.9200 229.0000 1.0000
50.9400 246.0000 1.0000
50.9600 255.0000 1.0000
50.9800 247.0000 1.0000
51.0000 253.0000 1.0000
51.0200 275.0000 1.0000
51.0400 256.0000 1.0000
51.0600 227.0000 1.0000
51.0800 242.0000 1.0000
51.1000 246.0000 1.0000
51.1200 232.0000 1.0000
51.1400 210.0000 1.0000
51.1600 217.0000 1.0000
51.1800 197.0000 1.0000
51.2000 192.0000 1.0000
51.2200 181.0000 1.0000
51.2400 152.0000 1.0000
51.2600 164.0000 1.0000
51.2800 181.0000 1.0000
51.3000 158.0000 1.0000
51.3200 153.0000 1.0000
51.3400 157.0000 1.0000
51.3600 145.0000 1.0000
51.3800 166.0000 1.0000
51.4000 141.0000 1.0000
51.4200 135.0000 1.0000
51.4400 161.0000 1.0000
51.4600 167.0000 1.0000
51.4800 145.0000 1.0000
51.5000 144.0000 1.0000
51.5200 141.0000 1.0000
51.5400 171.0000 1.0000
51.5600 163.0000 1.0000
51.5800 159.0000 1.0000
51.6000 144.0000 1.0000
51.6200 160.0000 1.0000
51.6400 129.0000 1.0000
51.6600 122.0000 1.0000
51.6800 150.0000 1.0000
51.7000 135.0000 1.0000
51.7200 137.0000 1.0000
51.7400 152.0000 1.0000
51.7600 134.0000 1.0000
51.7800 133.0000 1.0000
51.8000 129.0000 1.0000
51.8200 139.0000 1.0000
51.8400 156.0000 1.0000
51.8600 162.0000 1.0000
51.8800 149.0000 1.0000
51.9000 149.0000 1.0000
51.9200 161.0000 1.0000
51.9400 170.0000 1.0000
51.9600 144.0000 1.0000
51.9800 176.0000 1.0000
52.0000 178.0000 1.0000
52.0200 162.0000 1.0000
52.0400 177.0000 1.0000
52.0600 181.0000 1.0000
52.0800 175.0000 1.0000
52.1000 195.0000 1.0000
52.1200 227.0000 1.0000
52.1400 228.0000 1.0000
52.1600 206.0000 1.0000
52.1800 219.0000 1.0000
52.2000 239.0000 1.0000
52.2200 238.0000 1.0000
52.2400 293.0000 1.0000
52.2600 279.0000 1.0000
52.2800 345.0000 1.0000
52.3000 425.0000 1.0000
52.3200 526.0000 1.0000
52.3400 610.0000 1.0000
52.3600 685.0000 1.0000
52.3800 746.0000 1.0000
52.4000 832.0000 1.0000
52.4200 840.0000 1.0000
52.4400 804.0000 1.0000
52.4600 714.0000 1.0000
52.4800 681.0000 1.0000
52.5000 649.0000 1.0000
52.5200 604.0000 1.0000
52.5400 525.0000 1.0000
52.5600 527.0000 1.0000
52.5800 448.0000 1.0000
52.6000 392.0000 1.0000
52.6200 341.0000 1.0000
52.6400 287.0000 1.0000
52.6600 234.0000 1.0000
52.6800 211.0000 1.0000
52.7000 178.0000 1.0000
52.7200 192.0000 1.0000
52.7400 159.0000 1.0000
52.7600 194.0000 1.0000
52.7800 175.0000 1.0000
52.8000 156.0000 1.0000
52.8200 146.0000 1.0000
52.8400 150.0000 1.0000
52.8600 152.0000 1.0000
52.8800 167.0000 1.0000
52.9000 153.0000 1.0000
52.9200 149.0000 1.0000
52.9400 164.0000 1.0000
52.9600 180.0000 1.0000
52.9800 181.0000 1.0000
53.0000 171.0000 1.0000
53.0200 189.0000 1.0000
53.0400 187.0000 1.0000
53.0600 180.0000 1.0000
53.0800 194.0000 1.0000
53.1000 186.0000 1.0000
53.1200 187.0000 1.0000
53.1400 200.0000 1.0000
53.1600 199.0000 1.0000
53.1800 195.0000 1.0000
53.2000 201.0000 1.0000
53.2200 193.0000 1.0000
53.2400 165.0000 1.0000
53.2600 147.0000 1.0000
53.2800 159.0000 1.0000
53.3000 154.0000 1.0000
53.3200 139.0000 1.0000
53.3400 139.0000 1.0000
53.3600 139.0000 1.0000
53.3800 127.0000 1.0000
53.4000 160.0000 1.0000
53.4200 160.0000 1.0000
53.4400 147.0000 1.0000
53.4600 155.0000 1.0000
53.4800 160.0000 1.0000
53.5000 150.0000 1.0000
53.5200 144.0000 1.0000
53.5400 147.0000 1.0000
53.5600 130.0000 1.0000
53.5800 144.0000 1.0000
53.6000 118.0000 1.0000
53.6200 128.0000 1.0000
53.6400 148.0000 1.0000
53.6600 146.0000 1.0000
53.6800 146.0000 1.0000
53.7000 151.0000 1.0000
53.7200 144.0000 1.0000
53.7400 147.0000 1.0000
53.7600 159.0000 1.0000
53.7800 145.0000 1.0000
53.8000 140.0000 1.0000
53.8200 135.0000 1.0000
53.8400 147.0000 1.0000
53.8600 143.0000 1.0000
53.8800 142.0000 1.0000
53.9000 134.0000 1.0000
53.9200 126.0000 1.0000
53.9400 133.0000 1.0000
53.9600 138.0000 1.0000
53.9800 134.0000 1.0000
54.0000 125.0000 1.0000
54.0200 138.0000 1.0000
54.0400 124.0000 1.0000
54.0600 122.0000 1.0000
54.0800 124.0000 1.0000
54.1000 139.0000 1.0000
54.1200 140.0000 1.0000
54.1400 135.0000 1.0000
54.1600 129.0000 1.0000
54.1800 133.0000 1.0000
54.2000 148.0000 1.0000
54.2200 147.0000 1.0000
54.2400 133.0000 1.0000
54.2600 153.0000 1.0000
54.2800 155.0000 1.0000
54.3000 147.0000 1.0000
54.3200 138.0000 1.0000
54.3400 150.0000 1.0000
54.3600 140.0000 1.0000
54.3800 154.0000 1.0000
54.4000 147.0000 1.0000
54.4200 146.0000 1.0000
54.4400 144.0000 1.0000
54.4600 145.0000 1.0000
54.4800 151.0000 1.0000
54.5000 171.0000 1.0000
54.5200 176.0000 1.0000
54.5400 166.0000 1.0000
54.5600 175.0000 1.0000
54.5800 209.0000 1.0000
54.6000 216.0000 1.0000
54.6200 261.0000 1.0000
54.6400 289.0000 1.0000
54.6600 323.0000 1.0000
54.6800 407.0000 1.0000
54.7000 447.0000 1.0000
54.7200 455.0000 1.0000
54.7400 424.0000 1.0000
54.7600 404.0000 1.0000
54.7800 407.0000 1.0000
54.8000 377.0000 1.0000
54.8200 347.0000 1.0000
54.8400 340.0000 1.0000
54.8600 338.0000 1.0000
54.8800 339.0000 1.0000
54.9000 324.0000 1.0000
54.9200 294.0000 1.0000
54.9400 260.0000 1.0000
54.9600 237.0000 1.0000
54.9800 225.0000 1.0000
55.0000 202.0000 1.0000
55.0200 196.0000 1.0000
55.0400 192.0000 1.0000
55.0600 208.0000 1.0000
55.0800 203.0000 1.0000
55.1000 219.0000 1.0000
55.1200 239.0000 1.0000
55.1400 252.0000 1.0000
55.1600 275.0000 1.0000
55.1800 277.0000 1.0000
55.2000 273.0000 1.0000
55.2200 276.0000 1.0000
55.2400 274.0000 1.0000
55.2600 248.0000 1.0000
55.2800 233.0000 1.0000
55.3000 244.0000 1.0000
55.3200 243.0000 1.0000
55.3400 230.0000 1.0000
55.3600 228.0000 1.0000
55.3800 211.0000 1.0000
55.4000 193.0000 1.0000
55.4200 184.0000 1.0000
55.4400 158.0000 1.0000
55.4600 151.0000 1.0000
55.4800 148.0000 1.0000
55.5000 155.0000 1.0000
55.5200 166.0000 1.0000
55.5400 154.0000 1.0000
55.5600 149.0000 1.0000
55.5800 150.0000 1.0000
55.6000 150.0000 1.0000
55.6200 150.0000 1.0000
55.6400 145.0000 1.0000
55.6600 134.0000 1.0000
55.6800 141.0000 1.0000
55.7000 143.0000 1.0000
55.7200 138.0000 1.0000
55.7400 150.0000 1.0000
55.7600 153.0000 1.0000
55.7800 144.0000 1.0000
55.8000 135.0000 1.0000
55.8200 129.0000 1.0000
55.8400 132.0000 1.0000
55.8600 136.0000 1.0000
55.8800 137.0000 1.0000
55.9000 141.0000 1.0000
55.9200 153.0000 1.0000
55.9400 155.0000 1.0000
55.9600 162.0000 1.0000
55.9800 170.0000 1.0000
56.0000 158.0000 1.0000
56.0200 158.0000 1.0000
56.0400 161.0000 1.0000
56.0600 156.0000 1.0000
56.0800 168.0000 1.0000
56.1000 176.0000 1.0000
56.1200 164.0000 1.0000
56.1400 157.0000 1.0000
56.1600 154.0000 1.0000
56.1800 160.0000 1.0000
56.2000 169.0000 1.0000
56.2200 154.0000 1.0000
56.2400 147.0000 1.0000
56.2600 160.0000 1.0000
56.2800 153.0000 1.0000
56.3000 150.0000 1.0000
56.3200 147.0000 1.0000
56.3400 139.0000 1.0000
56.3600 139.0000 1.0000
56.3800 142.0000 1.0000
56.4000 143.0000 1.0000
56.4200 138.0000 1.0000
56.4400 149.0000 1.0000
56.4600 166.0000 1.0000
56.4800 170.0000 1.0000
56.5000 161.0000 1.0000
56.5200 165.0000 1.0000
56.5400 168.0000 1.0000
56.5600 159.0000 1.0000
56.5800 171.0000 1.0000
56.6000 183.0000 1.0000
56.6200 176.0000 1.0000
56.6400 169.0000 1.0000
56.6600 176.0000 1.0000
56.6800 179.0000 1.0000
56.7000 162.0000 1.0000
56.7200 165.0000 1.0000
56.7400 168.0000 1.0000
56.7600 162.0000 1.0000
56.7800 160.0000 1.0000
56.8000 147.0000 1.0000
56.8200 153.0000 1.0000
56.8400 165.0000 1.0000
56.8600 181.0000 1.0000
56.8800 169.0000 1.0000
56.9000 173.0000 1.0000
56.9200 178.0000 1.0000
56.9400 167.0000 1.0000
56.9600 177.0000 1.0000
56.9800 181.0000 1.0000
57.0000 180.0000 1.0000
57.0200 186.0000 1.0000
57.0400 211.0000 1.0000
57.0600 214.0000 1.0000
57.0800 213.0000 1.0000
57.1000 241.0000 1.0000
57.1200 274.0000 1.0000
57.1400 290.0000 1.0000
57.1600 314.0000 1.0000
57.1800 350.0000 1.0000
57.2000 402.0000 1.0000
57.2200 468.0000 1.0000
57.2400 580.0000 1.0000
57.2600 739.0000 1.0000
57.2800 879.0000 1.0000
57.3000 1063.0000 1.0000
57.3200 1281.0000 1.0000
57.3400 1390.0000 1.0000
57.3600 1419.0000 1.0000
57.3800 1397.0000 1.0000
57.4000 1335.0000 1.0000
57.4200 1220.0000 1.0000
57.4400 1073.0000 1.0000
57.4600 939.0000 1.0000
57.4800 949.0000 1.0000
57.5000 923.0000 1.0000
57.5200 844.0000 1.0000
57.5400 789.0000 1.0000
57.5600 650.0000 1.0000
57.5800 558.0000 1.0000
57.6000 472.0000 1.0000
57.6200 384.0000 1.0000
57.6400 303.0000 1.0000
57.6600 247.0000 1.0000
57.6800 237.0000 1.0000
57.7000 216.0000 1.0000
57.7200 212.0000 1.0000
57.7400 206.0000 1.0000
57.7600 207.0000 1.0000
57.7800 205.0000 1.0000
57.8000 197.0000 1.0000
57.8200 177.0000 1.0000
57.8400 174.0000 1.0000
57.8600 187.0000 1.0000
57.8800 161.0000 1.0000
57.9000 168.0000 1.0000
57.9200 160.0000 1.0000
57.9400 162.0000 1.0000
57.9600 166.0000 1.0000
57.9800 170.0000 1.0000
58.0000 145.0000 1.0000
58.0200 152.0000 1.0000
58.0400 167.0000 1.0000
58.0600 158.0000 1.0000
58.0800 147.0000 1.0000
58.1000 139.0000 1.0000
58.1200 159.0000 1.0000
58.1400 156.0000 1.0000
58.1600 151.0000 1.0000
58.1800 151.0000 1.0000
58.2000 140.0000 1.0000
58.2200 155.0000 1.0000
58.2400 147.0000 1.0000
58.2600 156.0000 1.0000
58.2800 160.0000 1.0000
58.3000 172.0000 1.0000
58.3200 153.0000 1.0000
58.3400 145.0000 1.0000
58.3600 134.0000 1.0000
58.3800 157.0000 1.0000
58.4000 148.0000 1.0000
58.4200 163.0000 1.0000
58.4400 158.0000 1.0000
58.4600 181.0000 1.0000
58.4800 173.0000 1.0000
58.5000 167.0000 1.0000
58.5200 200.0000 1.0000
58.5400 200.0000 1.0000
58.5600 199.0000 1.0000
58.5800 173.0000 1.0000
58.6000 172.0000 1.0000
58.6200 197.0000 1.0000
58.6400 182.0000 1.0000
58.6600 174.0000 1.0000
58.6800 180.0000 1.0000
58.7000 184.0000 1.0000
58.7200 193.0000 1.0000
58.7400 188.0000 1.0000
58.7600 176.0000 1.0000
58.7800 157.0000 1.0000
58.8000 170.0000 1.0000
58.8200 172.0000 1.0000
58.8400 170.0000 1.0000
58.8600 160.0000 1.0000
58.8800 162.0000 1.0000
58.9000 175.0000 1.0000
58.9200 168.0000 1.0000
58.9400 152.0000 1.0000
58.9600 141.0000 1.0000
58.9800 157.0000 1.0000
59.0000 139.0000 1.0000
59.0200 152.0000 1.0000
59.0400 174.0000 1.0000
59.0600 162.0000 1.0000
59.0800 153.0000 1.0000
59.1000 153.0000 1.0000
59.1200 151.0000 1.0000
59.1400 145.0000 1.0000
59.1600 142.0000 1.0000
59.1800 150.0000 1.0000
59.2000 142.0000 1.0000
59.2200 163.0000 1.0000
59.2400 141.0000 1.0000
59.2600 156.0000 1.0000
59.2800 158.0000 1.0000
59.3000 184.0000 1.0000
59.3200 173.0000 1.0000
59.3400 176.0000 1.0000
59.3600 162.0000 1.0000
59.3800 171.0000 1.0000
59.4000 170.0000 1.0000
59.4200 183.0000 1.0000
59.4400 177.0000 1.0000
59.4600 202.0000 1.0000
59.4800 214.0000 1.0000
59.5000 185.0000 1.0000
59.5200 220.0000 1.0000
59.5400 220.0000 1.0000
59.5600 243.0000 1.0000
59.5800 252.0000 1.0000
59.6000 247.0000 1.0000
59.6200 279.0000 1.0000
59.6400 280.0000 1.0000
59.6600 328.0000 1.0000
59.6800 358.0000 1.0000
59.7000 388.0000 1.0000
59.7200 471.0000 1.0000
59.7400 554.0000 1.0000
59.7600 666.0000 1.0000
59.7800 776.0000 1.0000
59.8000 876.0000 1.0000
59.8200 861.0000 1.0000
59.8400 880.0000 1.0000
59.8600 773.0000 1.0000
59.8800 713.0000 1.0000
59.9000 608.0000 1.0000
59.9200 578.0000 1.0000
59.9400 536.0000 1.0000
59.9600 537.0000 1.0000
59.9800 560.0000 1.0000
60.0000 521.0000 1.0000
60.0200 435.0000 1.0000
60.0400 389.0000 1.0000
60.0600 323.0000 1.0000
60.0800 316.0000 1.0000
60.1000 277.0000 1.0000
60.1200 252.0000 1.0000
60.1400 210.0000 1.0000
60.1600 198.0000 1.0000
60.1800 203.0000 1.0000
60.2000 191.0000 1.0000
60.2200 185.0000 1.0000
60.2400 202.0000 1.0000
60.2600 204.0000 1.0000
60.2800 179.0000 1.0000
60.3000 172.0000 1.0000
60.3200 177.0000 1.0000
60.3400 188.0000 1.0000
60.3600 202.0000 1.0000
60.3800 170.0000 1.0000
60.4000 186.0000 1.0000
60.4200 194.0000 1.0000
60.4400 189.0000 1.0000
60.4600 199.0000 1.0000
60.4800 178.0000 1.0000
60.5000 194.0000 1.0000
60.5200 197.0000 1.0000
60.5400 194.0000 1.0000
60.5600 178.0000 1.0000
60.5800 180.0000 1.0000
60.6000 184.0000 1.0000
60.6200 191.0000 1.0000
60.6400 196.0000 1.0000
60.6600 182.0000 1.0000
60.6800 166.0000 1.0000
60.7000 180.0000 1.0000
60.7200 188.0000 1.0000
60.7400 187.0000 1.0000
60.7600 181.0000 1.0000
60.7800 182.0000 1.0000
60.8000 191.0000 1.0000
60.8200 189.0000 1.0000
60.8400 161.0000 1.0000
60.8600 166.0000 1.0000
60.8800 184.0000 1.0000
60.9000 188.0000 1.0000
60.9200 203.0000 1.0000
60.9400 187.0000 1.0000
60.9600 234.0000 1.0000
60.9800 250.0000 1.0000
61.0000 229.0000 1.0000
61.0200 239.0000 1.0000
61.0400 210.0000 1.0000
61.0600 261.0000 1.0000
61.0800 242.0000 1.0000
61.1000 245.0000 1.0000
61.1200 287.0000 1.0000
61.1400 277.0000 1.0000
61.1600 295.0000 1.0000
61.1800 290.0000 1.0000
61.2000 286.0000 1.0000
61.2200 273.0000 1.0000
61.2400 243.0000 1.0000
61.2600 247.0000 1.0000
61.2800 236.0000 1.0000
61.3000 237.0000 1.0000
61.3200 236.0000 1.0000
61.3400 284.0000 1.0000
61.3600 223.0000 1.0000
61.3800 204.0000 1.0000
61.4000 206.0000 1.0000
61.4200 235.0000 1.0000
61.4400 193.0000 1.0000
61.4600 174.0000 1.0000
61.4800 206.0000 1.0000
61.5000 158.0000 1.0000
61.5200 179.0000 1.0000
61.5400 189.0000 1.0000
61.5600 185.0000 1.0000
61.5800 195.0000 1.0000
61.6000 171.0000 1.0000
61.6200 186.0000 1.0000
61.6400 199.0000 1.0000
61.6600 205.0000 1.0000
61.6800 188.0000 1.0000
61.7000 199.0000 1.0000
61.7200 190.0000 1.0000
61.7400 202.0000 1.0000
61.7600 197.0000 1.0000
61.7800 195.0000 1.0000
61.8000 183.0000 1.0000
61.8200 173.0000 1.0000
61.8400 192.0000 1.0000
61.8600 191.0000 1.0000
61.8800 157.0000 1.0000
61.9000 148.0000 1.0000
61.9200 175.0000 1.0000
61.9400 161.0000 1.0000
61.9600 147.0000 1.0000
61.9800 153.0000 1.0000
62.0000 149.0000 1.0000
62.0200 174.0000 1.0000
62.0400 128.0000 1.0000
62.0600 144.0000 1.0000
62.0800 152.0000 1.0000
62.1000 135.0000 1.0000
62.1200 154.0000 1.0000
62.1400 136.0000 1.0000
62.1600 142.0000 1.0000
62.1800 137.0000 1.0000
62.2000 125.0000 1.0000
62.2200 139.0000 1.0000
62.2400 124.0000 1.0000
62.2600 123.0000 1.0000
62.2800 131.0000 1.0000
62.3000 148.0000 1.0000
62.3200 145.0000 1.0000
62.3400 141.0000 1.0000
62.3600 133.0000 1.0000
62.3800 150.0000 1.0000
62.4000 122.0000 1.0000
62.4200 142.0000 1.0000
62.4400 126.0000 1.0000
62.4600 122.0000 1.0000
62.4800 129.0000 1.0000
62.5000 144.0000 1.0000
62.5200 127.0000 1.0000
62.5400 130.0000 1.0000
62.5600 162.0000 1.0000
62.5800 154.0000 1.0000
62.6000 140.0000 1.0000
62.6200 146.0000 1.0000
62.6400 139.0000 1.0000
62.6600 126.0000 1.0000
62.6800 159.0000 1.0000
62.7000 144.0000 1.0000
62.7200 160.0000 1.0000
62.7400 135.0000 1.0000
62.7600 159.0000 1.0000
62.7800 165.0000 1.0000
62.8000 156.0000 1.0000
62.8200 151.0000 1.0000
62.8400 143.0000 1.0000
62.8600 148.0000 1.0000
62.8800 148.0000 1.0000
62.9000 146.0000 1.0000
62.9200 143.0000 1.0000
62.9400 158.0000 1.0000
62.9600 160.0000 1.0000
62.9800 133.0000 1.0000
63.0000 133.0000 1.0000
63.0200 143.0000 1.0000
63.0400 155.0000 1.0000
63.0600 128.0000 1.0000
63.0800 159.0000 1.0000
63.1000 164.0000 1.0000
63.1200 148.0000 1.0000
63.1400 114.0000 1.0000
63.1600 119.0000 1.0000
63.1800 142.0000 1.0000
63.2000 130.0000 1.0000
63.2200 159.0000 1.0000
63.2400 156.0000 1.0000
63.2600 153.0000 1.0000
63.2800 152.0000 1.0000
63.3000 159.0000 1.0000
63.3200 147.0000 1.0000
63.3400 178.0000 1.0000
63.3600 179.0000 1.0000
63.3800 183.0000 1.0000
63.4000 186.0000 1.0000
63.4200 176.0000 1.0000
63.4400 186.0000 1.0000
63.4600 172.0000 1.0000
63.4800 181.0000 1.0000
63.5000 186.0000 1.0000
63.5200 188.0000 1.0000
63.5400 176.0000 1.0000
63.5600 178.0000 1.0000
63.5800 195.0000 1.0000
63.6000 213.0000 1.0000
63.6200 193.0000 1.0000
63.6400 230.0000 1.0000
63.6600 202.0000 1.0000
63.6800 201.0000 1.0000
63.7000 201.0000 1.0000
63.7200 206.0000 1.0000
63.7400 220.0000 1.0000
63.7600 220.0000 1.0000
63.7800 246.0000 1.0000
63.8000 244.0000 1.0000
63.8200 273.0000 1.0000
63.8400 251.0000 1.0000
63.8600 286.0000 1.0000
63.8800 278.0000 1.0000
63.9000 299.0000 1.0000
63.9200 276.0000 1.0000
63.9400 255.0000 1.0000
63.9600 232.0000 1.0000
63.9800 221.0000 1.0000
64.0000 214.0000 1.0000
64.0200 218.0000 1.0000
64.0400 228.0000 1.0000
64.0600 232.0000 1.0000
64.0800 220.0000 1.0000
64.1000 200.0000 1.0000
64.1200 169.0000 1.0000
64.1400 163.0000 1.0000
64.1600 161.0000 1.0000
64.1800 158.0000 1.0000
64.2000 153.0000 1.0000
64.2200 157.0000 1.0000
64.2400 156.0000 1.0000
64.2600 162.0000 1.0000
64.2800 162.0000 1.0000
64.3000 155.0000 1.0000
64.3200 151.0000 1.0000
64.3400 151.0000 1.0000
64.3600 149.0000 1.0000
64.3800 150.0000 1.0000
64.4000 149.0000 1.0000
64.4200 154.0000 1.0000
64.4400 141.0000 1.0000
64.4600 147.0000 1.0000
64.4800 167.0000 1.0000
64.5000 177.0000 1.0000
64.5200 171.0000 1.0000
64.5400 168.0000 1.0000
64.5600 172.0000 1.0000
64.5800 172.0000 1.0000
64.6000 167.0000 1.0000
64.6200 169.0000 1.0000
64.6400 184.0000 1.0000
64.6600 177.0000 1.0000
64.6800 180.0000 1.0000
64.7000 149.0000 1.0000
64.7200 164.0000 1.0000
64.7400 173.0000 1.0000
64.7600 186.0000 1.0000
64.7800 176.0000 1.0000
64.8000 160.0000 1.0000
64.8200 181.0000 1.0000
64.8400 180.0000 1.0000
64.8600 172.0000 1.0000
64.8800 157.0000 1.0000
64.9000 178.0000 1.0000
64.9200 184.0000 1.0000
64.9400 184.0000 1.0000
64.9600 185.0000 1.0000
64.9800 185.0000 1.0000
65.0000 185.0000 1.0000
*RAS_INT_END
*RAS_DATA_END
