*RAS_DATA_START
*RAS_HEADER_START
*CORR_POS_DB_NAME "Angle Correction ASC6 SC WITH Mono_04082019"
*CORR_POS_GONIO_RADIUS ""
*CORR_POS_NODE_INDEX01 ""
*CORR_POS_NODE_INDEX02 ""
*CORR_POS_NODE_INDEX03 ""
*CORR_POS_NODE_INDEX04 ""
*CORR_POS_NODE_INDEX05 ""
*CORR_POS_NODE_INDEX06 ""
*CORR_POS_NODE_INDEX07 ""
*CORR_POS_NODE_INDEX08 ""
*CORR_POS_NODE_INDEX09 ""
*CORR_POS_NODE_INDEX10 ""
*CORR_POS_NODE_INDEX11 ""
*CORR_POS_NODE_LABEL01 "Si(111)"
*CORR_POS_NODE_LABEL02 "Si(220)"
*CORR_POS_NODE_LABEL03 "Si(311)"
*CORR_POS_NODE_LABEL04 "Si(400)"
*CORR_POS_NODE_LABEL05 "Si(331)"
*CORR_POS_NODE_LABEL06 "Si(422)"
*CORR_POS_NODE_LABEL07 "Si(511)"
*CORR_POS_NODE_LABEL08 "Si(440)"
*CORR_POS_NODE_LABEL09 "Si(531)"
*CORR_POS_NODE_LABEL10 "Si(620)"
*CORR_POS_NODE_LABEL11 "Si(533)"
*CORR_POS_NODE_POS_CALC01 "28.377"
*CORR_POS_NODE_POS_CALC02 "47.2506"
*CORR_POS_NODE_POS_CALC03 "56.0725"
*CORR_POS_NODE_POS_CALC04 "69.0822"
*CORR_POS_NODE_POS_CALC05 "76.3294"
*CORR_POS_NODE_POS_CALC06 "87.9853"
*CORR_POS_NODE_POS_CALC07 "94.9091"
*CORR_POS_NODE_POS_CALC08 "106.668"
*CORR_POS_NODE_POS_CALC09 "114.054"
*CORR_POS_NODE_POS_CALC10 "127.511"
*CORR_POS_NODE_POS_CALC11 "136.864"
*CORR_POS_NODE_POS_MEAS01 "28.5058"
*CORR_POS_NODE_POS_MEAS02 "47.345"
*CORR_POS_NODE_POS_MEAS03 "56.1421"
*CORR_POS_NODE_POS_MEAS04 "69.1304"
*CORR_POS_NODE_POS_MEAS05 "76.366"
*CORR_POS_NODE_POS_MEAS06 "88.0213"
*CORR_POS_NODE_POS_MEAS07 "94.9406"
*CORR_POS_NODE_POS_MEAS08 "106.689"
*CORR_POS_NODE_POS_MEAS09 "114.065"
*CORR_POS_NODE_POS_MEAS10 "127.518"
*CORR_POS_NODE_POS_MEAS11 "136.869"
*CORR_POS_OPT_ATTR "集中法"
*CORR_POS_PARAM_MU ""
*CORR_POS_PARAM_PL ""
*CORR_POS_SEMODEL_TYPE "0"
*CORR_POS_STANDARD_TYPE ""
*CORR_POS_VALUE_ANALYZER "None"
*CORR_POS_VALUE_CMONO "None"
*CORR_POS_VALUE_IMONO "None"
*CORR_POS_VALUE_IS "1.250deg"
*CORR_POS_VALUE_ISL "10.0mm"
*CORR_POS_VALUE_ISOLLER "5.0deg"
*CORR_POS_VALUE_RS1 "1.250deg"
*CORR_POS_VALUE_RS2 "0.3mm"
*CORR_POS_VALUE_RSOLLER "5.0deg"
*CORR_POS_XG_FOCUS_L ""
*CORR_POS_XG_WAVE_TYPE ""
*CORR_POS_XG_WAVE_VALUE ""
*DISP_FMT_X "%.2f"
*DISP_FMT_Y "%.0f"
*DISP_FULLSCALE "5458.8000000000"
*DISP_LINE_COLOR "255.0000000000"
*DISP_LINE_STYLE "0.0000000000"
*DISP_LINE_WIDTH "0.2500000000"
*DISP_NOTE "Collected Data-21"
*DISP_OFFSET_Y "0.0000000000"
*DISP_PEAKSEARCH_UNIT_Y "CPS"
*DISP_RANGE_BOTTOM "0.0000000000"
*DISP_RANGE_LEFT "5.0000000000"
*DISP_RANGE_LOGCUTOFF "0.0100000000"
*DISP_RANGE_RIGHT "65.0000000000"
*DISP_RANGE_TOP "5458.8000000000"
*DISP_SCALE_MODE_Y "0.0000000000"
*DISP_TAB_NAME "Theta/2-Theta"
*DISP_TITLE_Y "Intensity"
*DISP_UNIT_Y "CPS"
*DISP_WINDOW_NAME "MSG_MACROENGINE"
*FILE_COMMENT " "
*FILE_MD5 ""
*FILE_MEMO " "
*FILE_OPERATOR "Administrator"
*FILE_PART_ID "MEAS_PBEA_00223"
*FILE_SAMPLE " "
*FILE_TYPE "RAS_RAW"
*FILE_USERGROUP "System Manager"
*FILE_VERSION "1.0000000000"
*HW_ATTACHMENT_ID "ATT1031"
*HW_ATTACHMENT_NAME "6サンプルチェンジャ|ASC-6"
*HW_COUNTER_ID-0 "CUT0021"
*HW_COUNTER_ID-1 "CUT0020"
*HW_COUNTER_ID-2 "CUT0020"
*HW_COUNTER_ID-3 "CMC0021"
*HW_COUNTER_NAME-0 "SC-70|SC-70"
*HW_COUNTER_NAME-1 "None|None"
*HW_COUNTER_NAME-2 "None|None"
*HW_COUNTER_NAME-3 "検出器モノクロメータ|Detector monochromator"
*HW_COUNTER_SELECT_NAME "SC-70|SC-70"
*HW_ECP_HV "671.5000000000"
*HW_ECP_HV_UNIT "V"
*HW_GONIOMETER_ID "GON0070"
*HW_GONIOMETER_NAME "MiniFlex 300/600|MiniFlex 300/600"
*HW_GONIOMETER_RADIUS-0 "79.0"
*HW_GONIOMETER_RADIUS-1 "91.5"
*HW_GONIOMETER_RADIUS-2 "150.0"
*HW_GONIOMETER_RADIUS-3 "0"
*HW_GONIOMETER_RADIUS-4 "103.4"
*HW_GONIOMETER_RADIUS-5 "150.0"
*HW_GONIOMETER_RADIUS-6 "46.6"
*HW_GONIOMETER_RADIUS-7 "160.0"
*HW_I_OPT_ID-0 "ISL0021"
*HW_I_OPT_ID-1 "ISO0021"
*HW_I_OPT_NAME-0 "発散スリット|Divergence slit"
*HW_I_OPT_NAME-1 "入射平行スリット|Incident parallel slit"
*HW_R_ATTENUATER_AUTOMODE "0"
*HW_R_OPT_ID-0 "RSS0021"
*HW_R_OPT_ID-1 "RSO0021"
*HW_R_OPT_ID-2 "RRS0021"
*HW_R_OPT_NAME-0 "散乱スリット|Scattering slit"
*HW_R_OPT_NAME-1 "受光平行スリット|Receiving soller slit"
*HW_R_OPT_NAME-2 "受光スリット|Receiving slit"
*HW_SAMPLE_HOLDER_ID "SMP0000"
*HW_SAMPLE_HOLDER_NAME "無し|None"
*HW_XG_CURRENT_MAX "15"
*HW_XG_CURRENT_MIN "2"
*HW_XG_CURRENT_RESOLUTION "1"
*HW_XG_CURRENT_UNIT "mA"
*HW_XG_FOCUS "1mm x 10mm"
*HW_XG_FOCUS_TYPE "Normal"
*HW_XG_ID "1060"
*HW_XG_NAME "300W/600W 封入管-B|300W/600W Sealed tube-B"
*HW_XG_TARGET_ATOMIC_NUMBER "29.0000000000"
*HW_XG_TARGET_NAME "Cu"
*HW_XG_TYPE "Hermetic"
*HW_XG_VOLTAGE_MAX "40"
*HW_XG_VOLTAGE_MIN "20"
*HW_XG_VOLTAGE_RESOLUTION "1"
*HW_XG_VOLTAGE_UNIT "kV"
*HW_XG_WATT_MAX "0.600"
*HW_XG_WATT_UNIT "kW"
*HW_XG_WAVE_LENGTH_ALPHA1 "1.540593"
*HW_XG_WAVE_LENGTH_ALPHA2 "1.544414"
*HW_XG_WAVE_LENGTH_BETA "1.392250"
*MEAS_COND_AXIS_NAME-0 "Theta/2-Theta"
*MEAS_COND_AXIS_NAME-1 "Spin"
*MEAS_COND_AXIS_NAME-2 "Change"
*MEAS_COND_AXIS_NAME-3 "Soller(inc.)"
*MEAS_COND_AXIS_NAME-4 "IHS"
*MEAS_COND_AXIS_NAME-5 "DS"
*MEAS_COND_AXIS_NAME-6 "SS"
*MEAS_COND_AXIS_NAME-7 "Soller(rec.)"
*MEAS_COND_AXIS_NAME-8 "RS"
*MEAS_COND_AXIS_NAME-9 "Filter"
*MEAS_COND_AXIS_NAME-10 "Monochromator"
*MEAS_COND_AXIS_NAME-11 "HV"
*MEAS_COND_AXIS_NAME-12 "PHA"
*MEAS_COND_AXIS_NAME_INTERNAL-0 "TwoThetaTheta"
*MEAS_COND_AXIS_NAME_INTERNAL-1 "Spin"
*MEAS_COND_AXIS_NAME_INTERNAL-2 "Change"
*MEAS_COND_AXIS_NAME_INTERNAL-3 "IncidentSollerSlit"
*MEAS_COND_AXIS_NAME_INTERNAL-4 "IncidentAxdSlit"
*MEAS_COND_AXIS_NAME_INTERNAL-5 "IncidentSlitBox"
*MEAS_COND_AXIS_NAME_INTERNAL-6 "ReceivingSlitBox1"
*MEAS_COND_AXIS_NAME_INTERNAL-7 "ReceivingSollerSlit"
*MEAS_COND_AXIS_NAME_INTERNAL-8 "ReceivingSlitBox2"
*MEAS_COND_AXIS_NAME_INTERNAL-9 "Filter"
*MEAS_COND_AXIS_NAME_INTERNAL-10 "CounterMonochromator"
*MEAS_COND_AXIS_NAME_INTERNAL-11 "HV"
*MEAS_COND_AXIS_NAME_INTERNAL-12 "PHA"
*MEAS_COND_AXIS_NAME_MAGICNO-0 "268632064.0000000000"
*MEAS_COND_AXIS_NAME_MAGICNO-1 "16842752.0000000000"
*MEAS_COND_AXIS_NAME_MAGICNO-2 "16842752.0000000000"
*MEAS_COND_AXIS_NAME_MAGICNO-3 "20971521.0000000000"
*MEAS_COND_AXIS_NAME_MAGICNO-4 "22020097.0000000000"
*MEAS_COND_AXIS_NAME_MAGICNO-5 "22020097.0000000000"
*MEAS_COND_AXIS_NAME_MAGICNO-6 "23068673.0000000000"
*MEAS_COND_AXIS_NAME_MAGICNO-7 "20971521.0000000000"
*MEAS_COND_AXIS_NAME_MAGICNO-8 "23068673.0000000000"
*MEAS_COND_AXIS_NAME_MAGICNO-9 "20971521.0000000000"
*MEAS_COND_AXIS_NAME_MAGICNO-10 "20971521.0000000000"
*MEAS_COND_AXIS_NAME_MAGICNO-11 "0.0000000000"
*MEAS_COND_AXIS_NAME_MAGICNO-12 "0.0000000000"
*MEAS_COND_AXIS_OFFSET-0 "0.0000000000"
*MEAS_COND_AXIS_OFFSET-1 "-"
*MEAS_COND_AXIS_OFFSET-2 "-"
*MEAS_COND_AXIS_OFFSET-3 "-"
*MEAS_COND_AXIS_OFFSET-4 "-"
*MEAS_COND_AXIS_OFFSET-5 "-"
*MEAS_COND_AXIS_OFFSET-6 "-"
*MEAS_COND_AXIS_OFFSET-7 "-"
*MEAS_COND_AXIS_OFFSET-8 "-"
*MEAS_COND_AXIS_OFFSET-9 "-"
*MEAS_COND_AXIS_OFFSET-10 "-"
*MEAS_COND_AXIS_OFFSET-11 "-"
*MEAS_COND_AXIS_OFFSET-12 "-"
*MEAS_COND_AXIS_POSITION-0 "65.0000000000"
*MEAS_COND_AXIS_POSITION-1 "0.0000000000"
*MEAS_COND_AXIS_POSITION-2 "3.0000000000"
*MEAS_COND_AXIS_POSITION-3 "5.0deg"
*MEAS_COND_AXIS_POSITION-4 "10.0mm"
*MEAS_COND_AXIS_POSITION-5 "1.250deg"
*MEAS_COND_AXIS_POSITION-6 "1.250deg"
*MEAS_COND_AXIS_POSITION-7 "5.0deg"
*MEAS_COND_AXIS_POSITION-8 "0.3mm"
*MEAS_COND_AXIS_POSITION-9 "None"
*MEAS_COND_AXIS_POSITION-10 "Bent"
*MEAS_COND_AXIS_POSITION-11 "671.5000000000"
*MEAS_COND_AXIS_POSITION-12 "551.2500000000"
*MEAS_COND_AXIS_UNIT-0 "deg"
*MEAS_COND_AXIS_UNIT-1 ""
*MEAS_COND_AXIS_UNIT-2 ""
*MEAS_COND_AXIS_UNIT-3 ""
*MEAS_COND_AXIS_UNIT-4 ""
*MEAS_COND_AXIS_UNIT-5 ""
*MEAS_COND_AXIS_UNIT-6 ""
*MEAS_COND_AXIS_UNIT-7 ""
*MEAS_COND_AXIS_UNIT-8 ""
*MEAS_COND_AXIS_UNIT-9 ""
*MEAS_COND_AXIS_UNIT-10 ""
*MEAS_COND_AXIS_UNIT-11 "V"
*MEAS_COND_AXIS_UNIT-12 "mV"
*MEAS_COND_CORRECTION_SLIT_COUNTERMONO "None"
*MEAS_COND_CORRECTION_SLIT_DS "1.250deg"
*MEAS_COND_CORRECTION_SLIT_FILTER "None"
*MEAS_COND_CORRECTION_SLIT_IHS "10.0mm"
*MEAS_COND_CORRECTION_SLIT_RS "0.3mm"
*MEAS_COND_CORRECTION_SLIT_SOLLER_INC "5.0deg"
*MEAS_COND_CORRECTION_SLIT_SOLLER_REC "5.0deg"
*MEAS_COND_CORRECTION_SLIT_SS "1.250deg"
*MEAS_COND_COUNTER_CNTLOSS_CORR "0.0000000000"
*MEAS_COND_COUNTER_PHABASE "551.2500000000"
*MEAS_COND_COUNTER_PHAWINDOW "926.2500000000"
*MEAS_COND_COUNTER_PHA_UNIT "mV"
*MEAS_COND_COUNTER_TAUDIFF "0.2500000000"
*MEAS_COND_COUNTER_TAUINT "0.7500000000"
*MEAS_COND_IRRADIATION_MODE "OFF"
*MEAS_COND_IRRADIATION_WIDTH ""
*MEAS_COND_OPT_ATTR " "
*MEAS_COND_OPT_NAME ""
*MEAS_COND_UNSYMMETRIC_MODE "OFF"
*MEAS_COND_XG_CURRENT "15.0000000000"
*MEAS_COND_XG_VOLTAGE "40.0000000000"
*MEAS_COND_XG_WAVE_TYPE "Ka"
*MEAS_DATA_COUNT "3001.0000000000"
*MEAS_SCAN_AXIS_X "Theta/2-Theta"
*MEAS_SCAN_AXIS_X_INTERNAL "TwoThetaTheta"
*MEAS_SCAN_END_TIME "08/04/25 23:18:09"
*MEAS_SCAN_MODE "STEP"
*MEAS_SCAN_MONITOR "0"
*MEAS_SCAN_RESOLUTION_X "0.0025"
*MEAS_SCAN_SPEED "2.00"
*MEAS_SCAN_SPEED_UNIT "sec."
*MEAS_SCAN_SPEED_USER "2.00"
*MEAS_SCAN_START "5.0000000000"
*MEAS_SCAN_START_TIME "08/04/25 21:32:52"
*MEAS_SCAN_STEP "0.0200000000"
*MEAS_SCAN_STOP "65.0000000000"
*MEAS_SCAN_UNIT_X "deg"
*MEAS_SCAN_UNIT_Y "counts"
*SLIT_SYSTEM "0"
*RAS_HEADER_END
*RAS_INT_START
5.0000 907.0000 1.0000
5.0200 900.0000 1.0000
5.0400 956.0000 1.0000
5.0600 757.0000 1.0000
5.0800 904.0000 1.0000
5.1000 915.0000 1.0000
5.1200 897.0000 1.0000
5.1400 810.0000 1.0000
5.1600 865.0000 1.0000
5.1800 890.0000 1.0000
5.2000 883.0000 1.0000
5.2200 880.0000 1.0000
5.2400 898.0000 1.0000
5.2600 919.0000 1.0000
5.2800 835.0000 1.0000
5.3000 800.0000 1.0000
5.3200 867.0000 1.0000
5.3400 850.0000 1.0000
5.3600 829.0000 1.0000
5.3800 757.0000 1.0000
5.4000 823.0000 1.0000
5.4200 734.0000 1.0000
5.4400 783.0000 1.0000
5.4600 862.0000 1.0000
5.4800 811.0000 1.0000
5.5000 781.0000 1.0000
5.5200 829.0000 1.0000
5.5400 802.0000 1.0000
5.5600 813.0000 1.0000
5.5800 850.0000 1.0000
5.6000 827.0000 1.0000
5.6200 764.0000 1.0000
5.6400 821.0000 1.0000
5.6600 772.0000 1.0000
5.6800 759.0000 1.0000
5.7000 780.0000 1.0000
5.7200 793.0000 1.0000
5.7400 735.0000 1.0000
5.7600 755.0000 1.0000
5.7800 798.0000 1.0000
5.8000 792.0000 1.0000
5.8200 860.0000 1.0000
5.8400 927.0000 1.0000
5.8600 918.0000 1.0000
5.8800 912.0000 1.0000
5.9000 880.0000 1.0000
5.9200 858.0000 1.0000
5.9400 905.0000 1.0000
5.9600 862.0000 1.0000
5.9800 906.0000 1.0000
6.0000 884.0000 1.0000
6.0200 897.0000 1.0000
6.0400 909.0000 1.0000
6.0600 835.0000 1.0000
6.0800 817.0000 1.0000
6.1000 848.0000 1.0000
6.1200 778.0000 1.0000
6.1400 724.0000 1.0000
6.1600 716.0000 1.0000
6.1800 765.0000 1.0000
6.2000 762.0000 1.0000
6.2200 697.0000 1.0000
6.2400 694.0000 1.0000
6.2600 695.0000 1.0000
6.2800 720.0000 1.0000
6.3000 700.0000 1.0000
6.3200 650.0000 1.0000
6.3400 663.0000 1.0000
6.3600 681.0000 1.0000
6.3800 679.0000 1.0000
6.4000 648.0000 1.0000
6.4200 625.0000 1.0000
6.4400 626.0000 1.0000
6.4600 653.0000 1.0000
6.4800 634.0000 1.0000
6.5000 626.0000 1.0000
6.5200 627.0000 1.0000
6.5400 580.0000 1.0000
6.5600 572.0000 1.0000
6.5800 576.0000 1.0000
6.6000 563.0000 1.0000
6.6200 609.0000 1.0000
6.6400 619.0000 1.0000
6.6600 589.0000 1.0000
6.6800 565.0000 1.0000
6.7000 597.0000 1.0000
6.7200 592.0000 1.0000
6.7400 565.0000 1.0000
6.7600 566.0000 1.0000
6.7800 548.0000 1.0000
6.8000 577.0000 1.0000
6.8200 567.0000 1.0000
6.8400 519.0000 1.0000
6.8600 515.0000 1.0000
6.8800 524.0000 1.0000
6.9000 541.0000 1.0000
6.9200 540.0000 1.0000
6.9400 501.0000 1.0000
6.9600 494.0000 1.0000
6.9800 500.0000 1.0000
7.0000 483.0000 1.0000
7.0200 492.0000 1.0000
7.0400 507.0000 1.0000
7.0600 550.0000 1.0000
7.0800 565.0000 1.0000
7.1000 510.0000 1.0000
7.1200 501.0000 1.0000
7.1400 534.0000 1.0000
7.1600 519.0000 1.0000
7.1800 489.0000 1.0000
7.2000 496.0000 1.0000
7.2200 505.0000 1.0000
7.2400 490.0000 1.0000
7.2600 499.0000 1.0000
7.2800 521.0000 1.0000
7.3000 522.0000 1.0000
7.3200 531.0000 1.0000
7.3400 514.0000 1.0000
7.3600 482.0000 1.0000
7.3800 468.0000 1.0000
7.4000 490.0000 1.0000
7.4200 466.0000 1.0000
7.4400 457.0000 1.0000
7.4600 491.0000 1.0000
7.4800 482.0000 1.0000
7.5000 461.0000 1.0000
7.5200 467.0000 1.0000
7.5400 473.0000 1.0000
7.5600 452.0000 1.0000
7.5800 451.0000 1.0000
7.6000 484.0000 1.0000
7.6200 471.0000 1.0000
7.6400 462.0000 1.0000
7.6600 466.0000 1.0000
7.6800 445.0000 1.0000
7.7000 473.0000 1.0000
7.7200 520.0000 1.0000
7.7400 475.0000 1.0000
7.7600 457.0000 1.0000
7.7800 451.0000 1.0000
7.8000 457.0000 1.0000
7.8200 473.0000 1.0000
7.8400 477.0000 1.0000
7.8600 485.0000 1.0000
7.8800 429.0000 1.0000
7.9000 430.0000 1.0000
7.9200 467.0000 1.0000
7.9400 466.0000 1.0000
7.9600 458.0000 1.0000
7.9800 473.0000 1.0000
8.0000 446.0000 1.0000
8.0200 457.0000 1.0000
8.0400 467.0000 1.0000
8.0600 450.0000 1.0000
8.0800 435.0000 1.0000
8.1000 443.0000 1.0000
8.1200 439.0000 1.0000
8.1400 471.0000 1.0000
8.1600 495.0000 1.0000
8.1800 496.0000 1.0000
8.2000 504.0000 1.0000
8.2200 482.0000 1.0000
8.2400 499.0000 1.0000
8.2600 473.0000 1.0000
8.2800 528.0000 1.0000
8.3000 533.0000 1.0000
8.3200 543.0000 1.0000
8.3400 529.0000 1.0000
8.3600 523.0000 1.0000
8.3800 515.0000 1.0000
8.4000 525.0000 1.0000
8.4200 561.0000 1.0000
8.4400 578.0000 1.0000
8.4600 634.0000 1.0000
8.4800 650.0000 1.0000
8.5000 666.0000 1.0000
8.5200 656.0000 1.0000
8.5400 683.0000 1.0000
8.5600 744.0000 1.0000
8.5800 793.0000 1.0000
8.6000 739.0000 1.0000
8.6200 711.0000 1.0000
8.6400 714.0000 1.0000
8.6600 673.0000 1.0000
8.6800 547.0000 1.0000
8.7000 522.0000 1.0000
8.7200 429.0000 1.0000
8.7400 393.0000 1.0000
8.7600 392.0000 1.0000
8.7800 360.0000 1.0000
8.8000 350.0000 1.0000
8.8200 343.0000 1.0000
8.8400 313.0000 1.0000
8.8600 399.0000 1.0000
8.8800 347.0000 1.0000
8.9000 298.0000 1.0000
8.9200 306.0000 1.0000
8.9400 311.0000 1.0000
8.9600 292.0000 1.0000
8.9800 325.0000 1.0000
9.0000 307.0000 1.0000
9.0200 309.0000 1.0000
9.0400 329.0000 1.0000
9.0600 353.0000 1.0000
9.0800 317.0000 1.0000
9.1000 329.0000 1.0000
9.1200 311.0000 1.0000
9.1400 303.0000 1.0000
9.1600 328.0000 1.0000
9.1800 283.0000 1.0000
9.2000 333.0000 1.0000
9.2200 272.0000 1.0000
9.2400 305.0000 1.0000
9.2600 329.0000 1.0000
9.2800 322.0000 1.0000
9.3000 344.0000 1.0000
9.3200 311.0000 1.0000
9.3400 304.0000 1.0000
9.3600 295.0000 1.0000
9.3800 311.0000 1.0000
9.4000 320.0000 1.0000
9.4200 327.0000 1.0000
9.4400 313.0000 1.0000
9.4600 350.0000 1.0000
9.4800 380.0000 1.0000
9.5000 360.0000 1.0000
9.5200 347.0000 1.0000
9.5400 310.0000 1.0000
9.5600 364.0000 1.0000
9.5800 334.0000 1.0000
9.6000 325.0000 1.0000
9.6200 319.0000 1.0000
9.6400 266.0000 1.0000
9.6600 236.0000 1.0000
9.6800 292.0000 1.0000
9.7000 277.0000 1.0000
9.7200 292.0000 1.0000
9.7400 272.0000 1.0000
9.7600 274.0000 1.0000
9.7800 260.0000 1.0000
9.8000 263.0000 1.0000
9.8200 299.0000 1.0000
9.8400 306.0000 1.0000
9.8600 258.0000 1.0000
9.8800 274.0000 1.0000
9.9000 283.0000 1.0000
9.9200 305.0000 1.0000
9.9400 276.0000 1.0000
9.9600 238.0000 1.0000
9.9800 281.0000 1.0000
10.0000 284.0000 1.0000
10.0200 304.0000 1.0000
10.0400 276.0000 1.0000
10.0600 325.0000 1.0000
10.0800 289.0000 1.0000
10.1000 353.0000 1.0000
10.1200 345.0000 1.0000
10.1400 393.0000 1.0000
10.1600 357.0000 1.0000
10.1800 444.0000 1.0000
10.2000 506.0000 1.0000
10.2200 563.0000 1.0000
10.2400 666.0000 1.0000
10.2600 627.0000 1.0000
10.2800 607.0000 1.0000
10.3000 563.0000 1.0000
10.3200 449.0000 1.0000
10.3400 418.0000 1.0000
10.3600 318.0000 1.0000
10.3800 306.0000 1.0000
10.4000 219.0000 1.0000
10.4200 192.0000 1.0000
10.4400 217.0000 1.0000
10.4600 243.0000 1.0000
10.4800 225.0000 1.0000
10.5000 190.0000 1.0000
10.5200 222.0000 1.0000
10.5400 243.0000 1.0000
10.5600 241.0000 1.0000
10.5800 217.0000 1.0000
10.6000 210.0000 1.0000
10.6200 176.0000 1.0000
10.6400 228.0000 1.0000
10.6600 231.0000 1.0000
10.6800 193.0000 1.0000
10.7000 204.0000 1.0000
10.7200 206.0000 1.0000
10.7400 225.0000 1.0000
10.7600 203.0000 1.0000
10.7800 194.0000 1.0000
10.8000 235.0000 1.0000
10.8200 204.0000 1.0000
10.8400 240.0000 1.0000
10.8600 236.0000 1.0000
10.8800 237.0000 1.0000
10.9000 201.0000 1.0000
10.9200 187.0000 1.0000
10.9400 174.0000 1.0000
10.9600 239.0000 1.0000
10.9800 228.0000 1.0000
11.0000 240.0000 1.0000
11.0200 199.0000 1.0000
11.0400 237.0000 1.0000
11.0600 167.0000 1.0000
11.0800 174.0000 1.0000
11.1000 209.0000 1.0000
11.1200 212.0000 1.0000
11.1400 217.0000 1.0000
11.1600 204.0000 1.0000
11.1800 222.0000 1.0000
11.2000 170.0000 1.0000
11.2200 177.0000 1.0000
11.2400 216.0000 1.0000
11.2600 194.0000 1.0000
11.2800 222.0000 1.0000
11.3000 205.0000 1.0000
11.3200 147.0000 1.0000
11.3400 214.0000 1.0000
11.3600 173.0000 1.0000
11.3800 179.0000 1.0000
11.4000 203.0000 1.0000
11.4200 223.0000 1.0000
11.4400 185.0000 1.0000
11.4600 197.0000 1.0000
11.4800 207.0000 1.0000
11.5000 190.0000 1.0000
11.5200 182.0000 1.0000
11.5400 191.0000 1.0000
11.5600 217.0000 1.0000
11.5800 191.0000 1.0000
11.6000 181.0000 1.0000
11.6200 183.0000 1.0000
11.6400 206.0000 1.0000
11.6600 200.0000 1.0000
11.6800 199.0000 1.0000
11.7000 195.0000 1.0000
11.7200 188.0000 1.0000
11.7400 191.0000 1.0000
11.7600 200.0000 1.0000
11.7800 230.0000 1.0000
11.8000 236.0000 1.0000
11.8200 217.0000 1.0000
11.8400 223.0000 1.0000
11.8600 238.0000 1.0000
11.8800 246.0000 1.0000
11.9000 239.0000 1.0000
11.9200 215.0000 1.0000
11.9400 221.0000 1.0000
11.9600 233.0000 1.0000
11.9800 244.0000 1.0000
12.0000 259.0000 1.0000
12.0200 246.0000 1.0000
12.0400 263.0000 1.0000
12.0600 284.0000 1.0000
12.0800 300.0000 1.0000
12.1000 292.0000 1.0000
12.1200 327.0000 1.0000
12.1400 324.0000 1.0000
12.1600 352.0000 1.0000
12.1800 355.0000 1.0000
12.2000 383.0000 1.0000
12.2200 425.0000 1.0000
12.2400 390.0000 1.0000
12.2600 426.0000 1.0000
12.2800 433.0000 1.0000
12.3000 365.0000 1.0000
12.3200 343.0000 1.0000
12.3400 305.0000 1.0000
12.3600 292.0000 1.0000
12.3800 284.0000 1.0000
12.4000 268.0000 1.0000
12.4200 223.0000 1.0000
12.4400 203.0000 1.0000
12.4600 225.0000 1.0000
12.4800 198.0000 1.0000
12.5000 208.0000 1.0000
12.5200 202.0000 1.0000
12.5400 198.0000 1.0000
12.5600 194.0000 1.0000
12.5800 190.0000 1.0000
12.6000 181.0000 1.0000
12.6200 191.0000 1.0000
12.6400 184.0000 1.0000
12.6600 174.0000 1.0000
12.6800 168.0000 1.0000
12.7000 169.0000 1.0000
12.7200 174.0000 1.0000
12.7400 172.0000 1.0000
12.7600 164.0000 1.0000
12.7800 165.0000 1.0000
12.8000 158.0000 1.0000
12.8200 175.0000 1.0000
12.8400 176.0000 1.0000
12.8600 167.0000 1.0000
12.8800 145.0000 1.0000
12.9000 161.0000 1.0000
12.9200 165.0000 1.0000
12.9400 155.0000 1.0000
12.9600 150.0000 1.0000
12.9800 187.0000 1.0000
13.0000 199.0000 1.0000
13.0200 180.0000 1.0000
13.0400 164.0000 1.0000
13.0600 195.0000 1.0000
13.0800 199.0000 1.0000
13.1000 169.0000 1.0000
13.1200 177.0000 1.0000
13.1400 179.0000 1.0000
13.1600 156.0000 1.0000
13.1800 170.0000 1.0000
13.2000 164.0000 1.0000
13.2200 171.0000 1.0000
13.2400 194.0000 1.0000
13.2600 210.0000 1.0000
13.2800 187.0000 1.0000
13.3000 212.0000 1.0000
13.3200 226.0000 1.0000
13.3400 222.0000 1.0000
13.3600 242.0000 1.0000
13.3800 273.0000 1.0000
13.4000 265.0000 1.0000
13.4200 277.0000 1.0000
13.4400 299.0000 1.0000
13.4600 331.0000 1.0000
13.4800 319.0000 1.0000
13.5000 308.0000 1.0000
13.5200 321.0000 1.0000
13.5400 348.0000 1.0000
13.5600 366.0000 1.0000
13.5800 404.0000 1.0000
13.6000 451.0000 1.0000
13.6200 510.0000 1.0000
13.6400 495.0000 1.0000
13.6600 518.0000 1.0000
13.6800 542.0000 1.0000
13.7000 499.0000 1.0000
13.7200 447.0000 1.0000
13.7400 377.0000 1.0000
13.7600 291.0000 1.0000
13.7800 255.0000 1.0000
13.8000 235.0000 1.0000
13.8200 214.0000 1.0000
13.8400 200.0000 1.0000
13.8600 174.0000 1.0000
13.8800 160.0000 1.0000
13.9000 159.0000 1.0000
13.9200 143.0000 1.0000
13.9400 136.0000 1.0000
13.9600 153.0000 1.0000
13.9800 151.0000 1.0000
14.0000 131.0000 1.0000
14.0200 140.0000 1.0000
14.0400 157.0000 1.0000
14.0600 142.0000 1.0000
14.0800 133.0000 1.0000
14.1000 126.0000 1.0000
14.1200 122.0000 1.0000
14.1400 123.0000 1.0000
14.1600 127.0000 1.0000
14.1800 128.0000 1.0000
14.2000 136.0000 1.0000
14.2200 140.0000 1.0000
14.2400 145.0000 1.0000
14.2600 142.0000 1.0000
14.2800 136.0000 1.0000
14.3000 143.0000 1.0000
14.3200 140.0000 1.0000
14.3400 138.0000 1.0000
14.3600 139.0000 1.0000
14.3800 141.0000 1.0000
14.4000 142.0000 1.0000
14.4200 135.0000 1.0000
14.4400 130.0000 1.0000
14.4600 126.0000 1.0000
14.4800 131.0000 1.0000
14.5000 132.0000 1.0000
14.5200 128.0000 1.0000
14.5400 138.0000 1.0000
14.5600 144.0000 1.0000
14.5800 141.0000 1.0000
14.6000 147.0000 1.0000
14.6200 147.0000 1.0000
14.6400 164.0000 1.0000
14.6600 174.0000 1.0000
14.6800 164.0000 1.0000
14.7000 166.0000 1.0000
14.7200 183.0000 1.0000
14.7400 202.0000 1.0000
14.7600 189.0000 1.0000
14.7800 194.0000 1.0000
14.8000 220.0000 1.0000
14.8200 213.0000 1.0000
14.8400 196.0000 1.0000
14.8600 193.0000 1.0000
14.8800 189.0000 1.0000
14.9000 188.0000 1.0000
14.9200 178.0000 1.0000
14.9400 170.0000 1.0000
14.9600 179.0000 1.0000
14.9800 175.0000 1.0000
15.0000 161.0000 1.0000
15.0200 153.0000 1.0000
15.0400 144.0000 1.0000
15.0600 133.0000 1.0000
15.0800 132.0000 1.0000
15.1000 136.0000 1.0000
15.1200 126.0000 1.0000
15.1400 119.0000 1.0000
15.1600 136.0000 1.0000
15.1800 139.0000 1.0000
15.2000 123.0000 1.0000
15.2200 118.0000 1.0000
15.2400 134.0000 1.0000
15.2600 142.0000 1.0000
15.2800 129.0000 1.0000
15.3000 116.0000 1.0000
15.3200 127.0000 1.0000
15.3400 135.0000 1.0000
15.3600 137.0000 1.0000
15.3800 133.0000 1.0000
15.4000 130.0000 1.0000
15.4200 136.0000 1.0000
15.4400 133.0000 1.0000
15.4600 150.0000 1.0000
15.4800 150.0000 1.0000
15.5000 151.0000 1.0000
15.5200 169.0000 1.0000
15.5400 177.0000 1.0000
15.5600 178.0000 1.0000
15.5800 165.0000 1.0000
15.6000 176.0000 1.0000
15.6200 182.0000 1.0000
15.6400 153.0000 1.0000
15.6600 142.0000 1.0000
15.6800 145.0000 1.0000
15.7000 135.0000 1.0000
15.7200 122.0000 1.0000
15.7400 115.0000 1.0000
15.7600 124.0000 1.0000
15.7800 122.0000 1.0000
15.8000 113.0000 1.0000
15.8200 116.0000 1.0000
15.8400 119.0000 1.0000
15.8600 116.0000 1.0000
15.8800 113.0000 1.0000
15.9000 111.0000 1.0000
15.9200 114.0000 1.0000
15.9400 129.0000 1.0000
15.9600 121.0000 1.0000
15.9800 122.0000 1.0000
16.0000 114.0000 1.0000
16.0200 102.0000 1.0000
16.0400 105.0000 1.0000
16.0600 115.0000 1.0000
16.0800 115.0000 1.0000
16.1000 120.0000 1.0000
16.1200 127.0000 1.0000
16.1400 140.0000 1.0000
16.1600 125.0000 1.0000
16.1800 116.0000 1.0000
16.2000 124.0000 1.0000
16.2200 125.0000 1.0000
16.2400 116.0000 1.0000
16.2600 115.0000 1.0000
16.2800 123.0000 1.0000
16.3000 116.0000 1.0000
16.3200 124.0000 1.0000
16.3400 125.0000 1.0000
16.3600 121.0000 1.0000
16.3800 132.0000 1.0000
16.4000 117.0000 1.0000
16.4200 108.0000 1.0000
16.4400 109.0000 1.0000
16.4600 120.0000 1.0000
16.4800 136.0000 1.0000
16.5000 129.0000 1.0000
16.5200 130.0000 1.0000
16.5400 137.0000 1.0000
16.5600 128.0000 1.0000
16.5800 137.0000 1.0000
16.6000 139.0000 1.0000
16.6200 130.0000 1.0000
16.6400 143.0000 1.0000
16.6600 151.0000 1.0000
16.6800 143.0000 1.0000
16.7000 135.0000 1.0000
16.7200 133.0000 1.0000
16.7400 134.0000 1.0000
16.7600 134.0000 1.0000
16.7800 137.0000 1.0000
16.8000 125.0000 1.0000
16.8200 113.0000 1.0000
16.8400 116.0000 1.0000
16.8600 116.0000 1.0000
16.8800 125.0000 1.0000
16.9000 129.0000 1.0000
16.9200 126.0000 1.0000
16.9400 122.0000 1.0000
16.9600 110.0000 1.0000
16.9800 113.0000 1.0000
17.0000 101.0000 1.0000
17.0200 111.0000 1.0000
17.0400 124.0000 1.0000
17.0600 124.0000 1.0000
17.0800 135.0000 1.0000
17.1000 123.0000 1.0000
17.1200 107.0000 1.0000
17.1400 113.0000 1.0000
17.1600 128.0000 1.0000
17.1800 121.0000 1.0000
17.2000 132.0000 1.0000
17.2200 134.0000 1.0000
17.2400 140.0000 1.0000
17.2600 124.0000 1.0000
17.2800 124.0000 1.0000
17.3000 158.0000 1.0000
17.3200 144.0000 1.0000
17.3400 147.0000 1.0000
17.3600 171.0000 1.0000
17.3800 160.0000 1.0000
17.4000 152.0000 1.0000
17.4200 182.0000 1.0000
17.4400 196.0000 1.0000
17.4600 216.0000 1.0000
17.4800 207.0000 1.0000
17.5000 185.0000 1.0000
17.5200 169.0000 1.0000
17.5400 156.0000 1.0000
17.5600 184.0000 1.0000
17.5800 154.0000 1.0000
17.6000 126.0000 1.0000
17.6200 137.0000 1.0000
17.6400 136.0000 1.0000
17.6600 130.0000 1.0000
17.6800 141.0000 1.0000
17.7000 155.0000 1.0000
17.7200 134.0000 1.0000
17.7400 138.0000 1.0000
17.7600 135.0000 1.0000
17.7800 141.0000 1.0000
17.8000 142.0000 1.0000
17.8200 159.0000 1.0000
17.8400 145.0000 1.0000
17.8600 144.0000 1.0000
17.8800 153.0000 1.0000
17.9000 154.0000 1.0000
17.9200 145.0000 1.0000
17.9400 135.0000 1.0000
17.9600 137.0000 1.0000
17.9800 142.0000 1.0000
18.0000 131.0000 1.0000
18.0200 142.0000 1.0000
18.0400 124.0000 1.0000
18.0600 125.0000 1.0000
18.0800 124.0000 1.0000
18.1000 154.0000 1.0000
18.1200 156.0000 1.0000
18.1400 145.0000 1.0000
18.1600 128.0000 1.0000
18.1800 132.0000 1.0000
18.2000 136.0000 1.0000
18.2200 128.0000 1.0000
18.2400 149.0000 1.0000
18.2600 135.0000 1.0000
18.2800 117.0000 1.0000
18.3000 141.0000 1.0000
18.3200 132.0000 1.0000
18.3400 141.0000 1.0000
18.3600 149.0000 1.0000
18.3800 161.0000 1.0000
18.4000 152.0000 1.0000
18.4200 160.0000 1.0000
18.4400 154.0000 1.0000
18.4600 150.0000 1.0000
18.4800 163.0000 1.0000
18.5000 169.0000 1.0000
18.5200 161.0000 1.0000
18.5400 193.0000 1.0000
18.5600 193.0000 1.0000
18.5800 187.0000 1.0000
18.6000 183.0000 1.0000
18.6200 168.0000 1.0000
18.6400 162.0000 1.0000
18.6600 152.0000 1.0000
18.6800 147.0000 1.0000
18.7000 164.0000 1.0000
18.7200 152.0000 1.0000
18.7400 145.0000 1.0000
18.7600 178.0000 1.0000
18.7800 172.0000 1.0000
18.8000 184.0000 1.0000
18.8200 166.0000 1.0000
18.8400 149.0000 1.0000
18.8600 163.0000 1.0000
18.8800 160.0000 1.0000
18.9000 170.0000 1.0000
18.9200 209.0000 1.0000
18.9400 204.0000 1.0000
18.9600 210.0000 1.0000
18.9800 203.0000 1.0000
19.0000 178.0000 1.0000
19.0200 179.0000 1.0000
19.0400 184.0000 1.0000
19.0600 188.0000 1.0000
19.0800 177.0000 1.0000
19.1000 208.0000 1.0000
19.1200 165.0000 1.0000
19.1400 198.0000 1.0000
19.1600 169.0000 1.0000
19.1800 147.0000 1.0000
19.2000 133.0000 1.0000
19.2200 158.0000 1.0000
19.2400 143.0000 1.0000
19.2600 170.0000 1.0000
19.2800 170.0000 1.0000
19.3000 168.0000 1.0000
19.3200 144.0000 1.0000
19.3400 168.0000 1.0000
19.3600 167.0000 1.0000
19.3800 200.0000 1.0000
19.4000 170.0000 1.0000
19.4200 183.0000 1.0000
19.4400 188.0000 1.0000
19.4600 193.0000 1.0000
19.4800 164.0000 1.0000
19.5000 197.0000 1.0000
19.5200 194.0000 1.0000
19.5400 231.0000 1.0000
19.5600 206.0000 1.0000
19.5800 217.0000 1.0000
19.6000 194.0000 1.0000
19.6200 225.0000 1.0000
19.6400 195.0000 1.0000
19.6600 184.0000 1.0000
19.6800 195.0000 1.0000
19.7000 191.0000 1.0000
19.7200 201.0000 1.0000
19.7400 189.0000 1.0000
19.7600 175.0000 1.0000
19.7800 189.0000 1.0000
19.8000 178.0000 1.0000
19.8200 145.0000 1.0000
19.8400 158.0000 1.0000
19.8600 157.0000 1.0000
19.8800 138.0000 1.0000
19.9000 183.0000 1.0000
19.9200 143.0000 1.0000
19.9400 162.0000 1.0000
19.9600 161.0000 1.0000
19.9800 129.0000 1.0000
20.0000 149.0000 1.0000
20.0200 160.0000 1.0000
20.0400 145.0000 1.0000
20.0600 156.0000 1.0000
20.0800 178.0000 1.0000
20.1000 145.0000 1.0000
20.1200 164.0000 1.0000
20.1400 152.0000 1.0000
20.1600 163.0000 1.0000
20.1800 168.0000 1.0000
20.2000 171.0000 1.0000
20.2200 204.0000 1.0000
20.2400 211.0000 1.0000
20.2600 220.0000 1.0000
20.2800 208.0000 1.0000
20.3000 203.0000 1.0000
20.3200 207.0000 1.0000
20.3400 226.0000 1.0000
20.3600 262.0000 1.0000
20.3800 253.0000 1.0000
20.4000 268.0000 1.0000
20.4200 250.0000 1.0000
20.4400 311.0000 1.0000
20.4600 307.0000 1.0000
20.4800 376.0000 1.0000
20.5000 442.0000 1.0000
20.5200 493.0000 1.0000
20.5400 612.0000 1.0000
20.5600 733.0000 1.0000
20.5800 894.0000 1.0000
20.6000 1081.0000 1.0000
20.6200 1286.0000 1.0000
20.6400 1733.0000 1.0000
20.6600 1832.0000 1.0000
20.6800 1857.0000 1.0000
20.7000 1763.0000 1.0000
20.7200 1641.0000 1.0000
20.7400 1298.0000 1.0000
20.7600 997.0000 1.0000
20.7800 796.0000 1.0000
20.8000 604.0000 1.0000
20.8200 453.0000 1.0000
20.8400 486.0000 1.0000
20.8600 449.0000 1.0000
20.8800 417.0000 1.0000
20.9000 326.0000 1.0000
20.9200 313.0000 1.0000
20.9400 269.0000 1.0000
20.9600 272.0000 1.0000
20.9800 233.0000 1.0000
21.0000 231.0000 1.0000
21.0200 188.0000 1.0000
21.0400 188.0000 1.0000
21.0600 182.0000 1.0000
21.0800 208.0000 1.0000
21.1000 168.0000 1.0000
21.1200 175.0000 1.0000
21.1400 166.0000 1.0000
21.1600 155.0000 1.0000
21.1800 179.0000 1.0000
21.2000 184.0000 1.0000
21.2200 170.0000 1.0000
21.2400 190.0000 1.0000
21.2600 178.0000 1.0000
21.2800 180.0000 1.0000
21.3000 171.0000 1.0000
21.3200 161.0000 1.0000
21.3400 203.0000 1.0000
21.3600 169.0000 1.0000
21.3800 188.0000 1.0000
21.4000 203.0000 1.0000
21.4200 206.0000 1.0000
21.4400 206.0000 1.0000
21.4600 217.0000 1.0000
21.4800 226.0000 1.0000
21.5000 219.0000 1.0000
21.5200 262.0000 1.0000
21.5400 228.0000 1.0000
21.5600 257.0000 1.0000
21.5800 281.0000 1.0000
21.6000 311.0000 1.0000
21.6200 339.0000 1.0000
21.6400 353.0000 1.0000
21.6600 464.0000 1.0000
21.6800 488.0000 1.0000
21.7000 572.0000 1.0000
21.7200 672.0000 1.0000
21.7400 802.0000 1.0000
21.7600 961.0000 1.0000
21.7800 1105.0000 1.0000
21.8000 1242.0000 1.0000
21.8200 1279.0000 1.0000
21.8400 1280.0000 1.0000
21.8600 1200.0000 1.0000
21.8800 1011.0000 1.0000
21.9000 818.0000 1.0000
21.9200 701.0000 1.0000
21.9400 527.0000 1.0000
21.9600 399.0000 1.0000
21.9800 330.0000 1.0000
22.0000 294.0000 1.0000
22.0200 277.0000 1.0000
22.0400 266.0000 1.0000
22.0600 248.0000 1.0000
22.0800 246.0000 1.0000
22.1000 267.0000 1.0000
22.1200 243.0000 1.0000
22.1400 234.0000 1.0000
22.1600 231.0000 1.0000
22.1800 238.0000 1.0000
22.2000 235.0000 1.0000
22.2200 246.0000 1.0000
22.2400 227.0000 1.0000
22.2600 238.0000 1.0000
22.2800 212.0000 1.0000
22.3000 244.0000 1.0000
22.3200 219.0000 1.0000
22.3400 212.0000 1.0000
22.3600 255.0000 1.0000
22.3800 240.0000 1.0000
22.4000 201.0000 1.0000
22.4200 208.0000 1.0000
22.4400 196.0000 1.0000
22.4600 192.0000 1.0000
22.4800 174.0000 1.0000
22.5000 188.0000 1.0000
22.5200 206.0000 1.0000
22.5400 211.0000 1.0000
22.5600 214.0000 1.0000
22.5800 206.0000 1.0000
22.6000 198.0000 1.0000
22.6200 233.0000 1.0000
22.6400 262.0000 1.0000
22.6600 266.0000 1.0000
22.6800 301.0000 1.0000
22.7000 327.0000 1.0000
22.7200 365.0000 1.0000
22.7400 393.0000 1.0000
22.7600 379.0000 1.0000
22.7800 412.0000 1.0000
22.8000 417.0000 1.0000
22.8200 396.0000 1.0000
22.8400 402.0000 1.0000
22.8600 348.0000 1.0000
22.8800 327.0000 1.0000
22.9000 339.0000 1.0000
22.9200 291.0000 1.0000
22.9400 252.0000 1.0000
22.9600 260.0000 1.0000
22.9800 271.0000 1.0000
23.0000 262.0000 1.0000
23.0200 257.0000 1.0000
23.0400 281.0000 1.0000
23.0600 271.0000 1.0000
23.0800 281.0000 1.0000
23.1000 278.0000 1.0000
23.1200 295.0000 1.0000
23.1400 296.0000 1.0000
23.1600 319.0000 1.0000
23.1800 329.0000 1.0000
23.2000 351.0000 1.0000
23.2200 395.0000 1.0000
23.2400 420.0000 1.0000
23.2600 431.0000 1.0000
23.2800 512.0000 1.0000
23.3000 569.0000 1.0000
23.3200 640.0000 1.0000
23.3400 739.0000 1.0000
23.3600 759.0000 1.0000
23.3800 874.0000 1.0000
23.4000 888.0000 1.0000
23.4200 897.0000 1.0000
23.4400 862.0000 1.0000
23.4600 824.0000 1.0000
23.4800 728.0000 1.0000
23.5000 634.0000 1.0000
23.5200 526.0000 1.0000
23.5400 458.0000 1.0000
23.5600 401.0000 1.0000
23.5800 400.0000 1.0000
23.6000 417.0000 1.0000
23.6200 401.0000 1.0000
23.6400 423.0000 1.0000
23.6600 492.0000 1.0000
23.6800 518.0000 1.0000
23.7000 538.0000 1.0000
23.7200 551.0000 1.0000
23.7400 525.0000 1.0000
23.7600 560.0000 1.0000
23.7800 524.0000 1.0000
23.8000 510.0000 1.0000
23.8200 490.0000 1.0000
23.8400 478.0000 1.0000
23.8600 510.0000 1.0000
23.8800 504.0000 1.0000
23.9000 573.0000 1.0000
23.9200 625.0000 1.0000
23.9400 629.0000 1.0000
23.9600 676.0000 1.0000
23.9800 763.0000 1.0000
24.0000 826.0000 1.0000
24.0200 875.0000 1.0000
24.0400 889.0000 1.0000
24.0600 871.0000 1.0000
24.0800 894.0000 1.0000
24.1000 900.0000 1.0000
24.1200 894.0000 1.0000
24.1400 849.0000 1.0000
24.1600 752.0000 1.0000
24.1800 696.0000 1.0000
24.2000 593.0000 1.0000
24.2200 477.0000 1.0000
24.2400 430.0000 1.0000
24.2600 414.0000 1.0000
24.2800 366.0000 1.0000
24.3000 298.0000 1.0000
24.3200 290.0000 1.0000
24.3400 266.0000 1.0000
24.3600 251.0000 1.0000
24.3800 240.0000 1.0000
24.4000 244.0000 1.0000
24.4200 214.0000 1.0000
24.4400 222.0000 1.0000
24.4600 226.0000 1.0000
24.4800 231.0000 1.0000
24.5000 211.0000 1.0000
24.5200 210.0000 1.0000
24.5400 207.0000 1.0000
24.5600 224.0000 1.0000
24.5800 230.0000 1.0000
24.6000 223.0000 1.0000
24.6200 205.0000 1.0000
24.6400 204.0000 1.0000
24.6600 235.0000 1.0000
24.6800 216.0000 1.0000
24.7000 236.0000 1.0000
24.7200 236.0000 1.0000
24.7400 232.0000 1.0000
24.7600 241.0000 1.0000
24.7800 256.0000 1.0000
24.8000 271.0000 1.0000
24.8200 294.0000 1.0000
24.8400 271.0000 1.0000
24.8600 278.0000 1.0000
24.8800 310.0000 1.0000
24.9000 304.0000 1.0000
24.9200 320.0000 1.0000
24.9400 355.0000 1.0000
24.9600 350.0000 1.0000
24.9800 350.0000 1.0000
25.0000 349.0000 1.0000
25.0200 351.0000 1.0000
25.0400 333.0000 1.0000
25.0600 309.0000 1.0000
25.0800 332.0000 1.0000
25.1000 360.0000 1.0000
25.1200 363.0000 1.0000
25.1400 390.0000 1.0000
25.1600 419.0000 1.0000
25.1800 457.0000 1.0000
25.2000 495.0000 1.0000
25.2200 546.0000 1.0000
25.2400 670.0000 1.0000
25.2600 788.0000 1.0000
25.2800 936.0000 1.0000
25.3000 1111.0000 1.0000
25.3200 1318.0000 1.0000
25.3400 1497.0000 1.0000
25.3600 1635.0000 1.0000
25.3800 1746.0000 1.0000
25.4000 1808.0000 1.0000
25.4200 1764.0000 1.0000
25.4400 1600.0000 1.0000
25.4600 1354.0000 1.0000
25.4800 1145.0000 1.0000
25.5000 941.0000 1.0000
25.5200 748.0000 1.0000
25.5400 577.0000 1.0000
25.5600 470.0000 1.0000
25.5800 425.0000 1.0000
25.6000 352.0000 1.0000
25.6200 308.0000 1.0000
25.6400 310.0000 1.0000
25.6600 305.0000 1.0000
25.6800 286.0000 1.0000
25.7000 271.0000 1.0000
25.7200 266.0000 1.0000
25.7400 284.0000 1.0000
25.7600 306.0000 1.0000
25.7800 288.0000 1.0000
25.8000 270.0000 1.0000
25.8200 264.0000 1.0000
25.8400 266.0000 1.0000
25.8600 276.0000 1.0000
25.8800 304.0000 1.0000
25.9000 304.0000 1.0000
25.9200 330.0000 1.0000
25.9400 381.0000 1.0000
25.9600 404.0000 1.0000
25.9800 409.0000 1.0000
26.0000 420.0000 1.0000
26.0200 457.0000 1.0000
26.0400 498.0000 1.0000
26.0600 559.0000 1.0000
26.0800 595.0000 1.0000
26.1000 634.0000 1.0000
26.1200 715.0000 1.0000
26.1400 798.0000 1.0000
26.1600 863.0000 1.0000
26.1800 983.0000 1.0000
26.2000 1091.0000 1.0000
26.2200 1242.0000 1.0000
26.2400 1435.0000 1.0000
26.2600 1648.0000 1.0000
26.2800 1893.0000 1.0000
26.3000 2167.0000 1.0000
26.3200 2565.0000 1.0000
26.3400 3203.0000 1.0000
26.3600 4009.0000 1.0000
26.3800 5121.0000 1.0000
26.4000 6430.0000 1.0000
26.4200 7612.0000 1.0000
26.4400 8553.0000 1.0000
26.4600 9098.0000 1.0000
26.4800 8755.0000 1.0000
26.5000 7712.0000 1.0000
26.5200 6259.0000 1.0000
26.5400 4717.0000 1.0000
26.5600 3500.0000 1.0000
26.5800 2505.0000 1.0000
26.6000 1704.0000 1.0000
26.6200 1196.0000 1.0000
26.6400 947.0000 1.0000
26.6600 817.0000 1.0000
26.6800 757.0000 1.0000
26.7000 749.0000 1.0000
26.7200 708.0000 1.0000
26.7400 670.0000 1.0000
26.7600 689.0000 1.0000
26.7800 721.0000 1.0000
26.8000 714.0000 1.0000
26.8200 686.0000 1.0000
26.8400 695.0000 1.0000
26.8600 709.0000 1.0000
26.8800 729.0000 1.0000
26.9000 735.0000 1.0000
26.9200 701.0000 1.0000
26.9400 656.0000 1.0000
26.9600 618.0000 1.0000
26.9800 584.0000 1.0000
27.0000 547.0000 1.0000
27.0200 548.0000 1.0000
27.0400 545.0000 1.0000
27.0600 502.0000 1.0000
27.0800 481.0000 1.0000
27.1000 498.0000 1.0000
27.1200 522.0000 1.0000
27.1400 547.0000 1.0000
27.1600 581.0000 1.0000
27.1800 608.0000 1.0000
27.2000 652.0000 1.0000
27.2200 731.0000 1.0000
27.2400 843.0000 1.0000
27.2600 995.0000 1.0000
27.2800 1134.0000 1.0000
27.3000 1249.0000 1.0000
27.3200 1287.0000 1.0000
27.3400 1275.0000 1.0000
27.3600 1227.0000 1.0000
27.3800 1149.0000 1.0000
27.4000 1096.0000 1.0000
27.4200 1077.0000 1.0000
27.4400 1054.0000 1.0000
27.4600 1060.0000 1.0000
27.4800 1170.0000 1.0000
27.5000 1324.0000 1.0000
27.5200 1502.0000 1.0000
27.5400 1716.0000 1.0000
27.5600 1929.0000 1.0000
27.5800 2083.0000 1.0000
27.6000 2260.0000 1.0000
27.6200 2423.0000 1.0000
27.6400 2487.0000 1.0000
27.6600 2627.0000 1.0000
27.6800 2802.0000 1.0000
27.7000 2917.0000 1.0000
27.7200 3078.0000 1.0000
27.7400 3236.0000 1.0000
27.7600 3363.0000 1.0000
27.7800 3451.0000 1.0000
27.8000 3422.0000 1.0000
27.8200 3222.0000 1.0000
27.8400 2857.0000 1.0000
27.8600 2516.0000 1.0000
27.8800 2188.0000 1.0000
27.9000 1786.0000 1.0000
27.9200 1506.0000 1.0000
27.9400 1336.0000 1.0000
27.9600 1169.0000 1.0000
27.9800 1068.0000 1.0000
28.0000 1005.0000 1.0000
28.0200 960.0000 1.0000
28.0400 946.0000 1.0000
28.0600 912.0000 1.0000
28.0800 866.0000 1.0000
28.1000 835.0000 1.0000
28.1200 772.0000 1.0000
28.1400 753.0000 1.0000
28.1600 722.0000 1.0000
28.1800 619.0000 1.0000
28.2000 564.0000 1.0000
28.2200 521.0000 1.0000
28.2400 485.0000 1.0000
28.2600 445.0000 1.0000
28.2800 396.0000 1.0000
28.3000 363.0000 1.0000
28.3200 338.0000 1.0000
28.3400 311.0000 1.0000
28.3600 307.0000 1.0000
28.3800 278.0000 1.0000
28.4000 241.0000 1.0000
28.4200 234.0000 1.0000
28.4400 226.0000 1.0000
28.4600 213.0000 1.0000
28.4800 198.0000 1.0000
28.5000 192.0000 1.0000
28.5200 191.0000 1.0000
28.5400 176.0000 1.0000
28.5600 167.0000 1.0000
28.5800 155.0000 1.0000
28.6000 157.0000 1.0000
28.6200 167.0000 1.0000
28.6400 176.0000 1.0000
28.6600 179.0000 1.0000
28.6800 187.0000 1.0000
28.7000 200.0000 1.0000
28.7200 203.0000 1.0000
28.7400 224.0000 1.0000
28.7600 236.0000 1.0000
28.7800 236.0000 1.0000
28.8000 256.0000 1.0000
28.8200 268.0000 1.0000
28.8400 268.0000 1.0000
28.8600 277.0000 1.0000
28.8800 285.0000 1.0000
28.9000 284.0000 1.0000
28.9200 281.0000 1.0000
28.9400 305.0000 1.0000
28.9600 289.0000 1.0000
28.9800 277.0000 1.0000
29.0000 285.0000 1.0000
29.0200 254.0000 1.0000
29.0400 229.0000 1.0000
29.0600 213.0000 1.0000
29.0800 218.0000 1.0000
29.1000 209.0000 1.0000
29.1200 197.0000 1.0000
29.1400 198.0000 1.0000
29.1600 204.0000 1.0000
29.1800 202.0000 1.0000
29.2000 190.0000 1.0000
29.2200 192.0000 1.0000
29.2400 196.0000 1.0000
29.2600 214.0000 1.0000
29.2800 225.0000 1.0000
29.3000 224.0000 1.0000
29.3200 249.0000 1.0000
29.3400 241.0000 1.0000
29.3600 245.0000 1.0000
29.3800 240.0000 1.0000
29.4000 241.0000 1.0000
29.4200 253.0000 1.0000
29.4400 272.0000 1.0000
29.4600 291.0000 1.0000
29.4800 300.0000 1.0000
29.5000 332.0000 1.0000
29.5200 383.0000 1.0000
29.5400 421.0000 1.0000
29.5600 465.0000 1.0000
29.5800 485.0000 1.0000
29.6000 473.0000 1.0000
29.6200 481.0000 1.0000
29.6400 464.0000 1.0000
29.6600 461.0000 1.0000
29.6800 454.0000 1.0000
29.7000 449.0000 1.0000
29.7200 441.0000 1.0000
29.7400 432.0000 1.0000
29.7600 440.0000 1.0000
29.7800 467.0000 1.0000
29.8000 451.0000 1.0000
29.8200 465.0000 1.0000
29.8400 460.0000 1.0000
29.8600 451.0000 1.0000
29.8800 446.0000 1.0000
29.9000 457.0000 1.0000
29.9200 441.0000 1.0000
29.9400 426.0000 1.0000
29.9600 410.0000 1.0000
29.9800 387.0000 1.0000
30.0000 407.0000 1.0000
30.0200 432.0000 1.0000
30.0400 458.0000 1.0000
30.0600 468.0000 1.0000
30.0800 494.0000 1.0000
30.1000 497.0000 1.0000
30.1200 532.0000 1.0000
30.1400 572.0000 1.0000
30.1600 624.0000 1.0000
30.1800 685.0000 1.0000
30.2000 714.0000 1.0000
30.2200 724.0000 1.0000
30.2400 805.0000 1.0000
30.2600 789.0000 1.0000
30.2800 772.0000 1.0000
30.3000 729.0000 1.0000
30.3200 717.0000 1.0000
30.3400 647.0000 1.0000
30.3600 550.0000 1.0000
30.3800 504.0000 1.0000
30.4000 448.0000 1.0000
30.4200 367.0000 1.0000
30.4400 322.0000 1.0000
30.4600 310.0000 1.0000
30.4800 295.0000 1.0000
30.5000 285.0000 1.0000
30.5200 286.0000 1.0000
30.5400 308.0000 1.0000
30.5600 332.0000 1.0000
30.5800 340.0000 1.0000
30.6000 342.0000 1.0000
30.6200 392.0000 1.0000
30.6400 397.0000 1.0000
30.6600 360.0000 1.0000
30.6800 352.0000 1.0000
30.7000 297.0000 1.0000
30.7200 304.0000 1.0000
30.7400 281.0000 1.0000
30.7600 267.0000 1.0000
30.7800 257.0000 1.0000
30.8000 249.0000 1.0000
30.8200 221.0000 1.0000
30.8400 200.0000 1.0000
30.8600 195.0000 1.0000
30.8800 168.0000 1.0000
30.9000 175.0000 1.0000
30.9200 182.0000 1.0000
30.9400 186.0000 1.0000
30.9600 199.0000 1.0000
30.9800 210.0000 1.0000
31.0000 212.0000 1.0000
31.0200 236.0000 1.0000
31.0400 250.0000 1.0000
31.0600 256.0000 1.0000
31.0800 297.0000 1.0000
31.1000 307.0000 1.0000
31.1200 342.0000 1.0000
31.1400 375.0000 1.0000
31.1600 376.0000 1.0000
31.1800 389.0000 1.0000
31.2000 404.0000 1.0000
31.2200 407.0000 1.0000
31.2400 379.0000 1.0000
31.2600 366.0000 1.0000
31.2800 343.0000 1.0000
31.3000 288.0000 1.0000
31.3200 281.0000 1.0000
31.3400 275.0000 1.0000
31.3600 260.0000 1.0000
31.3800 254.0000 1.0000
31.4000 239.0000 1.0000
31.4200 211.0000 1.0000
31.4400 228.0000 1.0000
31.4600 242.0000 1.0000
31.4800 221.0000 1.0000
31.5000 213.0000 1.0000
31.5200 215.0000 1.0000
31.5400 218.0000 1.0000
31.5600 230.0000 1.0000
31.5800 239.0000 1.0000
31.6000 216.0000 1.0000
31.6200 216.0000 1.0000
31.6400 217.0000 1.0000
31.6600 200.0000 1.0000
31.6800 212.0000 1.0000
31.7000 209.0000 1.0000
31.7200 191.0000 1.0000
31.7400 217.0000 1.0000
31.7600 202.0000 1.0000
31.7800 178.0000 1.0000
31.8000 190.0000 1.0000
31.8200 172.0000 1.0000
31.8400 141.0000 1.0000
31.8600 156.0000 1.0000
31.8800 177.0000 1.0000
31.9000 177.0000 1.0000
31.9200 166.0000 1.0000
31.9400 158.0000 1.0000
31.9600 185.0000 1.0000
31.9800 176.0000 1.0000
32.0000 189.0000 1.0000
32.0200 198.0000 1.0000
32.0400 188.0000 1.0000
32.0600 196.0000 1.0000
32.0800 171.0000 1.0000
32.1000 170.0000 1.0000
32.1200 163.0000 1.0000
32.1400 181.0000 1.0000
32.1600 172.0000 1.0000
32.1800 171.0000 1.0000
32.2000 192.0000 1.0000
32.2200 162.0000 1.0000
32.2400 159.0000 1.0000
32.2600 168.0000 1.0000
32.2800 150.0000 1.0000
32.3000 146.0000 1.0000
32.3200 155.0000 1.0000
32.3400 157.0000 1.0000
32.3600 158.0000 1.0000
32.3800 142.0000 1.0000
32.4000 130.0000 1.0000
32.4200 139.0000 1.0000
32.4400 152.0000 1.0000
32.4600 144.0000 1.0000
32.4800 144.0000 1.0000
32.5000 126.0000 1.0000
32.5200 117.0000 1.0000
32.5400 122.0000 1.0000
32.5600 111.0000 1.0000
32.5800 135.0000 1.0000
32.6000 136.0000 1.0000
32.6200 112.0000 1.0000
32.6400 127.0000 1.0000
32.6600 135.0000 1.0000
32.6800 147.0000 1.0000
32.7000 175.0000 1.0000
32.7200 175.0000 1.0000
32.7400 190.0000 1.0000
32.7600 185.0000 1.0000
32.7800 176.0000 1.0000
32.8000 179.0000 1.0000
32.8200 169.0000 1.0000
32.8400 166.0000 1.0000
32.8600 182.0000 1.0000
32.8800 163.0000 1.0000
32.9000 151.0000 1.0000
32.9200 136.0000 1.0000
32.9400 163.0000 1.0000
32.9600 125.0000 1.0000
32.9800 136.0000 1.0000
33.0000 135.0000 1.0000
33.0200 147.0000 1.0000
33.0400 128.0000 1.0000
33.0600 124.0000 1.0000
33.0800 145.0000 1.0000
33.1000 143.0000 1.0000
33.1200 155.0000 1.0000
33.1400 161.0000 1.0000
33.1600 151.0000 1.0000
33.1800 135.0000 1.0000
33.2000 126.0000 1.0000
33.2200 141.0000 1.0000
33.2400 155.0000 1.0000
33.2600 150.0000 1.0000
33.2800 147.0000 1.0000
33.3000 141.0000 1.0000
33.3200 143.0000 1.0000
33.3400 150.0000 1.0000
33.3600 165.0000 1.0000
33.3800 141.0000 1.0000
33.4000 171.0000 1.0000
33.4200 153.0000 1.0000
33.4400 147.0000 1.0000
33.4600 153.0000 1.0000
33.4800 156.0000 1.0000
33.5000 163.0000 1.0000
33.5200 162.0000 1.0000
33.5400 187.0000 1.0000
33.5600 152.0000 1.0000
33.5800 211.0000 1.0000
33.6000 231.0000 1.0000
33.6200 224.0000 1.0000
33.6400 237.0000 1.0000
33.6600 257.0000 1.0000
33.6800 254.0000 1.0000
33.7000 269.0000 1.0000
33.7200 259.0000 1.0000
33.7400 264.0000 1.0000
33.7600 269.0000 1.0000
33.7800 251.0000 1.0000
33.8000 253.0000 1.0000
33.8200 216.0000 1.0000
33.8400 233.0000 1.0000
33.8600 231.0000 1.0000
33.8800 196.0000 1.0000
33.9000 194.0000 1.0000
33.9200 197.0000 1.0000
33.9400 173.0000 1.0000
33.9600 199.0000 1.0000
33.9800 191.0000 1.0000
34.0000 214.0000 1.0000
34.0200 214.0000 1.0000
34.0400 198.0000 1.0000
34.0600 225.0000 1.0000
34.0800 236.0000 1.0000
34.1000 226.0000 1.0000
34.1200 226.0000 1.0000
34.1400 266.0000 1.0000
34.1600 241.0000 1.0000
34.1800 268.0000 1.0000
34.2000 230.0000 1.0000
34.2200 285.0000 1.0000
34.2400 298.0000 1.0000
34.2600 282.0000 1.0000
34.2800 315.0000 1.0000
34.3000 292.0000 1.0000
34.3200 307.0000 1.0000
34.3400 295.0000 1.0000
34.3600 284.0000 1.0000
34.3800 280.0000 1.0000
34.4000 300.0000 1.0000
34.4200 299.0000 1.0000
34.4400 282.0000 1.0000
34.4600 291.0000 1.0000
34.4800 283.0000 1.0000
34.5000 279.0000 1.0000
34.5200 286.0000 1.0000
34.5400 269.0000 1.0000
34.5600 274.0000 1.0000
34.5800 280.0000 1.0000
34.6000 365.0000 1.0000
34.6200 325.0000 1.0000
34.6400 349.0000 1.0000
34.6600 337.0000 1.0000
34.6800 388.0000 1.0000
34.7000 398.0000 1.0000
34.7200 397.0000 1.0000
34.7400 444.0000 1.0000
34.7600 508.0000 1.0000
34.7800 587.0000 1.0000
34.8000 683.0000 1.0000
34.8200 784.0000 1.0000
34.8400 885.0000 1.0000
34.8600 1068.0000 1.0000
34.8800 1202.0000 1.0000
34.9000 1437.0000 1.0000
34.9200 1642.0000 1.0000
34.9400 1984.0000 1.0000
34.9600 2096.0000 1.0000
34.9800 2097.0000 1.0000
35.0000 2098.0000 1.0000
35.0200 1923.0000 1.0000
35.0400 1711.0000 1.0000
35.0600 1494.0000 1.0000
35.0800 1265.0000 1.0000
35.1000 1125.0000 1.0000
35.1200 919.0000 1.0000
35.1400 791.0000 1.0000
35.1600 632.0000 1.0000
35.1800 563.0000 1.0000
35.2000 570.0000 1.0000
35.2200 550.0000 1.0000
35.2400 536.0000 1.0000
35.2600 516.0000 1.0000
35.2800 449.0000 1.0000
35.3000 483.0000 1.0000
35.3200 428.0000 1.0000
35.3400 399.0000 1.0000
35.3600 364.0000 1.0000
35.3800 362.0000 1.0000
35.4000 329.0000 1.0000
35.4200 334.0000 1.0000
35.4400 314.0000 1.0000
35.4600 293.0000 1.0000
35.4800 299.0000 1.0000
35.5000 260.0000 1.0000
35.5200 261.0000 1.0000
35.5400 242.0000 1.0000
35.5600 258.0000 1.0000
35.5800 231.0000 1.0000
35.6000 241.0000 1.0000
35.6200 238.0000 1.0000
35.6400 215.0000 1.0000
35.6600 219.0000 1.0000
35.6800 214.0000 1.0000
35.7000 190.0000 1.0000
35.7200 213.0000 1.0000
35.7400 210.0000 1.0000
35.7600 204.0000 1.0000
35.7800 177.0000 1.0000
35.8000 179.0000 1.0000
35.8200 186.0000 1.0000
35.8400 178.0000 1.0000
35.8600 197.0000 1.0000
35.8800 207.0000 1.0000
35.9000 220.0000 1.0000
35.9200 235.0000 1.0000
35.9400 237.0000 1.0000
35.9600 217.0000 1.0000
35.9800 243.0000 1.0000
36.0000 250.0000 1.0000
36.0200 231.0000 1.0000
36.0400 217.0000 1.0000
36.0600 216.0000 1.0000
36.0800 220.0000 1.0000
36.1000 210.0000 1.0000
36.1200 214.0000 1.0000
36.1400 206.0000 1.0000
36.1600 234.0000 1.0000
36.1800 243.0000 1.0000
36.2000 288.0000 1.0000
36.2200 296.0000 1.0000
36.2400 339.0000 1.0000
36.2600 388.0000 1.0000
36.2800 482.0000 1.0000
36.3000 519.0000 1.0000
36.3200 643.0000 1.0000
36.3400 640.0000 1.0000
36.3600 785.0000 1.0000
36.3800 848.0000 1.0000
36.4000 825.0000 1.0000
36.4200 756.0000 1.0000
36.4400 678.0000 1.0000
36.4600 633.0000 1.0000
36.4800 551.0000 1.0000
36.5000 484.0000 1.0000
36.5200 425.0000 1.0000
36.5400 350.0000 1.0000
36.5600 306.0000 1.0000
36.5800 285.0000 1.0000
36.6000 253.0000 1.0000
36.6200 239.0000 1.0000
36.6400 238.0000 1.0000
36.6600 244.0000 1.0000
36.6800 265.0000 1.0000
36.7000 207.0000 1.0000
36.7200 241.0000 1.0000
36.7400 245.0000 1.0000
36.7600 231.0000 1.0000
36.7800 233.0000 1.0000
36.8000 247.0000 1.0000
36.8200 243.0000 1.0000
36.8400 258.0000 1.0000
36.8600 264.0000 1.0000
36.8800 259.0000 1.0000
36.9000 253.0000 1.0000
36.9200 253.0000 1.0000
36.9400 209.0000 1.0000
36.9600 221.0000 1.0000
36.9800 222.0000 1.0000
37.0000 207.0000 1.0000
37.0200 205.0000 1.0000
37.0400 211.0000 1.0000
37.0600 202.0000 1.0000
37.0800 203.0000 1.0000
37.1000 213.0000 1.0000
37.1200 207.0000 1.0000
37.1400 228.0000 1.0000
37.1600 229.0000 1.0000
37.1800 235.0000 1.0000
37.2000 241.0000 1.0000
37.2200 270.0000 1.0000
37.2400 285.0000 1.0000
37.2600 294.0000 1.0000
37.2800 300.0000 1.0000
37.3000 291.0000 1.0000
37.3200 304.0000 1.0000
37.3400 320.0000 1.0000
37.3600 321.0000 1.0000
37.3800 319.0000 1.0000
37.4000 310.0000 1.0000
37.4200 330.0000 1.0000
37.4400 364.0000 1.0000
37.4600 424.0000 1.0000
37.4800 462.0000 1.0000
37.5000 522.0000 1.0000
37.5200 598.0000 1.0000
37.5400 697.0000 1.0000
37.5600 775.0000 1.0000
37.5800 805.0000 1.0000
37.6000 846.0000 1.0000
37.6200 873.0000 1.0000
37.6400 780.0000 1.0000
37.6600 720.0000 1.0000
37.6800 620.0000 1.0000
37.7000 510.0000 1.0000
37.7200 448.0000 1.0000
37.7400 393.0000 1.0000
37.7600 326.0000 1.0000
37.7800 255.0000 1.0000
37.8000 219.0000 1.0000
37.8200 195.0000 1.0000
37.8400 180.0000 1.0000
37.8600 173.0000 1.0000
37.8800 175.0000 1.0000
37.9000 186.0000 1.0000
37.9200 206.0000 1.0000
37.9400 204.0000 1.0000
37.9600 181.0000 1.0000
37.9800 173.0000 1.0000
38.0000 195.0000 1.0000
38.0200 189.0000 1.0000
38.0400 179.0000 1.0000
38.0600 191.0000 1.0000
38.0800 181.0000 1.0000
38.1000 171.0000 1.0000
38.1200 169.0000 1.0000
38.1400 175.0000 1.0000
38.1600 172.0000 1.0000
38.1800 158.0000 1.0000
38.2000 162.0000 1.0000
38.2200 174.0000 1.0000
38.2400 173.0000 1.0000
38.2600 163.0000 1.0000
38.2800 178.0000 1.0000
38.3000 171.0000 1.0000
38.3200 172.0000 1.0000
38.3400 182.0000 1.0000
38.3600 196.0000 1.0000
38.3800 189.0000 1.0000
38.4000 177.0000 1.0000
38.4200 183.0000 1.0000
38.4400 193.0000 1.0000
38.4600 184.0000 1.0000
38.4800 181.0000 1.0000
38.5000 169.0000 1.0000
38.5200 176.0000 1.0000
38.5400 182.0000 1.0000
38.5600 187.0000 1.0000
38.5800 167.0000 1.0000
38.6000 178.0000 1.0000
38.6200 180.0000 1.0000
38.6400 185.0000 1.0000
38.6600 182.0000 1.0000
38.6800 196.0000 1.0000
38.7000 216.0000 1.0000
38.7200 194.0000 1.0000
38.7400 185.0000 1.0000
38.7600 186.0000 1.0000
38.7800 227.0000 1.0000
38.8000 238.0000 1.0000
38.8200 205.0000 1.0000
38.8400 217.0000 1.0000
38.8600 211.0000 1.0000
38.8800 206.0000 1.0000
38.9000 205.0000 1.0000
38.9200 201.0000 1.0000
38.9400 202.0000 1.0000
38.9600 204.0000 1.0000
38.9800 201.0000 1.0000
39.0000 205.0000 1.0000
39.0200 194.0000 1.0000
39.0400 185.0000 1.0000
39.0600 203.0000 1.0000
39.0800 201.0000 1.0000
39.1000 202.0000 1.0000
39.1200 223.0000 1.0000
39.1400 236.0000 1.0000
39.1600 255.0000 1.0000
39.1800 295.0000 1.0000
39.2000 353.0000 1.0000
39.2200 413.0000 1.0000
39.2400 470.0000 1.0000
39.2600 548.0000 1.0000
39.2800 633.0000 1.0000
39.3000 661.0000 1.0000
39.3200 624.0000 1.0000
39.3400 586.0000 1.0000
39.3600 549.0000 1.0000
39.3800 462.0000 1.0000
39.4000 408.0000 1.0000
39.4200 371.0000 1.0000
39.4400 340.0000 1.0000
39.4600 313.0000 1.0000
39.4800 265.0000 1.0000
39.5000 226.0000 1.0000
39.5200 203.0000 1.0000
39.5400 178.0000 1.0000
39.5600 172.0000 1.0000
39.5800 176.0000 1.0000
39.6000 170.0000 1.0000
39.6200 164.0000 1.0000
39.6400 160.0000 1.0000
39.6600 156.0000 1.0000
39.6800 157.0000 1.0000
39.7000 155.0000 1.0000
39.7200 147.0000 1.0000
39.7400 153.0000 1.0000
39.7600 145.0000 1.0000
39.7800 136.0000 1.0000
39.8000 141.0000 1.0000
39.8200 139.0000 1.0000
39.8400 144.0000 1.0000
39.8600 149.0000 1.0000
39.8800 146.0000 1.0000
39.9000 137.0000 1.0000
39.9200 152.0000 1.0000
39.9400 169.0000 1.0000
39.9600 169.0000 1.0000
39.9800 178.0000 1.0000
40.0000 183.0000 1.0000
40.0200 202.0000 1.0000
40.0400 256.0000 1.0000
40.0600 290.0000 1.0000
40.0800 330.0000 1.0000
40.1000 372.0000 1.0000
40.1200 375.0000 1.0000
40.1400 345.0000 1.0000
40.1600 330.0000 1.0000
40.1800 322.0000 1.0000
40.2000 293.0000 1.0000
40.2200 272.0000 1.0000
40.2400 256.0000 1.0000
40.2600 220.0000 1.0000
40.2800 172.0000 1.0000
40.3000 159.0000 1.0000
40.3200 165.0000 1.0000
40.3400 152.0000 1.0000
40.3600 135.0000 1.0000
40.3800 138.0000 1.0000
40.4000 138.0000 1.0000
40.4200 124.0000 1.0000
40.4400 135.0000 1.0000
40.4600 135.0000 1.0000
40.4800 132.0000 1.0000
40.5000 142.0000 1.0000
40.5200 141.0000 1.0000
40.5400 140.0000 1.0000
40.5600 133.0000 1.0000
40.5800 142.0000 1.0000
40.6000 147.0000 1.0000
40.6200 155.0000 1.0000
40.6400 161.0000 1.0000
40.6600 150.0000 1.0000
40.6800 150.0000 1.0000
40.7000 142.0000 1.0000
40.7200 142.0000 1.0000
40.7400 152.0000 1.0000
40.7600 149.0000 1.0000
40.7800 150.0000 1.0000
40.8000 152.0000 1.0000
40.8200 154.0000 1.0000
40.8400 152.0000 1.0000
40.8600 161.0000 1.0000
40.8800 167.0000 1.0000
40.9000 165.0000 1.0000
40.9200 162.0000 1.0000
40.9400 159.0000 1.0000
40.9600 157.0000 1.0000
40.9800 145.0000 1.0000
41.0000 150.0000 1.0000
41.0200 166.0000 1.0000
41.0400 169.0000 1.0000
41.0600 167.0000 1.0000
41.0800 170.0000 1.0000
41.1000 162.0000 1.0000
41.1200 148.0000 1.0000
41.1400 145.0000 1.0000
41.1600 157.0000 1.0000
41.1800 150.0000 1.0000
41.2000 141.0000 1.0000
41.2200 145.0000 1.0000
41.2400 149.0000 1.0000
41.2600 157.0000 1.0000
41.2800 150.0000 1.0000
41.3000 140.0000 1.0000
41.3200 138.0000 1.0000
41.3400 149.0000 1.0000
41.3600 163.0000 1.0000
41.3800 167.0000 1.0000
41.4000 172.0000 1.0000
41.4200 173.0000 1.0000
41.4400 182.0000 1.0000
41.4600 186.0000 1.0000
41.4800 204.0000 1.0000
41.5000 233.0000 1.0000
41.5200 233.0000 1.0000
41.5400 225.0000 1.0000
41.5600 250.0000 1.0000
41.5800 273.0000 1.0000
41.6000 268.0000 1.0000
41.6200 261.0000 1.0000
41.6400 272.0000 1.0000
41.6600 265.0000 1.0000
41.6800 264.0000 1.0000
41.7000 240.0000 1.0000
41.7200 223.0000 1.0000
41.7400 220.0000 1.0000
41.7600 208.0000 1.0000
41.7800 185.0000 1.0000
41.8000 184.0000 1.0000
41.8200 177.0000 1.0000
41.8400 174.0000 1.0000
41.8600 183.0000 1.0000
41.8800 163.0000 1.0000
41.9000 153.0000 1.0000
41.9200 161.0000 1.0000
41.9400 168.0000 1.0000
41.9600 165.0000 1.0000
41.9800 170.0000 1.0000
42.0000 197.0000 1.0000
42.0200 198.0000 1.0000
42.0400 202.0000 1.0000
42.0600 213.0000 1.0000
42.0800 245.0000 1.0000
42.1000 277.0000 1.0000
42.1200 297.0000 1.0000
42.1400 315.0000 1.0000
42.1600 355.0000 1.0000
42.1800 390.0000 1.0000
42.2000 464.0000 1.0000
42.2200 520.0000 1.0000
42.2400 548.0000 1.0000
42.2600 590.0000 1.0000
42.2800 613.0000 1.0000
42.3000 593.0000 1.0000
42.3200 564.0000 1.0000
42.3400 528.0000 1.0000
42.3600 479.0000 1.0000
42.3800 459.0000 1.0000
42.4000 429.0000 1.0000
42.4200 382.0000 1.0000
42.4400 345.0000 1.0000
42.4600 317.0000 1.0000
42.4800 285.0000 1.0000
42.5000 246.0000 1.0000
42.5200 243.0000 1.0000
42.5400 255.0000 1.0000
42.5600 242.0000 1.0000
42.5800 259.0000 1.0000
42.6000 294.0000 1.0000
42.6200 295.0000 1.0000
42.6400 298.0000 1.0000
42.6600 314.0000 1.0000
42.6800 299.0000 1.0000
42.7000 294.0000 1.0000
42.7200 300.0000 1.0000
42.7400 295.0000 1.0000
42.7600 314.0000 1.0000
42.7800 297.0000 1.0000
42.8000 283.0000 1.0000
42.8200 296.0000 1.0000
42.8400 272.0000 1.0000
42.8600 273.0000 1.0000
42.8800 271.0000 1.0000
42.9000 259.0000 1.0000
42.9200 282.0000 1.0000
42.9400 287.0000 1.0000
42.9600 325.0000 1.0000
42.9800 353.0000 1.0000
43.0000 412.0000 1.0000
43.0200 471.0000 1.0000
43.0400 517.0000 1.0000
43.0600 627.0000 1.0000
43.0800 827.0000 1.0000
43.1000 1029.0000 1.0000
43.1200 1269.0000 1.0000
43.1400 1489.0000 1.0000
43.1600 1705.0000 1.0000
43.1800 1859.0000 1.0000
43.2000 1857.0000 1.0000
43.2200 1774.0000 1.0000
43.2400 1609.0000 1.0000
43.2600 1390.0000 1.0000
43.2800 1275.0000 1.0000
43.3000 1117.0000 1.0000
43.3200 942.0000 1.0000
43.3400 786.0000 1.0000
43.3600 655.0000 1.0000
43.3800 500.0000 1.0000
43.4000 395.0000 1.0000
43.4200 311.0000 1.0000
43.4400 265.0000 1.0000
43.4600 231.0000 1.0000
43.4800 227.0000 1.0000
43.5000 222.0000 1.0000
43.5200 225.0000 1.0000
43.5400 193.0000 1.0000
43.5600 210.0000 1.0000
43.5800 200.0000 1.0000
43.6000 196.0000 1.0000
43.6200 197.0000 1.0000
43.6400 174.0000 1.0000
43.6600 164.0000 1.0000
43.6800 183.0000 1.0000
43.7000 165.0000 1.0000
43.7200 169.0000 1.0000
43.7400 152.0000 1.0000
43.7600 145.0000 1.0000
43.7800 147.0000 1.0000
43.8000 141.0000 1.0000
43.8200 132.0000 1.0000
43.8400 128.0000 1.0000
43.8600 138.0000 1.0000
43.8800 156.0000 1.0000
43.9000 147.0000 1.0000
43.9200 150.0000 1.0000
43.9400 142.0000 1.0000
43.9600 146.0000 1.0000
43.9800 157.0000 1.0000
44.0000 142.0000 1.0000
44.0200 135.0000 1.0000
44.0400 141.0000 1.0000
44.0600 147.0000 1.0000
44.0800 145.0000 1.0000
44.1000 136.0000 1.0000
44.1200 137.0000 1.0000
44.1400 135.0000 1.0000
44.1600 121.0000 1.0000
44.1800 127.0000 1.0000
44.2000 140.0000 1.0000
44.2200 134.0000 1.0000
44.2400 112.0000 1.0000
44.2600 131.0000 1.0000
44.2800 120.0000 1.0000
44.3000 150.0000 1.0000
44.3200 141.0000 1.0000
44.3400 131.0000 1.0000
44.3600 132.0000 1.0000
44.3800 124.0000 1.0000
44.4000 128.0000 1.0000
44.4200 115.0000 1.0000
44.4400 154.0000 1.0000
44.4600 132.0000 1.0000
44.4800 158.0000 1.0000
44.5000 150.0000 1.0000
44.5200 132.0000 1.0000
44.5400 152.0000 1.0000
44.5600 184.0000 1.0000
44.5800 160.0000 1.0000
44.6000 139.0000 1.0000
44.6200 189.0000 1.0000
44.6400 187.0000 1.0000
44.6600 178.0000 1.0000
44.6800 182.0000 1.0000
44.7000 192.0000 1.0000
44.7200 162.0000 1.0000
44.7400 165.0000 1.0000
44.7600 163.0000 1.0000
44.7800 180.0000 1.0000
44.8000 175.0000 1.0000
44.8200 168.0000 1.0000
44.8400 172.0000 1.0000
44.8600 176.0000 1.0000
44.8800 197.0000 1.0000
44.9000 192.0000 1.0000
44.9200 192.0000 1.0000
44.9400 207.0000 1.0000
44.9600 194.0000 1.0000
44.9800 195.0000 1.0000
45.0000 199.0000 1.0000
45.0200 192.0000 1.0000
45.0400 225.0000 1.0000
45.0600 187.0000 1.0000
45.0800 214.0000 1.0000
45.1000 214.0000 1.0000
45.1200 215.0000 1.0000
45.1400 192.0000 1.0000
45.1600 194.0000 1.0000
45.1800 191.0000 1.0000
45.2000 206.0000 1.0000
45.2200 200.0000 1.0000
45.2400 159.0000 1.0000
45.2600 205.0000 1.0000
45.2800 207.0000 1.0000
45.3000 194.0000 1.0000
45.3200 173.0000 1.0000
45.3400 202.0000 1.0000
45.3600 207.0000 1.0000
45.3800 175.0000 1.0000
45.4000 197.0000 1.0000
45.4200 211.0000 1.0000
45.4400 214.0000 1.0000
45.4600 237.0000 1.0000
45.4800 231.0000 1.0000
45.5000 240.0000 1.0000
45.5200 260.0000 1.0000
45.5400 313.0000 1.0000
45.5600 334.0000 1.0000
45.5800 389.0000 1.0000
45.6000 406.0000 1.0000
45.6200 426.0000 1.0000
45.6400 423.0000 1.0000
45.6600 370.0000 1.0000
45.6800 421.0000 1.0000
45.7000 382.0000 1.0000
45.7200 349.0000 1.0000
45.7400 298.0000 1.0000
45.7600 297.0000 1.0000
45.7800 260.0000 1.0000
45.8000 231.0000 1.0000
45.8200 206.0000 1.0000
45.8400 186.0000 1.0000
45.8600 168.0000 1.0000
45.8800 169.0000 1.0000
45.9000 168.0000 1.0000
45.9200 154.0000 1.0000
45.9400 178.0000 1.0000
45.9600 168.0000 1.0000
45.9800 172.0000 1.0000
46.0000 175.0000 1.0000
46.0200 161.0000 1.0000
46.0400 145.0000 1.0000
46.0600 152.0000 1.0000
46.0800 158.0000 1.0000
46.1000 150.0000 1.0000
46.1200 153.0000 1.0000
46.1400 161.0000 1.0000
46.1600 150.0000 1.0000
46.1800 128.0000 1.0000
46.2000 126.0000 1.0000
46.2200 130.0000 1.0000
46.2400 111.0000 1.0000
46.2600 114.0000 1.0000
46.2800 115.0000 1.0000
46.3000 99.0000 1.0000
46.3200 99.0000 1.0000
46.3400 123.0000 1.0000
46.3600 106.0000 1.0000
46.3800 110.0000 1.0000
46.4000 117.0000 1.0000
46.4200 119.0000 1.0000
46.4400 122.0000 1.0000
46.4600 125.0000 1.0000
46.4800 136.0000 1.0000
46.5000 125.0000 1.0000
46.5200 111.0000 1.0000
46.5400 123.0000 1.0000
46.5600 118.0000 1.0000
46.5800 127.0000 1.0000
46.6000 147.0000 1.0000
46.6200 135.0000 1.0000
46.6400 136.0000 1.0000
46.6600 153.0000 1.0000
46.6800 155.0000 1.0000
46.7000 167.0000 1.0000
46.7200 152.0000 1.0000
46.7400 167.0000 1.0000
46.7600 158.0000 1.0000
46.7800 167.0000 1.0000
46.8000 180.0000 1.0000
46.8200 156.0000 1.0000
46.8400 164.0000 1.0000
46.8600 157.0000 1.0000
46.8800 174.0000 1.0000
46.9000 159.0000 1.0000
46.9200 164.0000 1.0000
46.9400 153.0000 1.0000
46.9600 172.0000 1.0000
46.9800 149.0000 1.0000
47.0000 142.0000 1.0000
47.0200 154.0000 1.0000
47.0400 156.0000 1.0000
47.0600 159.0000 1.0000
47.0800 151.0000 1.0000
47.1000 129.0000 1.0000
47.1200 142.0000 1.0000
47.1400 137.0000 1.0000
47.1600 138.0000 1.0000
47.1800 135.0000 1.0000
47.2000 132.0000 1.0000
47.2200 133.0000 1.0000
47.2400 156.0000 1.0000
47.2600 158.0000 1.0000
47.2800 137.0000 1.0000
47.3000 155.0000 1.0000
47.3200 166.0000 1.0000
47.3400 160.0000 1.0000
47.3600 147.0000 1.0000
47.3800 136.0000 1.0000
47.4000 150.0000 1.0000
47.4200 146.0000 1.0000
47.4400 144.0000 1.0000
47.4600 154.0000 1.0000
47.4800 155.0000 1.0000
47.5000 136.0000 1.0000
47.5200 140.0000 1.0000
47.5400 138.0000 1.0000
47.5600 144.0000 1.0000
47.5800 142.0000 1.0000
47.6000 146.0000 1.0000
47.6200 145.0000 1.0000
47.6400 140.0000 1.0000
47.6600 149.0000 1.0000
47.6800 149.0000 1.0000
47.7000 149.0000 1.0000
47.7200 148.0000 1.0000
47.7400 138.0000 1.0000
47.7600 137.0000 1.0000
47.7800 138.0000 1.0000
47.8000 138.0000 1.0000
47.8200 128.0000 1.0000
47.8400 142.0000 1.0000
47.8600 141.0000 1.0000
47.8800 134.0000 1.0000
47.9000 143.0000 1.0000
47.9200 143.0000 1.0000
47.9400 149.0000 1.0000
47.9600 156.0000 1.0000
47.9800 158.0000 1.0000
48.0000 176.0000 1.0000
48.0200 174.0000 1.0000
48.0400 193.0000 1.0000
48.0600 200.0000 1.0000
48.0800 204.0000 1.0000
48.1000 214.0000 1.0000
48.1200 241.0000 1.0000
48.1400 250.0000 1.0000
48.1600 230.0000 1.0000
48.1800 230.0000 1.0000
48.2000 221.0000 1.0000
48.2200 208.0000 1.0000
48.2400 188.0000 1.0000
48.2600 183.0000 1.0000
48.2800 183.0000 1.0000
48.3000 155.0000 1.0000
48.3200 153.0000 1.0000
48.3400 165.0000 1.0000
48.3600 159.0000 1.0000
48.3800 147.0000 1.0000
48.4000 132.0000 1.0000
48.4200 131.0000 1.0000
48.4400 135.0000 1.0000
48.4600 133.0000 1.0000
48.4800 128.0000 1.0000
48.5000 129.0000 1.0000
48.5200 133.0000 1.0000
48.5400 124.0000 1.0000
48.5600 129.0000 1.0000
48.5800 143.0000 1.0000
48.6000 139.0000 1.0000
48.6200 132.0000 1.0000
48.6400 134.0000 1.0000
48.6600 136.0000 1.0000
48.6800 149.0000 1.0000
48.7000 158.0000 1.0000
48.7200 154.0000 1.0000
48.7400 162.0000 1.0000
48.7600 159.0000 1.0000
48.7800 154.0000 1.0000
48.8000 173.0000 1.0000
48.8200 181.0000 1.0000
48.8400 186.0000 1.0000
48.8600 188.0000 1.0000
48.8800 183.0000 1.0000
48.9000 182.0000 1.0000
48.9200 174.0000 1.0000
48.9400 193.0000 1.0000
48.9600 217.0000 1.0000
48.9800 230.0000 1.0000
49.0000 238.0000 1.0000
49.0200 232.0000 1.0000
49.0400 242.0000 1.0000
49.0600 249.0000 1.0000
49.0800 231.0000 1.0000
49.1000 205.0000 1.0000
49.1200 199.0000 1.0000
49.1400 211.0000 1.0000
49.1600 207.0000 1.0000
49.1800 210.0000 1.0000
49.2000 201.0000 1.0000
49.2200 194.0000 1.0000
49.2400 172.0000 1.0000
49.2600 175.0000 1.0000
49.2800 196.0000 1.0000
49.3000 180.0000 1.0000
49.3200 178.0000 1.0000
49.3400 196.0000 1.0000
49.3600 212.0000 1.0000
49.3800 220.0000 1.0000
49.4000 205.0000 1.0000
49.4200 193.0000 1.0000
49.4400 215.0000 1.0000
49.4600 220.0000 1.0000
49.4800 232.0000 1.0000
49.5000 244.0000 1.0000
49.5200 253.0000 1.0000
49.5400 263.0000 1.0000
49.5600 287.0000 1.0000
49.5800 318.0000 1.0000
49.6000 324.0000 1.0000
49.6200 353.0000 1.0000
49.6400 351.0000 1.0000
49.6600 348.0000 1.0000
49.6800 367.0000 1.0000
49.7000 408.0000 1.0000
49.7200 433.0000 1.0000
49.7400 415.0000 1.0000
49.7600 413.0000 1.0000
49.7800 441.0000 1.0000
49.8000 442.0000 1.0000
49.8200 447.0000 1.0000
49.8400 485.0000 1.0000
49.8600 511.0000 1.0000
49.8800 597.0000 1.0000
49.9000 692.0000 1.0000
49.9200 825.0000 1.0000
49.9400 979.0000 1.0000
49.9600 1043.0000 1.0000
49.9800 1033.0000 1.0000
50.0000 1013.0000 1.0000
50.0200 947.0000 1.0000
50.0400 851.0000 1.0000
50.0600 755.0000 1.0000
50.0800 691.0000 1.0000
50.1000 615.0000 1.0000
50.1200 579.0000 1.0000
50.1400 538.0000 1.0000
50.1600 467.0000 1.0000
50.1800 379.0000 1.0000
50.2000 308.0000 1.0000
50.2200 260.0000 1.0000
50.2400 237.0000 1.0000
50.2600 227.0000 1.0000
50.2800 221.0000 1.0000
50.3000 220.0000 1.0000
50.3200 228.0000 1.0000
50.3400 240.0000 1.0000
50.3600 272.0000 1.0000
50.3800 270.0000 1.0000
50.4000 297.0000 1.0000
50.4200 327.0000 1.0000
50.4400 352.0000 1.0000
50.4600 362.0000 1.0000
50.4800 371.0000 1.0000
50.5000 390.0000 1.0000
50.5200 357.0000 1.0000
50.5400 360.0000 1.0000
50.5600 376.0000 1.0000
50.5800 372.0000 1.0000
50.6000 362.0000 1.0000
50.6200 356.0000 1.0000
50.6400 323.0000 1.0000
50.6600 294.0000 1.0000
50.6800 276.0000 1.0000
50.7000 252.0000 1.0000
50.7200 256.0000 1.0000
50.7400 232.0000 1.0000
50.7600 211.0000 1.0000
50.7800 201.0000 1.0000
50.8000 204.0000 1.0000
50.8200 184.0000 1.0000
50.8400 169.0000 1.0000
50.8600 175.0000 1.0000
50.8800 158.0000 1.0000
50.9000 201.0000 1.0000
50.9200 215.0000 1.0000
50.9400 202.0000 1.0000
50.9600 228.0000 1.0000
50.9800 236.0000 1.0000
51.0000 250.0000 1.0000
51.0200 267.0000 1.0000
51.0400 287.0000 1.0000
51.0600 307.0000 1.0000
51.0800 318.0000 1.0000
51.1000 328.0000 1.0000
51.1200 334.0000 1.0000
51.1400 328.0000 1.0000
51.1600 369.0000 1.0000
51.1800 333.0000 1.0000
51.2000 295.0000 1.0000
51.2200 302.0000 1.0000
51.2400 308.0000 1.0000
51.2600 294.0000 1.0000
51.2800 281.0000 1.0000
51.3000 273.0000 1.0000
51.3200 250.0000 1.0000
51.3400 238.0000 1.0000
51.3600 220.0000 1.0000
51.3800 232.0000 1.0000
51.4000 209.0000 1.0000
51.4200 225.0000 1.0000
51.4400 179.0000 1.0000
51.4600 191.0000 1.0000
51.4800 188.0000 1.0000
51.5000 189.0000 1.0000
51.5200 186.0000 1.0000
51.5400 170.0000 1.0000
51.5600 169.0000 1.0000
51.5800 178.0000 1.0000
51.6000 176.0000 1.0000
51.6200 154.0000 1.0000
51.6400 150.0000 1.0000
51.6600 144.0000 1.0000
51.6800 149.0000 1.0000
51.7000 146.0000 1.0000
51.7200 159.0000 1.0000
51.7400 133.0000 1.0000
51.7600 135.0000 1.0000
51.7800 124.0000 1.0000
51.8000 133.0000 1.0000
51.8200 147.0000 1.0000
51.8400 131.0000 1.0000
51.8600 130.0000 1.0000
51.8800 142.0000 1.0000
51.9000 132.0000 1.0000
51.9200 142.0000 1.0000
51.9400 138.0000 1.0000
51.9600 165.0000 1.0000
51.9800 177.0000 1.0000
52.0000 196.0000 1.0000
52.0200 180.0000 1.0000
52.0400 192.0000 1.0000
52.0600 196.0000 1.0000
52.0800 220.0000 1.0000
52.1000 225.0000 1.0000
52.1200 199.0000 1.0000
52.1400 222.0000 1.0000
52.1600 230.0000 1.0000
52.1800 264.0000 1.0000
52.2000 234.0000 1.0000
52.2200 259.0000 1.0000
52.2400 271.0000 1.0000
52.2600 343.0000 1.0000
52.2800 394.0000 1.0000
52.3000 445.0000 1.0000
52.3200 543.0000 1.0000
52.3400 678.0000 1.0000
52.3600 703.0000 1.0000
52.3800 872.0000 1.0000
52.4000 856.0000 1.0000
52.4200 846.0000 1.0000
52.4400 811.0000 1.0000
52.4600 788.0000 1.0000
52.4800 716.0000 1.0000
52.5000 629.0000 1.0000
52.5200 603.0000 1.0000
52.5400 598.0000 1.0000
52.5600 521.0000 1.0000
52.5800 479.0000 1.0000
52.6000 408.0000 1.0000
52.6200 351.0000 1.0000
52.6400 293.0000 1.0000
52.6600 265.0000 1.0000
52.6800 241.0000 1.0000
52.7000 225.0000 1.0000
52.7200 223.0000 1.0000
52.7400 218.0000 1.0000
52.7600 193.0000 1.0000
52.7800 226.0000 1.0000
52.8000 200.0000 1.0000
52.8200 201.0000 1.0000
52.8400 212.0000 1.0000
52.8600 190.0000 1.0000
52.8800 204.0000 1.0000
52.9000 206.0000 1.0000
52.9200 214.0000 1.0000
52.9400 219.0000 1.0000
52.9600 187.0000 1.0000
52.9800 206.0000 1.0000
53.0000 244.0000 1.0000
53.0200 206.0000 1.0000
53.0400 197.0000 1.0000
53.0600 188.0000 1.0000
53.0800 197.0000 1.0000
53.1000 202.0000 1.0000
53.1200 194.0000 1.0000
53.1400 183.0000 1.0000
53.1600 200.0000 1.0000
53.1800 183.0000 1.0000
53.2000 171.0000 1.0000
53.2200 167.0000 1.0000
53.2400 178.0000 1.0000
53.2600 177.0000 1.0000
53.2800 152.0000 1.0000
53.3000 182.0000 1.0000
53.3200 163.0000 1.0000
53.3400 150.0000 1.0000
53.3600 145.0000 1.0000
53.3800 143.0000 1.0000
53.4000 141.0000 1.0000
53.4200 144.0000 1.0000
53.4400 138.0000 1.0000
53.4600 143.0000 1.0000
53.4800 142.0000 1.0000
53.5000 130.0000 1.0000
53.5200 151.0000 1.0000
53.5400 124.0000 1.0000
53.5600 134.0000 1.0000
53.5800 128.0000 1.0000
53.6000 137.0000 1.0000
53.6200 146.0000 1.0000
53.6400 136.0000 1.0000
53.6600 143.0000 1.0000
53.6800 139.0000 1.0000
53.7000 154.0000 1.0000
53.7200 144.0000 1.0000
53.7400 147.0000 1.0000
53.7600 140.0000 1.0000
53.7800 142.0000 1.0000
53.8000 135.0000 1.0000
53.8200 147.0000 1.0000
53.8400 131.0000 1.0000
53.8600 151.0000 1.0000
53.8800 170.0000 1.0000
53.9000 194.0000 1.0000
53.9200 165.0000 1.0000
53.9400 150.0000 1.0000
53.9600 137.0000 1.0000
53.9800 139.0000 1.0000
54.0000 148.0000 1.0000
54.0200 158.0000 1.0000
54.0400 162.0000 1.0000
54.0600 156.0000 1.0000
54.0800 168.0000 1.0000
54.1000 164.0000 1.0000
54.1200 159.0000 1.0000
54.1400 149.0000 1.0000
54.1600 150.0000 1.0000
54.1800 153.0000 1.0000
54.2000 154.0000 1.0000
54.2200 177.0000 1.0000
54.2400 182.0000 1.0000
54.2600 160.0000 1.0000
54.2800 171.0000 1.0000
54.3000 176.0000 1.0000
54.3200 188.0000 1.0000
54.3400 178.0000 1.0000
54.3600 160.0000 1.0000
54.3800 178.0000 1.0000
54.4000 173.0000 1.0000
54.4200 160.0000 1.0000
54.4400 152.0000 1.0000
54.4600 138.0000 1.0000
54.4800 152.0000 1.0000
54.5000 163.0000 1.0000
54.5200 161.0000 1.0000
54.5400 163.0000 1.0000
54.5600 185.0000 1.0000
54.5800 177.0000 1.0000
54.6000 195.0000 1.0000
54.6200 226.0000 1.0000
54.6400 255.0000 1.0000
54.6600 316.0000 1.0000
54.6800 368.0000 1.0000
54.7000 389.0000 1.0000
54.7200 385.0000 1.0000
54.7400 379.0000 1.0000
54.7600 370.0000 1.0000
54.7800 366.0000 1.0000
54.8000 318.0000 1.0000
54.8200 279.0000 1.0000
54.8400 286.0000 1.0000
54.8600 316.0000 1.0000
54.8800 288.0000 1.0000
54.9000 265.0000 1.0000
54.9200 252.0000 1.0000
54.9400 231.0000 1.0000
54.9600 204.0000 1.0000
54.9800 199.0000 1.0000
55.0000 200.0000 1.0000
55.0200 215.0000 1.0000
55.0400 219.0000 1.0000
55.0600 198.0000 1.0000
55.0800 193.0000 1.0000
55.1000 214.0000 1.0000
55.1200 246.0000 1.0000
55.1400 269.0000 1.0000
55.1600 267.0000 1.0000
55.1800 256.0000 1.0000
55.2000 257.0000 1.0000
55.2200 257.0000 1.0000
55.2400 247.0000 1.0000
55.2600 235.0000 1.0000
55.2800 227.0000 1.0000
55.3000 222.0000 1.0000
55.3200 216.0000 1.0000
55.3400 226.0000 1.0000
55.3600 214.0000 1.0000
55.3800 197.0000 1.0000
55.4000 194.0000 1.0000
55.4200 178.0000 1.0000
55.4400 169.0000 1.0000
55.4600 154.0000 1.0000
55.4800 140.0000 1.0000
55.5000 152.0000 1.0000
55.5200 154.0000 1.0000
55.5400 150.0000 1.0000
55.5600 153.0000 1.0000
55.5800 140.0000 1.0000
55.6000 143.0000 1.0000
55.6200 149.0000 1.0000
55.6400 146.0000 1.0000
55.6600 144.0000 1.0000
55.6800 143.0000 1.0000
55.7000 157.0000 1.0000
55.7200 162.0000 1.0000
55.7400 153.0000 1.0000
55.7600 148.0000 1.0000
55.7800 146.0000 1.0000
55.8000 154.0000 1.0000
55.8200 153.0000 1.0000
55.8400 153.0000 1.0000
55.8600 148.0000 1.0000
55.8800 139.0000 1.0000
55.9000 139.0000 1.0000
55.9200 139.0000 1.0000
55.9400 152.0000 1.0000
55.9600 157.0000 1.0000
55.9800 153.0000 1.0000
56.0000 158.0000 1.0000
56.0200 155.0000 1.0000
56.0400 143.0000 1.0000
56.0600 140.0000 1.0000
56.0800 142.0000 1.0000
56.1000 147.0000 1.0000
56.1200 162.0000 1.0000
56.1400 160.0000 1.0000
56.1600 147.0000 1.0000
56.1800 140.0000 1.0000
56.2000 131.0000 1.0000
56.2200 132.0000 1.0000
56.2400 124.0000 1.0000
56.2600 124.0000 1.0000
56.2800 135.0000 1.0000
56.3000 134.0000 1.0000
56.3200 146.0000 1.0000
56.3400 139.0000 1.0000
56.3600 134.0000 1.0000
56.3800 143.0000 1.0000
56.4000 141.0000 1.0000
56.4200 143.0000 1.0000
56.4400 142.0000 1.0000
56.4600 146.0000 1.0000
56.4800 140.0000 1.0000
56.5000 122.0000 1.0000
56.5200 137.0000 1.0000
56.5400 154.0000 1.0000
56.5600 141.0000 1.0000
56.5800 148.0000 1.0000
56.6000 151.0000 1.0000
56.6200 148.0000 1.0000
56.6400 153.0000 1.0000
56.6600 152.0000 1.0000
56.6800 145.0000 1.0000
56.7000 149.0000 1.0000
56.7200 141.0000 1.0000
56.7400 148.0000 1.0000
56.7600 156.0000 1.0000
56.7800 140.0000 1.0000
56.8000 142.0000 1.0000
56.8200 147.0000 1.0000
56.8400 141.0000 1.0000
56.8600 142.0000 1.0000
56.8800 161.0000 1.0000
56.9000 165.0000 1.0000
56.9200 169.0000 1.0000
56.9400 166.0000 1.0000
56.9600 168.0000 1.0000
56.9800 178.0000 1.0000
57.0000 183.0000 1.0000
57.0200 193.0000 1.0000
57.0400 211.0000 1.0000
57.0600 210.0000 1.0000
57.0800 214.0000 1.0000
57.1000 218.0000 1.0000
57.1200 226.0000 1.0000
57.1400 277.0000 1.0000
57.1600 329.0000 1.0000
57.1800 364.0000 1.0000
57.2000 413.0000 1.0000
57.2200 504.0000 1.0000
57.2400 625.0000 1.0000
57.2600 786.0000 1.0000
57.2800 987.0000 1.0000
57.3000 1188.0000 1.0000
57.3200 1375.0000 1.0000
57.3400 1546.0000 1.0000
57.3600 1556.0000 1.0000
57.3800 1462.0000 1.0000
57.4000 1294.0000 1.0000
57.4200 1174.0000 1.0000
57.4400 1044.0000 1.0000
57.4600 1002.0000 1.0000
57.4800 953.0000 1.0000
57.5000 913.0000 1.0000
57.5200 867.0000 1.0000
57.5400 780.0000 1.0000
57.5600 686.0000 1.0000
57.5800 532.0000 1.0000
57.6000 402.0000 1.0000
57.6200 348.0000 1.0000
57.6400 279.0000 1.0000
57.6600 269.0000 1.0000
57.6800 236.0000 1.0000
57.7000 209.0000 1.0000
57.7200 214.0000 1.0000
57.7400 232.0000 1.0000
57.7600 203.0000 1.0000
57.7800 191.0000 1.0000
57.8000 203.0000 1.0000
57.8200 180.0000 1.0000
57.8400 184.0000 1.0000
57.8600 178.0000 1.0000
57.8800 176.0000 1.0000
57.9000 154.0000 1.0000
57.9200 171.0000 1.0000
57.9400 163.0000 1.0000
57.9600 154.0000 1.0000
57.9800 160.0000 1.0000
58.0000 161.0000 1.0000
58.0200 165.0000 1.0000
58.0400 137.0000 1.0000
58.0600 146.0000 1.0000
58.0800 136.0000 1.0000
58.1000 120.0000 1.0000
58.1200 138.0000 1.0000
58.1400 144.0000 1.0000
58.1600 147.0000 1.0000
58.1800 163.0000 1.0000
58.2000 158.0000 1.0000
58.2200 152.0000 1.0000
58.2400 145.0000 1.0000
58.2600 156.0000 1.0000
58.2800 170.0000 1.0000
58.3000 159.0000 1.0000
58.3200 170.0000 1.0000
58.3400 191.0000 1.0000
58.3600 169.0000 1.0000
58.3800 159.0000 1.0000
58.4000 174.0000 1.0000
58.4200 179.0000 1.0000
58.4400 204.0000 1.0000
58.4600 193.0000 1.0000
58.4800 204.0000 1.0000
58.5000 196.0000 1.0000
58.5200 199.0000 1.0000
58.5400 201.0000 1.0000
58.5600 201.0000 1.0000
58.5800 209.0000 1.0000
58.6000 220.0000 1.0000
58.6200 195.0000 1.0000
58.6400 180.0000 1.0000
58.6600 195.0000 1.0000
58.6800 176.0000 1.0000
58.7000 182.0000 1.0000
58.7200 172.0000 1.0000
58.7400 159.0000 1.0000
58.7600 165.0000 1.0000
58.7800 146.0000 1.0000
58.8000 138.0000 1.0000
58.8200 138.0000 1.0000
58.8400 150.0000 1.0000
58.8600 141.0000 1.0000
58.8800 144.0000 1.0000
58.9000 136.0000 1.0000
58.9200 127.0000 1.0000
58.9400 127.0000 1.0000
58.9600 157.0000 1.0000
58.9800 151.0000 1.0000
59.0000 129.0000 1.0000
59.0200 133.0000 1.0000
59.0400 143.0000 1.0000
59.0600 168.0000 1.0000
59.0800 145.0000 1.0000
59.1000 140.0000 1.0000
59.1200 140.0000 1.0000
59.1400 120.0000 1.0000
59.1600 122.0000 1.0000
59.1800 156.0000 1.0000
59.2000 154.0000 1.0000
59.2200 131.0000 1.0000
59.2400 161.0000 1.0000
59.2600 159.0000 1.0000
59.2800 139.0000 1.0000
59.3000 154.0000 1.0000
59.3200 172.0000 1.0000
59.3400 153.0000 1.0000
59.3600 170.0000 1.0000
59.3800 155.0000 1.0000
59.4000 142.0000 1.0000
59.4200 148.0000 1.0000
59.4400 186.0000 1.0000
59.4600 187.0000 1.0000
59.4800 212.0000 1.0000
59.5000 200.0000 1.0000
59.5200 196.0000 1.0000
59.5400 220.0000 1.0000
59.5600 227.0000 1.0000
59.5800 237.0000 1.0000
59.6000 237.0000 1.0000
59.6200 259.0000 1.0000
59.6400 298.0000 1.0000
59.6600 313.0000 1.0000
59.6800 334.0000 1.0000
59.7000 375.0000 1.0000
59.7200 445.0000 1.0000
59.7400 491.0000 1.0000
59.7600 594.0000 1.0000
59.7800 729.0000 1.0000
59.8000 743.0000 1.0000
59.8200 781.0000 1.0000
59.8400 707.0000 1.0000
59.8600 671.0000 1.0000
59.8800 573.0000 1.0000
59.9000 479.0000 1.0000
59.9200 471.0000 1.0000
59.9400 488.0000 1.0000
59.9600 482.0000 1.0000
59.9800 462.0000 1.0000
60.0000 423.0000 1.0000
60.0200 375.0000 1.0000
60.0400 354.0000 1.0000
60.0600 342.0000 1.0000
60.0800 269.0000 1.0000
60.1000 261.0000 1.0000
60.1200 218.0000 1.0000
60.1400 216.0000 1.0000
60.1600 237.0000 1.0000
60.1800 179.0000 1.0000
60.2000 210.0000 1.0000
60.2200 216.0000 1.0000
60.2400 163.0000 1.0000
60.2600 188.0000 1.0000
60.2800 184.0000 1.0000
60.3000 185.0000 1.0000
60.3200 184.0000 1.0000
60.3400 175.0000 1.0000
60.3600 160.0000 1.0000
60.3800 182.0000 1.0000
60.4000 177.0000 1.0000
60.4200 177.0000 1.0000
60.4400 153.0000 1.0000
60.4600 155.0000 1.0000
60.4800 163.0000 1.0000
60.5000 167.0000 1.0000
60.5200 142.0000 1.0000
60.5400 160.0000 1.0000
60.5600 140.0000 1.0000
60.5800 154.0000 1.0000
60.6000 172.0000 1.0000
60.6200 162.0000 1.0000
60.6400 158.0000 1.0000
60.6600 159.0000 1.0000
60.6800 168.0000 1.0000
60.7000 164.0000 1.0000
60.7200 128.0000 1.0000
60.7400 137.0000 1.0000
60.7600 125.0000 1.0000
60.7800 139.0000 1.0000
60.8000 142.0000 1.0000
60.8200 151.0000 1.0000
60.8400 141.0000 1.0000
60.8600 144.0000 1.0000
60.8800 170.0000 1.0000
60.9000 158.0000 1.0000
60.9200 181.0000 1.0000
60.9400 176.0000 1.0000
60.9600 182.0000 1.0000
60.9800 198.0000 1.0000
61.0000 214.0000 1.0000
61.0200 199.0000 1.0000
61.0400 217.0000 1.0000
61.0600 227.0000 1.0000
61.0800 253.0000 1.0000
61.1000 273.0000 1.0000
61.1200 284.0000 1.0000
61.1400 253.0000 1.0000
61.1600 269.0000 1.0000
61.1800 265.0000 1.0000
61.2000 261.0000 1.0000
61.2200 255.0000 1.0000
61.2400 239.0000 1.0000
61.2600 196.0000 1.0000
61.2800 213.0000 1.0000
61.3000 191.0000 1.0000
61.3200 212.0000 1.0000
61.3400 232.0000 1.0000
61.3600 227.0000 1.0000
61.3800 235.0000 1.0000
61.4000 228.0000 1.0000
61.4200 206.0000 1.0000
61.4400 205.0000 1.0000
61.4600 200.0000 1.0000
61.4800 203.0000 1.0000
61.5000 170.0000 1.0000
61.5200 200.0000 1.0000
61.5400 197.0000 1.0000
61.5600 217.0000 1.0000
61.5800 205.0000 1.0000
61.6000 222.0000 1.0000
61.6200 222.0000 1.0000
61.6400 210.0000 1.0000
61.6600 203.0000 1.0000
61.6800 205.0000 1.0000
61.7000 238.0000 1.0000
61.7200 221.0000 1.0000
61.7400 210.0000 1.0000
61.7600 199.0000 1.0000
61.7800 202.0000 1.0000
61.8000 187.0000 1.0000
61.8200 201.0000 1.0000
61.8400 200.0000 1.0000
61.8600 198.0000 1.0000
61.8800 197.0000 1.0000
61.9000 199.0000 1.0000
61.9200 222.0000 1.0000
61.9400 176.0000 1.0000
61.9600 180.0000 1.0000
61.9800 203.0000 1.0000
62.0000 180.0000 1.0000
62.0200 193.0000 1.0000
62.0400 188.0000 1.0000
62.0600 185.0000 1.0000
62.0800 166.0000 1.0000
62.1000 167.0000 1.0000
62.1200 182.0000 1.0000
62.1400 166.0000 1.0000
62.1600 157.0000 1.0000
62.1800 168.0000 1.0000
62.2000 157.0000 1.0000
62.2200 195.0000 1.0000
62.2400 172.0000 1.0000
62.2600 166.0000 1.0000
62.2800 160.0000 1.0000
62.3000 172.0000 1.0000
62.3200 170.0000 1.0000
62.3400 168.0000 1.0000
62.3600 163.0000 1.0000
62.3800 159.0000 1.0000
62.4000 162.0000 1.0000
62.4200 176.0000 1.0000
62.4400 169.0000 1.0000
62.4600 160.0000 1.0000
62.4800 146.0000 1.0000
62.5000 150.0000 1.0000
62.5200 143.0000 1.0000
62.5400 141.0000 1.0000
62.5600 178.0000 1.0000
62.5800 171.0000 1.0000
62.6000 172.0000 1.0000
62.6200 163.0000 1.0000
62.6400 174.0000 1.0000
62.6600 161.0000 1.0000
62.6800 155.0000 1.0000
62.7000 168.0000 1.0000
62.7200 154.0000 1.0000
62.7400 163.0000 1.0000
62.7600 146.0000 1.0000
62.7800 167.0000 1.0000
62.8000 155.0000 1.0000
62.8200 152.0000 1.0000
62.8400 138.0000 1.0000
62.8600 153.0000 1.0000
62.8800 145.0000 1.0000
62.9000 140.0000 1.0000
62.9200 153.0000 1.0000
62.9400 145.0000 1.0000
62.9600 127.0000 1.0000
62.9800 145.0000 1.0000
63.0000 146.0000 1.0000
63.0200 140.0000 1.0000
63.0400 150.0000 1.0000
63.0600 152.0000 1.0000
63.0800 166.0000 1.0000
63.1000 159.0000 1.0000
63.1200 158.0000 1.0000
63.1400 138.0000 1.0000
63.1600 156.0000 1.0000
63.1800 154.0000 1.0000
63.2000 178.0000 1.0000
63.2200 184.0000 1.0000
63.2400 169.0000 1.0000
63.2600 168.0000 1.0000
63.2800 183.0000 1.0000
63.3000 192.0000 1.0000
63.3200 197.0000 1.0000
63.3400 195.0000 1.0000
63.3600 172.0000 1.0000
63.3800 201.0000 1.0000
63.4000 212.0000 1.0000
63.4200 191.0000 1.0000
63.4400 211.0000 1.0000
63.4600 228.0000 1.0000
63.4800 236.0000 1.0000
63.5000 256.0000 1.0000
63.5200 240.0000 1.0000
63.5400 229.0000 1.0000
63.5600 212.0000 1.0000
63.5800 222.0000 1.0000
63.6000 235.0000 1.0000
63.6200 216.0000 1.0000
63.6400 256.0000 1.0000
63.6600 229.0000 1.0000
63.6800 253.0000 1.0000
63.7000 258.0000 1.0000
63.7200 257.0000 1.0000
63.7400 230.0000 1.0000
63.7600 230.0000 1.0000
63.7800 245.0000 1.0000
63.8000 267.0000 1.0000
63.8200 274.0000 1.0000
63.8400 281.0000 1.0000
63.8600 282.0000 1.0000
63.8800 286.0000 1.0000
63.9000 297.0000 1.0000
63.9200 281.0000 1.0000
63.9400 255.0000 1.0000
63.9600 243.0000 1.0000
63.9800 233.0000 1.0000
64.0000 232.0000 1.0000
64.0200 212.0000 1.0000
64.0400 205.0000 1.0000
64.0600 191.0000 1.0000
64.0800 220.0000 1.0000
64.1000 211.0000 1.0000
64.1200 207.0000 1.0000
64.1400 186.0000 1.0000
64.1600 177.0000 1.0000
64.1800 176.0000 1.0000
64.2000 157.0000 1.0000
64.2200 155.0000 1.0000
64.2400 168.0000 1.0000
64.2600 171.0000 1.0000
64.2800 166.0000 1.0000
64.3000 156.0000 1.0000
64.3200 171.0000 1.0000
64.3400 174.0000 1.0000
64.3600 145.0000 1.0000
64.3800 152.0000 1.0000
64.4000 163.0000 1.0000
64.4200 150.0000 1.0000
64.4400 160.0000 1.0000
64.4600 157.0000 1.0000
64.4800 172.0000 1.0000
64.5000 156.0000 1.0000
64.5200 153.0000 1.0000
64.5400 150.0000 1.0000
64.5600 160.0000 1.0000
64.5800 154.0000 1.0000
64.6000 146.0000 1.0000
64.6200 154.0000 1.0000
64.6400 154.0000 1.0000
64.6600 158.0000 1.0000
64.6800 133.0000 1.0000
64.7000 142.0000 1.0000
64.7200 158.0000 1.0000
64.7400 147.0000 1.0000
64.7600 155.0000 1.0000
64.7800 153.0000 1.0000
64.8000 161.0000 1.0000
64.8200 169.0000 1.0000
64.8400 170.0000 1.0000
64.8600 170.0000 1.0000
64.8800 163.0000 1.0000
64.9000 163.0000 1.0000
64.9200 165.0000 1.0000
64.9400 186.0000 1.0000
64.9600 194.0000 1.0000
64.9800 194.0000 1.0000
65.0000 194.0000 1.0000
*RAS_INT_END
*RAS_DATA_END
