*RAS_DATA_START
*RAS_HEADER_START
*CORR_POS_DB_NAME "Angle Correction ASC6 SC WITH Mono_04082019"
*CORR_POS_GONIO_RADIUS ""
*CORR_POS_NODE_INDEX01 ""
*CORR_POS_NODE_INDEX02 ""
*CORR_POS_NODE_INDEX03 ""
*CORR_POS_NODE_INDEX04 ""
*CORR_POS_NODE_INDEX05 ""
*CORR_POS_NODE_INDEX06 ""
*CORR_POS_NODE_INDEX07 ""
*CORR_POS_NODE_INDEX08 ""
*CORR_POS_NODE_INDEX09 ""
*CORR_POS_NODE_INDEX10 ""
*CORR_POS_NODE_INDEX11 ""
*CORR_POS_NODE_LABEL01 "Si(111)"
*CORR_POS_NODE_LABEL02 "Si(220)"
*CORR_POS_NODE_LABEL03 "Si(311)"
*CORR_POS_NODE_LABEL04 "Si(400)"
*CORR_POS_NODE_LABEL05 "Si(331)"
*CORR_POS_NODE_LABEL06 "Si(422)"
*CORR_POS_NODE_LABEL07 "Si(511)"
*CORR_POS_NODE_LABEL08 "Si(440)"
*CORR_POS_NODE_LABEL09 "Si(531)"
*CORR_POS_NODE_LABEL10 "Si(620)"
*CORR_POS_NODE_LABEL11 "Si(533)"
*CORR_POS_NODE_POS_CALC01 "28.377"
*CORR_POS_NODE_POS_CALC02 "47.2506"
*CORR_POS_NODE_POS_CALC03 "56.0725"
*CORR_POS_NODE_POS_CALC04 "69.0822"
*CORR_POS_NODE_POS_CALC05 "76.3294"
*CORR_POS_NODE_POS_CALC06 "87.9853"
*CORR_POS_NODE_POS_CALC07 "94.9091"
*CORR_POS_NODE_POS_CALC08 "106.668"
*CORR_POS_NODE_POS_CALC09 "114.054"
*CORR_POS_NODE_POS_CALC10 "127.511"
*CORR_POS_NODE_POS_CALC11 "136.864"
*CORR_POS_NODE_POS_MEAS01 "28.5058"
*CORR_POS_NODE_POS_MEAS02 "47.345"
*CORR_POS_NODE_POS_MEAS03 "56.1421"
*CORR_POS_NODE_POS_MEAS04 "69.1304"
*CORR_POS_NODE_POS_MEAS05 "76.366"
*CORR_POS_NODE_POS_MEAS06 "88.0213"
*CORR_POS_NODE_POS_MEAS07 "94.9406"
*CORR_POS_NODE_POS_MEAS08 "106.689"
*CORR_POS_NODE_POS_MEAS09 "114.065"
*CORR_POS_NODE_POS_MEAS10 "127.518"
*CORR_POS_NODE_POS_MEAS11 "136.869"
*CORR_POS_OPT_ATTR "集中法"
*CORR_POS_PARAM_MU ""
*CORR_POS_PARAM_PL ""
*CORR_POS_SEMODEL_TYPE "0"
*CORR_POS_STANDARD_TYPE ""
*CORR_POS_VALUE_ANALYZER "None"
*CORR_POS_VALUE_CMONO "None"
*CORR_POS_VALUE_IMONO "None"
*CORR_POS_VALUE_IS "1.250deg"
*CORR_POS_VALUE_ISL "10.0mm"
*CORR_POS_VALUE_ISOLLER "5.0deg"
*CORR_POS_VALUE_RS1 "1.250deg"
*CORR_POS_VALUE_RS2 "0.3mm"
*CORR_POS_VALUE_RSOLLER "5.0deg"
*CORR_POS_XG_FOCUS_L ""
*CORR_POS_XG_WAVE_TYPE ""
*CORR_POS_XG_WAVE_VALUE ""
*DISP_FMT_X "%.2f"
*DISP_FMT_Y "%.0f"
*DISP_FULLSCALE "5298.0000000000"
*DISP_LINE_COLOR "255.0000000000"
*DISP_LINE_STYLE "0.0000000000"
*DISP_LINE_WIDTH "0.2500000000"
*DISP_NOTE "Collected Data-23"
*DISP_OFFSET_Y "0.0000000000"
*DISP_PEAKSEARCH_UNIT_Y "CPS"
*DISP_RANGE_BOTTOM "0.0000000000"
*DISP_RANGE_LEFT "5.0000000000"
*DISP_RANGE_LOGCUTOFF "0.0100000000"
*DISP_RANGE_RIGHT "65.0000000000"
*DISP_RANGE_TOP "5298.0000000000"
*DISP_SCALE_MODE_Y "0.0000000000"
*DISP_TAB_NAME "Theta/2-Theta"
*DISP_TITLE_Y "Intensity"
*DISP_UNIT_Y "CPS"
*DISP_WINDOW_NAME "MSG_MACROENGINE"
*FILE_COMMENT " "
*FILE_MD5 ""
*FILE_MEMO " "
*FILE_OPERATOR "Administrator"
*FILE_PART_ID "MEAS_PBEA_00223"
*FILE_SAMPLE " "
*FILE_TYPE "RAS_RAW"
*FILE_USERGROUP "System Manager"
*FILE_VERSION "1.0000000000"
*HW_ATTACHMENT_ID "ATT1031"
*HW_ATTACHMENT_NAME "6サンプルチェンジャ|ASC-6"
*HW_COUNTER_ID-0 "CUT0021"
*HW_COUNTER_ID-1 "CUT0020"
*HW_COUNTER_ID-2 "CUT0020"
*HW_COUNTER_ID-3 "CMC0021"
*HW_COUNTER_NAME-0 "SC-70|SC-70"
*HW_COUNTER_NAME-1 "None|None"
*HW_COUNTER_NAME-2 "None|None"
*HW_COUNTER_NAME-3 "検出器モノクロメータ|Detector monochromator"
*HW_COUNTER_SELECT_NAME "SC-70|SC-70"
*HW_ECP_HV "671.5000000000"
*HW_ECP_HV_UNIT "V"
*HW_GONIOMETER_ID "GON0070"
*HW_GONIOMETER_NAME "MiniFlex 300/600|MiniFlex 300/600"
*HW_GONIOMETER_RADIUS-0 "79.0"
*HW_GONIOMETER_RADIUS-1 "91.5"
*HW_GONIOMETER_RADIUS-2 "150.0"
*HW_GONIOMETER_RADIUS-3 "0"
*HW_GONIOMETER_RADIUS-4 "103.4"
*HW_GONIOMETER_RADIUS-5 "150.0"
*HW_GONIOMETER_RADIUS-6 "46.6"
*HW_GONIOMETER_RADIUS-7 "160.0"
*HW_I_OPT_ID-0 "ISL0021"
*HW_I_OPT_ID-1 "ISO0021"
*HW_I_OPT_NAME-0 "発散スリット|Divergence slit"
*HW_I_OPT_NAME-1 "入射平行スリット|Incident parallel slit"
*HW_R_ATTENUATER_AUTOMODE "0"
*HW_R_OPT_ID-0 "RSS0021"
*HW_R_OPT_ID-1 "RSO0021"
*HW_R_OPT_ID-2 "RRS0021"
*HW_R_OPT_NAME-0 "散乱スリット|Scattering slit"
*HW_R_OPT_NAME-1 "受光平行スリット|Receiving soller slit"
*HW_R_OPT_NAME-2 "受光スリット|Receiving slit"
*HW_SAMPLE_HOLDER_ID "SMP0000"
*HW_SAMPLE_HOLDER_NAME "無し|None"
*HW_XG_CURRENT_MAX "15"
*HW_XG_CURRENT_MIN "2"
*HW_XG_CURRENT_RESOLUTION "1"
*HW_XG_CURRENT_UNIT "mA"
*HW_XG_FOCUS "1mm x 10mm"
*HW_XG_FOCUS_TYPE "Normal"
*HW_XG_ID "1060"
*HW_XG_NAME "300W/600W 封入管-B|300W/600W Sealed tube-B"
*HW_XG_TARGET_ATOMIC_NUMBER "29.0000000000"
*HW_XG_TARGET_NAME "Cu"
*HW_XG_TYPE "Hermetic"
*HW_XG_VOLTAGE_MAX "40"
*HW_XG_VOLTAGE_MIN "20"
*HW_XG_VOLTAGE_RESOLUTION "1"
*HW_XG_VOLTAGE_UNIT "kV"
*HW_XG_WATT_MAX "0.600"
*HW_XG_WATT_UNIT "kW"
*HW_XG_WAVE_LENGTH_ALPHA1 "1.540593"
*HW_XG_WAVE_LENGTH_ALPHA2 "1.544414"
*HW_XG_WAVE_LENGTH_BETA "1.392250"
*MEAS_COND_AXIS_NAME-0 "Theta/2-Theta"
*MEAS_COND_AXIS_NAME-1 "Spin"
*MEAS_COND_AXIS_NAME-2 "Change"
*MEAS_COND_AXIS_NAME-3 "Soller(inc.)"
*MEAS_COND_AXIS_NAME-4 "IHS"
*MEAS_COND_AXIS_NAME-5 "DS"
*MEAS_COND_AXIS_NAME-6 "SS"
*MEAS_COND_AXIS_NAME-7 "Soller(rec.)"
*MEAS_COND_AXIS_NAME-8 "RS"
*MEAS_COND_AXIS_NAME-9 "Filter"
*MEAS_COND_AXIS_NAME-10 "Monochromator"
*MEAS_COND_AXIS_NAME-11 "HV"
*MEAS_COND_AXIS_NAME-12 "PHA"
*MEAS_COND_AXIS_NAME_INTERNAL-0 "TwoThetaTheta"
*MEAS_COND_AXIS_NAME_INTERNAL-1 "Spin"
*MEAS_COND_AXIS_NAME_INTERNAL-2 "Change"
*MEAS_COND_AXIS_NAME_INTERNAL-3 "IncidentSollerSlit"
*MEAS_COND_AXIS_NAME_INTERNAL-4 "IncidentAxdSlit"
*MEAS_COND_AXIS_NAME_INTERNAL-5 "IncidentSlitBox"
*MEAS_COND_AXIS_NAME_INTERNAL-6 "ReceivingSlitBox1"
*MEAS_COND_AXIS_NAME_INTERNAL-7 "ReceivingSollerSlit"
*MEAS_COND_AXIS_NAME_INTERNAL-8 "ReceivingSlitBox2"
*MEAS_COND_AXIS_NAME_INTERNAL-9 "Filter"
*MEAS_COND_AXIS_NAME_INTERNAL-10 "CounterMonochromator"
*MEAS_COND_AXIS_NAME_INTERNAL-11 "HV"
*MEAS_COND_AXIS_NAME_INTERNAL-12 "PHA"
*MEAS_COND_AXIS_NAME_MAGICNO-0 "268632064.0000000000"
*MEAS_COND_AXIS_NAME_MAGICNO-1 "16842752.0000000000"
*MEAS_COND_AXIS_NAME_MAGICNO-2 "16842752.0000000000"
*MEAS_COND_AXIS_NAME_MAGICNO-3 "20971521.0000000000"
*MEAS_COND_AXIS_NAME_MAGICNO-4 "22020097.0000000000"
*MEAS_COND_AXIS_NAME_MAGICNO-5 "22020097.0000000000"
*MEAS_COND_AXIS_NAME_MAGICNO-6 "23068673.0000000000"
*MEAS_COND_AXIS_NAME_MAGICNO-7 "20971521.0000000000"
*MEAS_COND_AXIS_NAME_MAGICNO-8 "23068673.0000000000"
*MEAS_COND_AXIS_NAME_MAGICNO-9 "20971521.0000000000"
*MEAS_COND_AXIS_NAME_MAGICNO-10 "20971521.0000000000"
*MEAS_COND_AXIS_NAME_MAGICNO-11 "0.0000000000"
*MEAS_COND_AXIS_NAME_MAGICNO-12 "0.0000000000"
*MEAS_COND_AXIS_OFFSET-0 "0.0000000000"
*MEAS_COND_AXIS_OFFSET-1 "-"
*MEAS_COND_AXIS_OFFSET-2 "-"
*MEAS_COND_AXIS_OFFSET-3 "-"
*MEAS_COND_AXIS_OFFSET-4 "-"
*MEAS_COND_AXIS_OFFSET-5 "-"
*MEAS_COND_AXIS_OFFSET-6 "-"
*MEAS_COND_AXIS_OFFSET-7 "-"
*MEAS_COND_AXIS_OFFSET-8 "-"
*MEAS_COND_AXIS_OFFSET-9 "-"
*MEAS_COND_AXIS_OFFSET-10 "-"
*MEAS_COND_AXIS_OFFSET-11 "-"
*MEAS_COND_AXIS_OFFSET-12 "-"
*MEAS_COND_AXIS_POSITION-0 "65.0000000000"
*MEAS_COND_AXIS_POSITION-1 "0.0000000000"
*MEAS_COND_AXIS_POSITION-2 "5.0000000000"
*MEAS_COND_AXIS_POSITION-3 "5.0deg"
*MEAS_COND_AXIS_POSITION-4 "10.0mm"
*MEAS_COND_AXIS_POSITION-5 "1.250deg"
*MEAS_COND_AXIS_POSITION-6 "1.250deg"
*MEAS_COND_AXIS_POSITION-7 "5.0deg"
*MEAS_COND_AXIS_POSITION-8 "0.3mm"
*MEAS_COND_AXIS_POSITION-9 "None"
*MEAS_COND_AXIS_POSITION-10 "Bent"
*MEAS_COND_AXIS_POSITION-11 "671.5000000000"
*MEAS_COND_AXIS_POSITION-12 "551.2500000000"
*MEAS_COND_AXIS_UNIT-0 "deg"
*MEAS_COND_AXIS_UNIT-1 ""
*MEAS_COND_AXIS_UNIT-2 ""
*MEAS_COND_AXIS_UNIT-3 ""
*MEAS_COND_AXIS_UNIT-4 ""
*MEAS_COND_AXIS_UNIT-5 ""
*MEAS_COND_AXIS_UNIT-6 ""
*MEAS_COND_AXIS_UNIT-7 ""
*MEAS_COND_AXIS_UNIT-8 ""
*MEAS_COND_AXIS_UNIT-9 ""
*MEAS_COND_AXIS_UNIT-10 ""
*MEAS_COND_AXIS_UNIT-11 "V"
*MEAS_COND_AXIS_UNIT-12 "mV"
*MEAS_COND_CORRECTION_SLIT_COUNTERMONO "None"
*MEAS_COND_CORRECTION_SLIT_DS "1.250deg"
*MEAS_COND_CORRECTION_SLIT_FILTER "None"
*MEAS_COND_CORRECTION_SLIT_IHS "10.0mm"
*MEAS_COND_CORRECTION_SLIT_RS "0.3mm"
*MEAS_COND_CORRECTION_SLIT_SOLLER_INC "5.0deg"
*MEAS_COND_CORRECTION_SLIT_SOLLER_REC "5.0deg"
*MEAS_COND_CORRECTION_SLIT_SS "1.250deg"
*MEAS_COND_COUNTER_CNTLOSS_CORR "0.0000000000"
*MEAS_COND_COUNTER_PHABASE "551.2500000000"
*MEAS_COND_COUNTER_PHAWINDOW "926.2500000000"
*MEAS_COND_COUNTER_PHA_UNIT "mV"
*MEAS_COND_COUNTER_TAUDIFF "0.2500000000"
*MEAS_COND_COUNTER_TAUINT "0.7500000000"
*MEAS_COND_IRRADIATION_MODE "OFF"
*MEAS_COND_IRRADIATION_WIDTH ""
*MEAS_COND_OPT_ATTR " "
*MEAS_COND_OPT_NAME ""
*MEAS_COND_UNSYMMETRIC_MODE "OFF"
*MEAS_COND_XG_CURRENT "15.0000000000"
*MEAS_COND_XG_VOLTAGE "40.0000000000"
*MEAS_COND_XG_WAVE_TYPE "Ka"
*MEAS_DATA_COUNT "3001.0000000000"
*MEAS_SCAN_AXIS_X "Theta/2-Theta"
*MEAS_SCAN_AXIS_X_INTERNAL "TwoThetaTheta"
*MEAS_SCAN_END_TIME "08/05/25 02:49:11"
*MEAS_SCAN_MODE "STEP"
*MEAS_SCAN_MONITOR "0"
*MEAS_SCAN_RESOLUTION_X "0.0025"
*MEAS_SCAN_SPEED "2.00"
*MEAS_SCAN_SPEED_UNIT "sec."
*MEAS_SCAN_SPEED_USER "2.00"
*MEAS_SCAN_START "5.0000000000"
*MEAS_SCAN_START_TIME "08/05/25 01:03:54"
*MEAS_SCAN_STEP "0.0200000000"
*MEAS_SCAN_STOP "65.0000000000"
*MEAS_SCAN_UNIT_X "deg"
*MEAS_SCAN_UNIT_Y "counts"
*SLIT_SYSTEM "0"
*RAS_HEADER_END
*RAS_INT_START
5.0000 885.0000 1.0000
5.0200 878.0000 1.0000
5.0400 837.0000 1.0000
5.0600 864.0000 1.0000
5.0800 890.0000 1.0000
5.1000 871.0000 1.0000
5.1200 828.0000 1.0000
5.1400 883.0000 1.0000
5.1600 800.0000 1.0000
5.1800 779.0000 1.0000
5.2000 819.0000 1.0000
5.2200 948.0000 1.0000
5.2400 862.0000 1.0000
5.2600 888.0000 1.0000
5.2800 828.0000 1.0000
5.3000 800.0000 1.0000
5.3200 769.0000 1.0000
5.3400 804.0000 1.0000
5.3600 784.0000 1.0000
5.3800 732.0000 1.0000
5.4000 806.0000 1.0000
5.4200 789.0000 1.0000
5.4400 707.0000 1.0000
5.4600 715.0000 1.0000
5.4800 757.0000 1.0000
5.5000 747.0000 1.0000
5.5200 798.0000 1.0000
5.5400 775.0000 1.0000
5.5600 739.0000 1.0000
5.5800 773.0000 1.0000
5.6000 784.0000 1.0000
5.6200 804.0000 1.0000
5.6400 712.0000 1.0000
5.6600 772.0000 1.0000
5.6800 766.0000 1.0000
5.7000 773.0000 1.0000
5.7200 862.0000 1.0000
5.7400 768.0000 1.0000
5.7600 775.0000 1.0000
5.7800 782.0000 1.0000
5.8000 766.0000 1.0000
5.8200 764.0000 1.0000
5.8400 873.0000 1.0000
5.8600 873.0000 1.0000
5.8800 819.0000 1.0000
5.9000 763.0000 1.0000
5.9200 830.0000 1.0000
5.9400 893.0000 1.0000
5.9600 928.0000 1.0000
5.9800 968.0000 1.0000
6.0000 965.0000 1.0000
6.0200 859.0000 1.0000
6.0400 878.0000 1.0000
6.0600 860.0000 1.0000
6.0800 771.0000 1.0000
6.1000 719.0000 1.0000
6.1200 687.0000 1.0000
6.1400 630.0000 1.0000
6.1600 646.0000 1.0000
6.1800 668.0000 1.0000
6.2000 708.0000 1.0000
6.2200 709.0000 1.0000
6.2400 614.0000 1.0000
6.2600 647.0000 1.0000
6.2800 690.0000 1.0000
6.3000 623.0000 1.0000
6.3200 647.0000 1.0000
6.3400 651.0000 1.0000
6.3600 634.0000 1.0000
6.3800 650.0000 1.0000
6.4000 622.0000 1.0000
6.4200 631.0000 1.0000
6.4400 592.0000 1.0000
6.4600 622.0000 1.0000
6.4800 646.0000 1.0000
6.5000 609.0000 1.0000
6.5200 604.0000 1.0000
6.5400 605.0000 1.0000
6.5600 641.0000 1.0000
6.5800 599.0000 1.0000
6.6000 594.0000 1.0000
6.6200 547.0000 1.0000
6.6400 532.0000 1.0000
6.6600 566.0000 1.0000
6.6800 526.0000 1.0000
6.7000 516.0000 1.0000
6.7200 503.0000 1.0000
6.7400 532.0000 1.0000
6.7600 564.0000 1.0000
6.7800 523.0000 1.0000
6.8000 511.0000 1.0000
6.8200 523.0000 1.0000
6.8400 530.0000 1.0000
6.8600 512.0000 1.0000
6.8800 483.0000 1.0000
6.9000 498.0000 1.0000
6.9200 537.0000 1.0000
6.9400 533.0000 1.0000
6.9600 523.0000 1.0000
6.9800 474.0000 1.0000
7.0000 470.0000 1.0000
7.0200 545.0000 1.0000
7.0400 525.0000 1.0000
7.0600 489.0000 1.0000
7.0800 475.0000 1.0000
7.1000 455.0000 1.0000
7.1200 459.0000 1.0000
7.1400 460.0000 1.0000
7.1600 475.0000 1.0000
7.1800 471.0000 1.0000
7.2000 457.0000 1.0000
7.2200 461.0000 1.0000
7.2400 449.0000 1.0000
7.2600 448.0000 1.0000
7.2800 436.0000 1.0000
7.3000 463.0000 1.0000
7.3200 495.0000 1.0000
7.3400 481.0000 1.0000
7.3600 470.0000 1.0000
7.3800 458.0000 1.0000
7.4000 464.0000 1.0000
7.4200 443.0000 1.0000
7.4400 444.0000 1.0000
7.4600 438.0000 1.0000
7.4800 412.0000 1.0000
7.5000 436.0000 1.0000
7.5200 415.0000 1.0000
7.5400 409.0000 1.0000
7.5600 455.0000 1.0000
7.5800 444.0000 1.0000
7.6000 447.0000 1.0000
7.6200 454.0000 1.0000
7.6400 430.0000 1.0000
7.6600 446.0000 1.0000
7.6800 467.0000 1.0000
7.7000 429.0000 1.0000
7.7200 394.0000 1.0000
7.7400 434.0000 1.0000
7.7600 441.0000 1.0000
7.7800 444.0000 1.0000
7.8000 431.0000 1.0000
7.8200 423.0000 1.0000
7.8400 419.0000 1.0000
7.8600 406.0000 1.0000
7.8800 429.0000 1.0000
7.9000 430.0000 1.0000
7.9200 410.0000 1.0000
7.9400 384.0000 1.0000
7.9600 415.0000 1.0000
7.9800 419.0000 1.0000
8.0000 420.0000 1.0000
8.0200 384.0000 1.0000
8.0400 372.0000 1.0000
8.0600 389.0000 1.0000
8.0800 398.0000 1.0000
8.1000 401.0000 1.0000
8.1200 384.0000 1.0000
8.1400 420.0000 1.0000
8.1600 412.0000 1.0000
8.1800 434.0000 1.0000
8.2000 399.0000 1.0000
8.2200 380.0000 1.0000
8.2400 419.0000 1.0000
8.2600 407.0000 1.0000
8.2800 431.0000 1.0000
8.3000 430.0000 1.0000
8.3200 422.0000 1.0000
8.3400 432.0000 1.0000
8.3600 487.0000 1.0000
8.3800 468.0000 1.0000
8.4000 405.0000 1.0000
8.4200 466.0000 1.0000
8.4400 491.0000 1.0000
8.4600 539.0000 1.0000
8.4800 568.0000 1.0000
8.5000 543.0000 1.0000
8.5200 577.0000 1.0000
8.5400 575.0000 1.0000
8.5600 578.0000 1.0000
8.5800 547.0000 1.0000
8.6000 571.0000 1.0000
8.6200 590.0000 1.0000
8.6400 569.0000 1.0000
8.6600 483.0000 1.0000
8.6800 471.0000 1.0000
8.7000 419.0000 1.0000
8.7200 369.0000 1.0000
8.7400 340.0000 1.0000
8.7600 352.0000 1.0000
8.7800 351.0000 1.0000
8.8000 331.0000 1.0000
8.8200 333.0000 1.0000
8.8400 338.0000 1.0000
8.8600 333.0000 1.0000
8.8800 314.0000 1.0000
8.9000 332.0000 1.0000
8.9200 287.0000 1.0000
8.9400 286.0000 1.0000
8.9600 325.0000 1.0000
8.9800 327.0000 1.0000
9.0000 341.0000 1.0000
9.0200 317.0000 1.0000
9.0400 304.0000 1.0000
9.0600 295.0000 1.0000
9.0800 307.0000 1.0000
9.1000 267.0000 1.0000
9.1200 320.0000 1.0000
9.1400 299.0000 1.0000
9.1600 277.0000 1.0000
9.1800 279.0000 1.0000
9.2000 288.0000 1.0000
9.2200 286.0000 1.0000
9.2400 324.0000 1.0000
9.2600 309.0000 1.0000
9.2800 272.0000 1.0000
9.3000 317.0000 1.0000
9.3200 353.0000 1.0000
9.3400 342.0000 1.0000
9.3600 347.0000 1.0000
9.3800 359.0000 1.0000
9.4000 342.0000 1.0000
9.4200 298.0000 1.0000
9.4400 341.0000 1.0000
9.4600 320.0000 1.0000
9.4800 317.0000 1.0000
9.5000 307.0000 1.0000
9.5200 312.0000 1.0000
9.5400 337.0000 1.0000
9.5600 330.0000 1.0000
9.5800 298.0000 1.0000
9.6000 276.0000 1.0000
9.6200 251.0000 1.0000
9.6400 252.0000 1.0000
9.6600 296.0000 1.0000
9.6800 276.0000 1.0000
9.7000 241.0000 1.0000
9.7200 279.0000 1.0000
9.7400 284.0000 1.0000
9.7600 255.0000 1.0000
9.7800 283.0000 1.0000
9.8000 273.0000 1.0000
9.8200 268.0000 1.0000
9.8400 258.0000 1.0000
9.8600 263.0000 1.0000
9.8800 252.0000 1.0000
9.9000 274.0000 1.0000
9.9200 309.0000 1.0000
9.9400 278.0000 1.0000
9.9600 272.0000 1.0000
9.9800 313.0000 1.0000
10.0000 295.0000 1.0000
10.0200 269.0000 1.0000
10.0400 294.0000 1.0000
10.0600 312.0000 1.0000
10.0800 300.0000 1.0000
10.1000 333.0000 1.0000
10.1200 358.0000 1.0000
10.1400 383.0000 1.0000
10.1600 434.0000 1.0000
10.1800 545.0000 1.0000
10.2000 502.0000 1.0000
10.2200 589.0000 1.0000
10.2400 601.0000 1.0000
10.2600 590.0000 1.0000
10.2800 611.0000 1.0000
10.3000 532.0000 1.0000
10.3200 420.0000 1.0000
10.3400 356.0000 1.0000
10.3600 307.0000 1.0000
10.3800 268.0000 1.0000
10.4000 203.0000 1.0000
10.4200 249.0000 1.0000
10.4400 211.0000 1.0000
10.4600 245.0000 1.0000
10.4800 216.0000 1.0000
10.5000 217.0000 1.0000
10.5200 183.0000 1.0000
10.5400 220.0000 1.0000
10.5600 211.0000 1.0000
10.5800 256.0000 1.0000
10.6000 247.0000 1.0000
10.6200 213.0000 1.0000
10.6400 237.0000 1.0000
10.6600 217.0000 1.0000
10.6800 271.0000 1.0000
10.7000 255.0000 1.0000
10.7200 202.0000 1.0000
10.7400 219.0000 1.0000
10.7600 205.0000 1.0000
10.7800 241.0000 1.0000
10.8000 208.0000 1.0000
10.8200 190.0000 1.0000
10.8400 212.0000 1.0000
10.8600 208.0000 1.0000
10.8800 220.0000 1.0000
10.9000 225.0000 1.0000
10.9200 245.0000 1.0000
10.9400 207.0000 1.0000
10.9600 215.0000 1.0000
10.9800 204.0000 1.0000
11.0000 185.0000 1.0000
11.0200 215.0000 1.0000
11.0400 225.0000 1.0000
11.0600 205.0000 1.0000
11.0800 224.0000 1.0000
11.1000 195.0000 1.0000
11.1200 195.0000 1.0000
11.1400 205.0000 1.0000
11.1600 209.0000 1.0000
11.1800 194.0000 1.0000
11.2000 214.0000 1.0000
11.2200 198.0000 1.0000
11.2400 226.0000 1.0000
11.2600 181.0000 1.0000
11.2800 209.0000 1.0000
11.3000 200.0000 1.0000
11.3200 198.0000 1.0000
11.3400 175.0000 1.0000
11.3600 212.0000 1.0000
11.3800 205.0000 1.0000
11.4000 162.0000 1.0000
11.4200 218.0000 1.0000
11.4400 224.0000 1.0000
11.4600 215.0000 1.0000
11.4800 186.0000 1.0000
11.5000 210.0000 1.0000
11.5200 213.0000 1.0000
11.5400 207.0000 1.0000
11.5600 188.0000 1.0000
11.5800 179.0000 1.0000
11.6000 171.0000 1.0000
11.6200 190.0000 1.0000
11.6400 214.0000 1.0000
11.6600 212.0000 1.0000
11.6800 195.0000 1.0000
11.7000 222.0000 1.0000
11.7200 199.0000 1.0000
11.7400 236.0000 1.0000
11.7600 226.0000 1.0000
11.7800 206.0000 1.0000
11.8000 239.0000 1.0000
11.8200 215.0000 1.0000
11.8400 221.0000 1.0000
11.8600 197.0000 1.0000
11.8800 209.0000 1.0000
11.9000 215.0000 1.0000
11.9200 231.0000 1.0000
11.9400 263.0000 1.0000
11.9600 249.0000 1.0000
11.9800 264.0000 1.0000
12.0000 243.0000 1.0000
12.0200 285.0000 1.0000
12.0400 290.0000 1.0000
12.0600 268.0000 1.0000
12.0800 282.0000 1.0000
12.1000 334.0000 1.0000
12.1200 316.0000 1.0000
12.1400 314.0000 1.0000
12.1600 381.0000 1.0000
12.1800 387.0000 1.0000
12.2000 406.0000 1.0000
12.2200 390.0000 1.0000
12.2400 405.0000 1.0000
12.2600 387.0000 1.0000
12.2800 384.0000 1.0000
12.3000 365.0000 1.0000
12.3200 361.0000 1.0000
12.3400 326.0000 1.0000
12.3600 298.0000 1.0000
12.3800 231.0000 1.0000
12.4000 259.0000 1.0000
12.4200 233.0000 1.0000
12.4400 198.0000 1.0000
12.4600 200.0000 1.0000
12.4800 222.0000 1.0000
12.5000 208.0000 1.0000
12.5200 191.0000 1.0000
12.5400 195.0000 1.0000
12.5600 195.0000 1.0000
12.5800 189.0000 1.0000
12.6000 183.0000 1.0000
12.6200 178.0000 1.0000
12.6400 181.0000 1.0000
12.6600 174.0000 1.0000
12.6800 184.0000 1.0000
12.7000 166.0000 1.0000
12.7200 190.0000 1.0000
12.7400 192.0000 1.0000
12.7600 176.0000 1.0000
12.7800 190.0000 1.0000
12.8000 171.0000 1.0000
12.8200 163.0000 1.0000
12.8400 154.0000 1.0000
12.8600 166.0000 1.0000
12.8800 168.0000 1.0000
12.9000 181.0000 1.0000
12.9200 177.0000 1.0000
12.9400 181.0000 1.0000
12.9600 179.0000 1.0000
12.9800 189.0000 1.0000
13.0000 196.0000 1.0000
13.0200 195.0000 1.0000
13.0400 187.0000 1.0000
13.0600 165.0000 1.0000
13.0800 185.0000 1.0000
13.1000 197.0000 1.0000
13.1200 193.0000 1.0000
13.1400 202.0000 1.0000
13.1600 200.0000 1.0000
13.1800 207.0000 1.0000
13.2000 213.0000 1.0000
13.2200 202.0000 1.0000
13.2400 195.0000 1.0000
13.2600 202.0000 1.0000
13.2800 225.0000 1.0000
13.3000 219.0000 1.0000
13.3200 239.0000 1.0000
13.3400 250.0000 1.0000
13.3600 255.0000 1.0000
13.3800 277.0000 1.0000
13.4000 327.0000 1.0000
13.4200 318.0000 1.0000
13.4400 354.0000 1.0000
13.4600 371.0000 1.0000
13.4800 351.0000 1.0000
13.5000 326.0000 1.0000
13.5200 347.0000 1.0000
13.5400 352.0000 1.0000
13.5600 363.0000 1.0000
13.5800 418.0000 1.0000
13.6000 461.0000 1.0000
13.6200 478.0000 1.0000
13.6400 493.0000 1.0000
13.6600 496.0000 1.0000
13.6800 464.0000 1.0000
13.7000 455.0000 1.0000
13.7200 379.0000 1.0000
13.7400 302.0000 1.0000
13.7600 249.0000 1.0000
13.7800 243.0000 1.0000
13.8000 209.0000 1.0000
13.8200 200.0000 1.0000
13.8400 201.0000 1.0000
13.8600 180.0000 1.0000
13.8800 175.0000 1.0000
13.9000 167.0000 1.0000
13.9200 148.0000 1.0000
13.9400 157.0000 1.0000
13.9600 161.0000 1.0000
13.9800 150.0000 1.0000
14.0000 142.0000 1.0000
14.0200 144.0000 1.0000
14.0400 144.0000 1.0000
14.0600 138.0000 1.0000
14.0800 142.0000 1.0000
14.1000 134.0000 1.0000
14.1200 137.0000 1.0000
14.1400 131.0000 1.0000
14.1600 128.0000 1.0000
14.1800 133.0000 1.0000
14.2000 133.0000 1.0000
14.2200 130.0000 1.0000
14.2400 129.0000 1.0000
14.2600 140.0000 1.0000
14.2800 130.0000 1.0000
14.3000 118.0000 1.0000
14.3200 131.0000 1.0000
14.3400 134.0000 1.0000
14.3600 132.0000 1.0000
14.3800 133.0000 1.0000
14.4000 136.0000 1.0000
14.4200 153.0000 1.0000
14.4400 137.0000 1.0000
14.4600 129.0000 1.0000
14.4800 136.0000 1.0000
14.5000 141.0000 1.0000
14.5200 139.0000 1.0000
14.5400 134.0000 1.0000
14.5600 129.0000 1.0000
14.5800 146.0000 1.0000
14.6000 167.0000 1.0000
14.6200 177.0000 1.0000
14.6400 170.0000 1.0000
14.6600 166.0000 1.0000
14.6800 171.0000 1.0000
14.7000 191.0000 1.0000
14.7200 187.0000 1.0000
14.7400 184.0000 1.0000
14.7600 195.0000 1.0000
14.7800 209.0000 1.0000
14.8000 226.0000 1.0000
14.8200 219.0000 1.0000
14.8400 193.0000 1.0000
14.8600 200.0000 1.0000
14.8800 196.0000 1.0000
14.9000 177.0000 1.0000
14.9200 182.0000 1.0000
14.9400 185.0000 1.0000
14.9600 174.0000 1.0000
14.9800 171.0000 1.0000
15.0000 159.0000 1.0000
15.0200 140.0000 1.0000
15.0400 136.0000 1.0000
15.0600 137.0000 1.0000
15.0800 148.0000 1.0000
15.1000 140.0000 1.0000
15.1200 128.0000 1.0000
15.1400 126.0000 1.0000
15.1600 130.0000 1.0000
15.1800 137.0000 1.0000
15.2000 138.0000 1.0000
15.2200 128.0000 1.0000
15.2400 125.0000 1.0000
15.2600 133.0000 1.0000
15.2800 130.0000 1.0000
15.3000 128.0000 1.0000
15.3200 139.0000 1.0000
15.3400 145.0000 1.0000
15.3600 135.0000 1.0000
15.3800 145.0000 1.0000
15.4000 153.0000 1.0000
15.4200 151.0000 1.0000
15.4400 141.0000 1.0000
15.4600 141.0000 1.0000
15.4800 152.0000 1.0000
15.5000 167.0000 1.0000
15.5200 163.0000 1.0000
15.5400 164.0000 1.0000
15.5600 190.0000 1.0000
15.5800 186.0000 1.0000
15.6000 161.0000 1.0000
15.6200 146.0000 1.0000
15.6400 152.0000 1.0000
15.6600 151.0000 1.0000
15.6800 142.0000 1.0000
15.7000 132.0000 1.0000
15.7200 141.0000 1.0000
15.7400 142.0000 1.0000
15.7600 130.0000 1.0000
15.7800 117.0000 1.0000
15.8000 120.0000 1.0000
15.8200 125.0000 1.0000
15.8400 116.0000 1.0000
15.8600 115.0000 1.0000
15.8800 118.0000 1.0000
15.9000 117.0000 1.0000
15.9200 115.0000 1.0000
15.9400 115.0000 1.0000
15.9600 119.0000 1.0000
15.9800 116.0000 1.0000
16.0000 124.0000 1.0000
16.0200 125.0000 1.0000
16.0400 127.0000 1.0000
16.0600 125.0000 1.0000
16.0800 122.0000 1.0000
16.1000 128.0000 1.0000
16.1200 121.0000 1.0000
16.1400 145.0000 1.0000
16.1600 117.0000 1.0000
16.1800 124.0000 1.0000
16.2000 134.0000 1.0000
16.2200 130.0000 1.0000
16.2400 126.0000 1.0000
16.2600 124.0000 1.0000
16.2800 137.0000 1.0000
16.3000 139.0000 1.0000
16.3200 130.0000 1.0000
16.3400 124.0000 1.0000
16.3600 128.0000 1.0000
16.3800 119.0000 1.0000
16.4000 130.0000 1.0000
16.4200 124.0000 1.0000
16.4400 108.0000 1.0000
16.4600 125.0000 1.0000
16.4800 123.0000 1.0000
16.5000 142.0000 1.0000
16.5200 127.0000 1.0000
16.5400 127.0000 1.0000
16.5600 133.0000 1.0000
16.5800 119.0000 1.0000
16.6000 130.0000 1.0000
16.6200 127.0000 1.0000
16.6400 127.0000 1.0000
16.6600 133.0000 1.0000
16.6800 130.0000 1.0000
16.7000 127.0000 1.0000
16.7200 143.0000 1.0000
16.7400 140.0000 1.0000
16.7600 137.0000 1.0000
16.7800 121.0000 1.0000
16.8000 117.0000 1.0000
16.8200 136.0000 1.0000
16.8400 130.0000 1.0000
16.8600 117.0000 1.0000
16.8800 120.0000 1.0000
16.9000 114.0000 1.0000
16.9200 115.0000 1.0000
16.9400 134.0000 1.0000
16.9600 138.0000 1.0000
16.9800 120.0000 1.0000
17.0000 115.0000 1.0000
17.0200 119.0000 1.0000
17.0400 110.0000 1.0000
17.0600 121.0000 1.0000
17.0800 132.0000 1.0000
17.1000 137.0000 1.0000
17.1200 142.0000 1.0000
17.1400 120.0000 1.0000
17.1600 117.0000 1.0000
17.1800 124.0000 1.0000
17.2000 137.0000 1.0000
17.2200 124.0000 1.0000
17.2400 129.0000 1.0000
17.2600 149.0000 1.0000
17.2800 165.0000 1.0000
17.3000 140.0000 1.0000
17.3200 126.0000 1.0000
17.3400 135.0000 1.0000
17.3600 134.0000 1.0000
17.3800 152.0000 1.0000
17.4000 166.0000 1.0000
17.4200 157.0000 1.0000
17.4400 169.0000 1.0000
17.4600 178.0000 1.0000
17.4800 176.0000 1.0000
17.5000 181.0000 1.0000
17.5200 158.0000 1.0000
17.5400 166.0000 1.0000
17.5600 172.0000 1.0000
17.5800 145.0000 1.0000
17.6000 146.0000 1.0000
17.6200 144.0000 1.0000
17.6400 144.0000 1.0000
17.6600 149.0000 1.0000
17.6800 128.0000 1.0000
17.7000 134.0000 1.0000
17.7200 141.0000 1.0000
17.7400 128.0000 1.0000
17.7600 137.0000 1.0000
17.7800 143.0000 1.0000
17.8000 160.0000 1.0000
17.8200 160.0000 1.0000
17.8400 141.0000 1.0000
17.8600 134.0000 1.0000
17.8800 141.0000 1.0000
17.9000 140.0000 1.0000
17.9200 124.0000 1.0000
17.9400 132.0000 1.0000
17.9600 123.0000 1.0000
17.9800 139.0000 1.0000
18.0000 122.0000 1.0000
18.0200 139.0000 1.0000
18.0400 142.0000 1.0000
18.0600 148.0000 1.0000
18.0800 147.0000 1.0000
18.1000 149.0000 1.0000
18.1200 136.0000 1.0000
18.1400 129.0000 1.0000
18.1600 130.0000 1.0000
18.1800 132.0000 1.0000
18.2000 125.0000 1.0000
18.2200 122.0000 1.0000
18.2400 134.0000 1.0000
18.2600 154.0000 1.0000
18.2800 143.0000 1.0000
18.3000 153.0000 1.0000
18.3200 145.0000 1.0000
18.3400 122.0000 1.0000
18.3600 148.0000 1.0000
18.3800 156.0000 1.0000
18.4000 142.0000 1.0000
18.4200 146.0000 1.0000
18.4400 137.0000 1.0000
18.4600 183.0000 1.0000
18.4800 166.0000 1.0000
18.5000 175.0000 1.0000
18.5200 161.0000 1.0000
18.5400 177.0000 1.0000
18.5600 179.0000 1.0000
18.5800 171.0000 1.0000
18.6000 172.0000 1.0000
18.6200 173.0000 1.0000
18.6400 158.0000 1.0000
18.6600 163.0000 1.0000
18.6800 163.0000 1.0000
18.7000 187.0000 1.0000
18.7200 144.0000 1.0000
18.7400 157.0000 1.0000
18.7600 161.0000 1.0000
18.7800 194.0000 1.0000
18.8000 155.0000 1.0000
18.8200 133.0000 1.0000
18.8400 154.0000 1.0000
18.8600 157.0000 1.0000
18.8800 167.0000 1.0000
18.9000 158.0000 1.0000
18.9200 153.0000 1.0000
18.9400 189.0000 1.0000
18.9600 179.0000 1.0000
18.9800 196.0000 1.0000
19.0000 173.0000 1.0000
19.0200 175.0000 1.0000
19.0400 164.0000 1.0000
19.0600 171.0000 1.0000
19.0800 173.0000 1.0000
19.1000 154.0000 1.0000
19.1200 140.0000 1.0000
19.1400 157.0000 1.0000
19.1600 154.0000 1.0000
19.1800 165.0000 1.0000
19.2000 166.0000 1.0000
19.2200 144.0000 1.0000
19.2400 135.0000 1.0000
19.2600 142.0000 1.0000
19.2800 146.0000 1.0000
19.3000 155.0000 1.0000
19.3200 142.0000 1.0000
19.3400 137.0000 1.0000
19.3600 166.0000 1.0000
19.3800 150.0000 1.0000
19.4000 185.0000 1.0000
19.4200 179.0000 1.0000
19.4400 170.0000 1.0000
19.4600 165.0000 1.0000
19.4800 169.0000 1.0000
19.5000 175.0000 1.0000
19.5200 210.0000 1.0000
19.5400 219.0000 1.0000
19.5600 195.0000 1.0000
19.5800 199.0000 1.0000
19.6000 192.0000 1.0000
19.6200 167.0000 1.0000
19.6400 180.0000 1.0000
19.6600 208.0000 1.0000
19.6800 178.0000 1.0000
19.7000 187.0000 1.0000
19.7200 205.0000 1.0000
19.7400 180.0000 1.0000
19.7600 167.0000 1.0000
19.7800 163.0000 1.0000
19.8000 157.0000 1.0000
19.8200 164.0000 1.0000
19.8400 162.0000 1.0000
19.8600 158.0000 1.0000
19.8800 157.0000 1.0000
19.9000 154.0000 1.0000
19.9200 154.0000 1.0000
19.9400 138.0000 1.0000
19.9600 161.0000 1.0000
19.9800 161.0000 1.0000
20.0000 167.0000 1.0000
20.0200 145.0000 1.0000
20.0400 154.0000 1.0000
20.0600 173.0000 1.0000
20.0800 170.0000 1.0000
20.1000 155.0000 1.0000
20.1200 156.0000 1.0000
20.1400 180.0000 1.0000
20.1600 168.0000 1.0000
20.1800 166.0000 1.0000
20.2000 211.0000 1.0000
20.2200 202.0000 1.0000
20.2400 185.0000 1.0000
20.2600 183.0000 1.0000
20.2800 224.0000 1.0000
20.3000 221.0000 1.0000
20.3200 227.0000 1.0000
20.3400 241.0000 1.0000
20.3600 245.0000 1.0000
20.3800 299.0000 1.0000
20.4000 300.0000 1.0000
20.4200 341.0000 1.0000
20.4400 373.0000 1.0000
20.4600 394.0000 1.0000
20.4800 487.0000 1.0000
20.5000 562.0000 1.0000
20.5200 673.0000 1.0000
20.5400 822.0000 1.0000
20.5600 1018.0000 1.0000
20.5800 1223.0000 1.0000
20.6000 1506.0000 1.0000
20.6200 1662.0000 1.0000
20.6400 1841.0000 1.0000
20.6600 1961.0000 1.0000
20.6800 1910.0000 1.0000
20.7000 1773.0000 1.0000
20.7200 1501.0000 1.0000
20.7400 1210.0000 1.0000
20.7600 944.0000 1.0000
20.7800 786.0000 1.0000
20.8000 626.0000 1.0000
20.8200 532.0000 1.0000
20.8400 544.0000 1.0000
20.8600 494.0000 1.0000
20.8800 453.0000 1.0000
20.9000 387.0000 1.0000
20.9200 358.0000 1.0000
20.9400 271.0000 1.0000
20.9600 259.0000 1.0000
20.9800 239.0000 1.0000
21.0000 220.0000 1.0000
21.0200 228.0000 1.0000
21.0400 202.0000 1.0000
21.0600 179.0000 1.0000
21.0800 193.0000 1.0000
21.1000 192.0000 1.0000
21.1200 180.0000 1.0000
21.1400 197.0000 1.0000
21.1600 204.0000 1.0000
21.1800 183.0000 1.0000
21.2000 164.0000 1.0000
21.2200 178.0000 1.0000
21.2400 205.0000 1.0000
21.2600 179.0000 1.0000
21.2800 194.0000 1.0000
21.3000 188.0000 1.0000
21.3200 203.0000 1.0000
21.3400 185.0000 1.0000
21.3600 163.0000 1.0000
21.3800 205.0000 1.0000
21.4000 198.0000 1.0000
21.4200 192.0000 1.0000
21.4400 214.0000 1.0000
21.4600 212.0000 1.0000
21.4800 233.0000 1.0000
21.5000 235.0000 1.0000
21.5200 267.0000 1.0000
21.5400 264.0000 1.0000
21.5600 270.0000 1.0000
21.5800 304.0000 1.0000
21.6000 309.0000 1.0000
21.6200 348.0000 1.0000
21.6400 432.0000 1.0000
21.6600 491.0000 1.0000
21.6800 606.0000 1.0000
21.7000 680.0000 1.0000
21.7200 759.0000 1.0000
21.7400 846.0000 1.0000
21.7600 931.0000 1.0000
21.7800 1068.0000 1.0000
21.8000 1082.0000 1.0000
21.8200 1131.0000 1.0000
21.8400 1075.0000 1.0000
21.8600 919.0000 1.0000
21.8800 768.0000 1.0000
21.9000 658.0000 1.0000
21.9200 518.0000 1.0000
21.9400 450.0000 1.0000
21.9600 358.0000 1.0000
21.9800 299.0000 1.0000
22.0000 307.0000 1.0000
22.0200 273.0000 1.0000
22.0400 227.0000 1.0000
22.0600 250.0000 1.0000
22.0800 266.0000 1.0000
22.1000 251.0000 1.0000
22.1200 234.0000 1.0000
22.1400 248.0000 1.0000
22.1600 244.0000 1.0000
22.1800 234.0000 1.0000
22.2000 225.0000 1.0000
22.2200 235.0000 1.0000
22.2400 274.0000 1.0000
22.2600 247.0000 1.0000
22.2800 233.0000 1.0000
22.3000 228.0000 1.0000
22.3200 237.0000 1.0000
22.3400 233.0000 1.0000
22.3600 224.0000 1.0000
22.3800 217.0000 1.0000
22.4000 217.0000 1.0000
22.4200 230.0000 1.0000
22.4400 205.0000 1.0000
22.4600 193.0000 1.0000
22.4800 205.0000 1.0000
22.5000 185.0000 1.0000
22.5200 194.0000 1.0000
22.5400 210.0000 1.0000
22.5600 235.0000 1.0000
22.5800 225.0000 1.0000
22.6000 214.0000 1.0000
22.6200 261.0000 1.0000
22.6400 275.0000 1.0000
22.6600 280.0000 1.0000
22.6800 323.0000 1.0000
22.7000 340.0000 1.0000
22.7200 391.0000 1.0000
22.7400 361.0000 1.0000
22.7600 391.0000 1.0000
22.7800 411.0000 1.0000
22.8000 391.0000 1.0000
22.8200 354.0000 1.0000
22.8400 359.0000 1.0000
22.8600 369.0000 1.0000
22.8800 349.0000 1.0000
22.9000 324.0000 1.0000
22.9200 283.0000 1.0000
22.9400 315.0000 1.0000
22.9600 287.0000 1.0000
22.9800 317.0000 1.0000
23.0000 264.0000 1.0000
23.0200 268.0000 1.0000
23.0400 298.0000 1.0000
23.0600 297.0000 1.0000
23.0800 317.0000 1.0000
23.1000 321.0000 1.0000
23.1200 340.0000 1.0000
23.1400 342.0000 1.0000
23.1600 368.0000 1.0000
23.1800 390.0000 1.0000
23.2000 355.0000 1.0000
23.2200 412.0000 1.0000
23.2400 483.0000 1.0000
23.2600 525.0000 1.0000
23.2800 577.0000 1.0000
23.3000 651.0000 1.0000
23.3200 723.0000 1.0000
23.3400 776.0000 1.0000
23.3600 830.0000 1.0000
23.3800 859.0000 1.0000
23.4000 878.0000 1.0000
23.4200 806.0000 1.0000
23.4400 797.0000 1.0000
23.4600 708.0000 1.0000
23.4800 612.0000 1.0000
23.5000 568.0000 1.0000
23.5200 455.0000 1.0000
23.5400 444.0000 1.0000
23.5600 433.0000 1.0000
23.5800 443.0000 1.0000
23.6000 434.0000 1.0000
23.6200 454.0000 1.0000
23.6400 463.0000 1.0000
23.6600 509.0000 1.0000
23.6800 508.0000 1.0000
23.7000 539.0000 1.0000
23.7200 551.0000 1.0000
23.7400 572.0000 1.0000
23.7600 550.0000 1.0000
23.7800 495.0000 1.0000
23.8000 483.0000 1.0000
23.8200 467.0000 1.0000
23.8400 487.0000 1.0000
23.8600 504.0000 1.0000
23.8800 510.0000 1.0000
23.9000 526.0000 1.0000
23.9200 593.0000 1.0000
23.9400 654.0000 1.0000
23.9600 702.0000 1.0000
23.9800 735.0000 1.0000
24.0000 745.0000 1.0000
24.0200 807.0000 1.0000
24.0400 798.0000 1.0000
24.0600 826.0000 1.0000
24.0800 829.0000 1.0000
24.1000 819.0000 1.0000
24.1200 757.0000 1.0000
24.1400 698.0000 1.0000
24.1600 641.0000 1.0000
24.1800 544.0000 1.0000
24.2000 520.0000 1.0000
24.2200 442.0000 1.0000
24.2400 399.0000 1.0000
24.2600 333.0000 1.0000
24.2800 309.0000 1.0000
24.3000 288.0000 1.0000
24.3200 283.0000 1.0000
24.3400 287.0000 1.0000
24.3600 233.0000 1.0000
24.3800 233.0000 1.0000
24.4000 232.0000 1.0000
24.4200 240.0000 1.0000
24.4400 224.0000 1.0000
24.4600 212.0000 1.0000
24.4800 224.0000 1.0000
24.5000 237.0000 1.0000
24.5200 217.0000 1.0000
24.5400 230.0000 1.0000
24.5600 219.0000 1.0000
24.5800 208.0000 1.0000
24.6000 234.0000 1.0000
24.6200 231.0000 1.0000
24.6400 217.0000 1.0000
24.6600 215.0000 1.0000
24.6800 234.0000 1.0000
24.7000 225.0000 1.0000
24.7200 244.0000 1.0000
24.7400 226.0000 1.0000
24.7600 231.0000 1.0000
24.7800 261.0000 1.0000
24.8000 281.0000 1.0000
24.8200 266.0000 1.0000
24.8400 272.0000 1.0000
24.8600 301.0000 1.0000
24.8800 306.0000 1.0000
24.9000 308.0000 1.0000
24.9200 329.0000 1.0000
24.9400 314.0000 1.0000
24.9600 328.0000 1.0000
24.9800 317.0000 1.0000
25.0000 313.0000 1.0000
25.0200 309.0000 1.0000
25.0400 283.0000 1.0000
25.0600 305.0000 1.0000
25.0800 342.0000 1.0000
25.1000 361.0000 1.0000
25.1200 371.0000 1.0000
25.1400 401.0000 1.0000
25.1600 454.0000 1.0000
25.1800 543.0000 1.0000
25.2000 621.0000 1.0000
25.2200 692.0000 1.0000
25.2400 784.0000 1.0000
25.2600 917.0000 1.0000
25.2800 1093.0000 1.0000
25.3000 1262.0000 1.0000
25.3200 1426.0000 1.0000
25.3400 1582.0000 1.0000
25.3600 1699.0000 1.0000
25.3800 1765.0000 1.0000
25.4000 1740.0000 1.0000
25.4200 1549.0000 1.0000
25.4400 1348.0000 1.0000
25.4600 1113.0000 1.0000
25.4800 951.0000 1.0000
25.5000 769.0000 1.0000
25.5200 624.0000 1.0000
25.5400 489.0000 1.0000
25.5600 406.0000 1.0000
25.5800 378.0000 1.0000
25.6000 340.0000 1.0000
25.6200 333.0000 1.0000
25.6400 327.0000 1.0000
25.6600 314.0000 1.0000
25.6800 294.0000 1.0000
25.7000 289.0000 1.0000
25.7200 309.0000 1.0000
25.7400 298.0000 1.0000
25.7600 297.0000 1.0000
25.7800 295.0000 1.0000
25.8000 274.0000 1.0000
25.8200 286.0000 1.0000
25.8400 291.0000 1.0000
25.8600 308.0000 1.0000
25.8800 298.0000 1.0000
25.9000 317.0000 1.0000
25.9200 329.0000 1.0000
25.9400 363.0000 1.0000
25.9600 391.0000 1.0000
25.9800 419.0000 1.0000
26.0000 469.0000 1.0000
26.0200 518.0000 1.0000
26.0400 543.0000 1.0000
26.0600 618.0000 1.0000
26.0800 656.0000 1.0000
26.1000 713.0000 1.0000
26.1200 814.0000 1.0000
26.1400 906.0000 1.0000
26.1600 985.0000 1.0000
26.1800 1146.0000 1.0000
26.2000 1297.0000 1.0000
26.2200 1475.0000 1.0000
26.2400 1727.0000 1.0000
26.2600 2004.0000 1.0000
26.2800 2379.0000 1.0000
26.3000 2912.0000 1.0000
26.3200 3550.0000 1.0000
26.3400 4445.0000 1.0000
26.3600 5453.0000 1.0000
26.3800 6536.0000 1.0000
26.4000 7702.0000 1.0000
26.4200 8458.0000 1.0000
26.4400 8830.0000 1.0000
26.4600 8691.0000 1.0000
26.4800 7893.0000 1.0000
26.5000 6485.0000 1.0000
26.5200 5028.0000 1.0000
26.5400 3831.0000 1.0000
26.5600 2807.0000 1.0000
26.5800 1961.0000 1.0000
26.6000 1411.0000 1.0000
26.6200 1077.0000 1.0000
26.6400 915.0000 1.0000
26.6600 858.0000 1.0000
26.6800 808.0000 1.0000
26.7000 783.0000 1.0000
26.7200 762.0000 1.0000
26.7400 776.0000 1.0000
26.7600 790.0000 1.0000
26.7800 794.0000 1.0000
26.8000 791.0000 1.0000
26.8200 775.0000 1.0000
26.8400 787.0000 1.0000
26.8600 804.0000 1.0000
26.8800 807.0000 1.0000
26.9000 799.0000 1.0000
26.9200 765.0000 1.0000
26.9400 691.0000 1.0000
26.9600 621.0000 1.0000
26.9800 588.0000 1.0000
27.0000 593.0000 1.0000
27.0200 579.0000 1.0000
27.0400 549.0000 1.0000
27.0600 560.0000 1.0000
27.0800 573.0000 1.0000
27.1000 568.0000 1.0000
27.1200 614.0000 1.0000
27.1400 677.0000 1.0000
27.1600 737.0000 1.0000
27.1800 848.0000 1.0000
27.2000 944.0000 1.0000
27.2200 1096.0000 1.0000
27.2400 1274.0000 1.0000
27.2600 1404.0000 1.0000
27.2800 1491.0000 1.0000
27.3000 1534.0000 1.0000
27.3200 1606.0000 1.0000
27.3400 1578.0000 1.0000
27.3600 1439.0000 1.0000
27.3800 1272.0000 1.0000
27.4000 1159.0000 1.0000
27.4200 1120.0000 1.0000
27.4400 1110.0000 1.0000
27.4600 1161.0000 1.0000
27.4800 1257.0000 1.0000
27.5000 1425.0000 1.0000
27.5200 1617.0000 1.0000
27.5400 1783.0000 1.0000
27.5600 1890.0000 1.0000
27.5800 2044.0000 1.0000
27.6000 2217.0000 1.0000
27.6200 2357.0000 1.0000
27.6400 2522.0000 1.0000
27.6600 2711.0000 1.0000
27.6800 2888.0000 1.0000
27.7000 2990.0000 1.0000
27.7200 3195.0000 1.0000
27.7400 3306.0000 1.0000
27.7600 3290.0000 1.0000
27.7800 3224.0000 1.0000
27.8000 2974.0000 1.0000
27.8200 2704.0000 1.0000
27.8400 2392.0000 1.0000
27.8600 2040.0000 1.0000
27.8800 1699.0000 1.0000
27.9000 1417.0000 1.0000
27.9200 1228.0000 1.0000
27.9400 1060.0000 1.0000
27.9600 943.0000 1.0000
27.9800 887.0000 1.0000
28.0000 869.0000 1.0000
28.0200 835.0000 1.0000
28.0400 810.0000 1.0000
28.0600 836.0000 1.0000
28.0800 807.0000 1.0000
28.1000 720.0000 1.0000
28.1200 674.0000 1.0000
28.1400 653.0000 1.0000
28.1600 583.0000 1.0000
28.1800 521.0000 1.0000
28.2000 470.0000 1.0000
28.2200 420.0000 1.0000
28.2400 406.0000 1.0000
28.2600 370.0000 1.0000
28.2800 317.0000 1.0000
28.3000 293.0000 1.0000
28.3200 278.0000 1.0000
28.3400 256.0000 1.0000
28.3600 242.0000 1.0000
28.3800 231.0000 1.0000
28.4000 228.0000 1.0000
28.4200 213.0000 1.0000
28.4400 190.0000 1.0000
28.4600 190.0000 1.0000
28.4800 178.0000 1.0000
28.5000 170.0000 1.0000
28.5200 182.0000 1.0000
28.5400 175.0000 1.0000
28.5600 174.0000 1.0000
28.5800 177.0000 1.0000
28.6000 157.0000 1.0000
28.6200 144.0000 1.0000
28.6400 166.0000 1.0000
28.6600 178.0000 1.0000
28.6800 187.0000 1.0000
28.7000 195.0000 1.0000
28.7200 202.0000 1.0000
28.7400 222.0000 1.0000
28.7600 213.0000 1.0000
28.7800 222.0000 1.0000
28.8000 244.0000 1.0000
28.8200 251.0000 1.0000
28.8400 262.0000 1.0000
28.8600 254.0000 1.0000
28.8800 246.0000 1.0000
28.9000 255.0000 1.0000
28.9200 251.0000 1.0000
28.9400 236.0000 1.0000
28.9600 215.0000 1.0000
28.9800 205.0000 1.0000
29.0000 217.0000 1.0000
29.0200 192.0000 1.0000
29.0400 191.0000 1.0000
29.0600 212.0000 1.0000
29.0800 203.0000 1.0000
29.1000 181.0000 1.0000
29.1200 186.0000 1.0000
29.1400 204.0000 1.0000
29.1600 192.0000 1.0000
29.1800 202.0000 1.0000
29.2000 221.0000 1.0000
29.2200 239.0000 1.0000
29.2400 254.0000 1.0000
29.2600 261.0000 1.0000
29.2800 268.0000 1.0000
29.3000 263.0000 1.0000
29.3200 268.0000 1.0000
29.3400 259.0000 1.0000
29.3600 252.0000 1.0000
29.3800 276.0000 1.0000
29.4000 279.0000 1.0000
29.4200 288.0000 1.0000
29.4400 294.0000 1.0000
29.4600 323.0000 1.0000
29.4800 350.0000 1.0000
29.5000 371.0000 1.0000
29.5200 403.0000 1.0000
29.5400 428.0000 1.0000
29.5600 450.0000 1.0000
29.5800 441.0000 1.0000
29.6000 420.0000 1.0000
29.6200 421.0000 1.0000
29.6400 441.0000 1.0000
29.6600 442.0000 1.0000
29.6800 429.0000 1.0000
29.7000 416.0000 1.0000
29.7200 435.0000 1.0000
29.7400 438.0000 1.0000
29.7600 436.0000 1.0000
29.7800 460.0000 1.0000
29.8000 449.0000 1.0000
29.8200 428.0000 1.0000
29.8400 453.0000 1.0000
29.8600 469.0000 1.0000
29.8800 442.0000 1.0000
29.9000 433.0000 1.0000
29.9200 431.0000 1.0000
29.9400 440.0000 1.0000
29.9600 436.0000 1.0000
29.9800 426.0000 1.0000
30.0000 412.0000 1.0000
30.0200 435.0000 1.0000
30.0400 462.0000 1.0000
30.0600 468.0000 1.0000
30.0800 503.0000 1.0000
30.1000 549.0000 1.0000
30.1200 548.0000 1.0000
30.1400 561.0000 1.0000
30.1600 591.0000 1.0000
30.1800 601.0000 1.0000
30.2000 683.0000 1.0000
30.2200 701.0000 1.0000
30.2400 717.0000 1.0000
30.2600 681.0000 1.0000
30.2800 668.0000 1.0000
30.3000 617.0000 1.0000
30.3200 558.0000 1.0000
30.3400 552.0000 1.0000
30.3600 481.0000 1.0000
30.3800 401.0000 1.0000
30.4000 379.0000 1.0000
30.4200 340.0000 1.0000
30.4400 309.0000 1.0000
30.4600 290.0000 1.0000
30.4800 295.0000 1.0000
30.5000 322.0000 1.0000
30.5200 327.0000 1.0000
30.5400 368.0000 1.0000
30.5600 399.0000 1.0000
30.5800 398.0000 1.0000
30.6000 395.0000 1.0000
30.6200 413.0000 1.0000
30.6400 406.0000 1.0000
30.6600 391.0000 1.0000
30.6800 351.0000 1.0000
30.7000 317.0000 1.0000
30.7200 294.0000 1.0000
30.7400 269.0000 1.0000
30.7600 247.0000 1.0000
30.7800 208.0000 1.0000
30.8000 216.0000 1.0000
30.8200 196.0000 1.0000
30.8400 204.0000 1.0000
30.8600 197.0000 1.0000
30.8800 187.0000 1.0000
30.9000 189.0000 1.0000
30.9200 191.0000 1.0000
30.9400 187.0000 1.0000
30.9600 215.0000 1.0000
30.9800 237.0000 1.0000
31.0000 227.0000 1.0000
31.0200 248.0000 1.0000
31.0400 269.0000 1.0000
31.0600 294.0000 1.0000
31.0800 309.0000 1.0000
31.1000 322.0000 1.0000
31.1200 353.0000 1.0000
31.1400 361.0000 1.0000
31.1600 357.0000 1.0000
31.1800 346.0000 1.0000
31.2000 347.0000 1.0000
31.2200 352.0000 1.0000
31.2400 314.0000 1.0000
31.2600 333.0000 1.0000
31.2800 291.0000 1.0000
31.3000 285.0000 1.0000
31.3200 265.0000 1.0000
31.3400 227.0000 1.0000
31.3600 225.0000 1.0000
31.3800 204.0000 1.0000
31.4000 217.0000 1.0000
31.4200 226.0000 1.0000
31.4400 198.0000 1.0000
31.4600 201.0000 1.0000
31.4800 200.0000 1.0000
31.5000 220.0000 1.0000
31.5200 229.0000 1.0000
31.5400 200.0000 1.0000
31.5600 207.0000 1.0000
31.5800 195.0000 1.0000
31.6000 215.0000 1.0000
31.6200 209.0000 1.0000
31.6400 194.0000 1.0000
31.6600 192.0000 1.0000
31.6800 177.0000 1.0000
31.7000 179.0000 1.0000
31.7200 185.0000 1.0000
31.7400 169.0000 1.0000
31.7600 167.0000 1.0000
31.7800 155.0000 1.0000
31.8000 175.0000 1.0000
31.8200 172.0000 1.0000
31.8400 181.0000 1.0000
31.8600 183.0000 1.0000
31.8800 176.0000 1.0000
31.9000 158.0000 1.0000
31.9200 166.0000 1.0000
31.9400 159.0000 1.0000
31.9600 162.0000 1.0000
31.9800 179.0000 1.0000
32.0000 173.0000 1.0000
32.0200 172.0000 1.0000
32.0400 192.0000 1.0000
32.0600 192.0000 1.0000
32.0800 199.0000 1.0000
32.1000 195.0000 1.0000
32.1200 207.0000 1.0000
32.1400 194.0000 1.0000
32.1600 185.0000 1.0000
32.1800 199.0000 1.0000
32.2000 186.0000 1.0000
32.2200 170.0000 1.0000
32.2400 180.0000 1.0000
32.2600 165.0000 1.0000
32.2800 161.0000 1.0000
32.3000 156.0000 1.0000
32.3200 142.0000 1.0000
32.3400 148.0000 1.0000
32.3600 141.0000 1.0000
32.3800 153.0000 1.0000
32.4000 138.0000 1.0000
32.4200 149.0000 1.0000
32.4400 141.0000 1.0000
32.4600 147.0000 1.0000
32.4800 132.0000 1.0000
32.5000 111.0000 1.0000
32.5200 120.0000 1.0000
32.5400 124.0000 1.0000
32.5600 105.0000 1.0000
32.5800 114.0000 1.0000
32.6000 123.0000 1.0000
32.6200 141.0000 1.0000
32.6400 128.0000 1.0000
32.6600 136.0000 1.0000
32.6800 152.0000 1.0000
32.7000 157.0000 1.0000
32.7200 167.0000 1.0000
32.7400 165.0000 1.0000
32.7600 166.0000 1.0000
32.7800 171.0000 1.0000
32.8000 194.0000 1.0000
32.8200 180.0000 1.0000
32.8400 207.0000 1.0000
32.8600 173.0000 1.0000
32.8800 182.0000 1.0000
32.9000 156.0000 1.0000
32.9200 146.0000 1.0000
32.9400 128.0000 1.0000
32.9600 132.0000 1.0000
32.9800 135.0000 1.0000
33.0000 136.0000 1.0000
33.0200 140.0000 1.0000
33.0400 132.0000 1.0000
33.0600 136.0000 1.0000
33.0800 122.0000 1.0000
33.1000 142.0000 1.0000
33.1200 141.0000 1.0000
33.1400 140.0000 1.0000
33.1600 129.0000 1.0000
33.1800 130.0000 1.0000
33.2000 123.0000 1.0000
33.2200 141.0000 1.0000
33.2400 136.0000 1.0000
33.2600 128.0000 1.0000
33.2800 150.0000 1.0000
33.3000 121.0000 1.0000
33.3200 154.0000 1.0000
33.3400 147.0000 1.0000
33.3600 143.0000 1.0000
33.3800 153.0000 1.0000
33.4000 142.0000 1.0000
33.4200 125.0000 1.0000
33.4400 147.0000 1.0000
33.4600 144.0000 1.0000
33.4800 164.0000 1.0000
33.5000 173.0000 1.0000
33.5200 162.0000 1.0000
33.5400 162.0000 1.0000
33.5600 211.0000 1.0000
33.5800 218.0000 1.0000
33.6000 213.0000 1.0000
33.6200 231.0000 1.0000
33.6400 245.0000 1.0000
33.6600 239.0000 1.0000
33.6800 257.0000 1.0000
33.7000 251.0000 1.0000
33.7200 228.0000 1.0000
33.7400 255.0000 1.0000
33.7600 231.0000 1.0000
33.7800 214.0000 1.0000
33.8000 208.0000 1.0000
33.8200 200.0000 1.0000
33.8400 199.0000 1.0000
33.8600 193.0000 1.0000
33.8800 205.0000 1.0000
33.9000 186.0000 1.0000
33.9200 177.0000 1.0000
33.9400 165.0000 1.0000
33.9600 188.0000 1.0000
33.9800 225.0000 1.0000
34.0000 194.0000 1.0000
34.0200 215.0000 1.0000
34.0400 205.0000 1.0000
34.0600 224.0000 1.0000
34.0800 258.0000 1.0000
34.1000 244.0000 1.0000
34.1200 208.0000 1.0000
34.1400 234.0000 1.0000
34.1600 249.0000 1.0000
34.1800 263.0000 1.0000
34.2000 268.0000 1.0000
34.2200 299.0000 1.0000
34.2400 286.0000 1.0000
34.2600 324.0000 1.0000
34.2800 270.0000 1.0000
34.3000 264.0000 1.0000
34.3200 290.0000 1.0000
34.3400 301.0000 1.0000
34.3600 276.0000 1.0000
34.3800 269.0000 1.0000
34.4000 282.0000 1.0000
34.4200 295.0000 1.0000
34.4400 310.0000 1.0000
34.4600 261.0000 1.0000
34.4800 277.0000 1.0000
34.5000 286.0000 1.0000
34.5200 284.0000 1.0000
34.5400 316.0000 1.0000
34.5600 329.0000 1.0000
34.5800 300.0000 1.0000
34.6000 312.0000 1.0000
34.6200 329.0000 1.0000
34.6400 339.0000 1.0000
34.6600 357.0000 1.0000
34.6800 389.0000 1.0000
34.7000 458.0000 1.0000
34.7200 464.0000 1.0000
34.7400 523.0000 1.0000
34.7600 547.0000 1.0000
34.7800 586.0000 1.0000
34.8000 730.0000 1.0000
34.8200 843.0000 1.0000
34.8400 1058.0000 1.0000
34.8600 1186.0000 1.0000
34.8800 1379.0000 1.0000
34.9000 1652.0000 1.0000
34.9200 1833.0000 1.0000
34.9400 2044.0000 1.0000
34.9600 2000.0000 1.0000
34.9800 1931.0000 1.0000
35.0000 1774.0000 1.0000
35.0200 1617.0000 1.0000
35.0400 1401.0000 1.0000
35.0600 1196.0000 1.0000
35.0800 1033.0000 1.0000
35.1000 893.0000 1.0000
35.1200 791.0000 1.0000
35.1400 702.0000 1.0000
35.1600 593.0000 1.0000
35.1800 603.0000 1.0000
35.2000 599.0000 1.0000
35.2200 582.0000 1.0000
35.2400 535.0000 1.0000
35.2600 520.0000 1.0000
35.2800 473.0000 1.0000
35.3000 418.0000 1.0000
35.3200 416.0000 1.0000
35.3400 393.0000 1.0000
35.3600 367.0000 1.0000
35.3800 357.0000 1.0000
35.4000 332.0000 1.0000
35.4200 303.0000 1.0000
35.4400 280.0000 1.0000
35.4600 286.0000 1.0000
35.4800 254.0000 1.0000
35.5000 258.0000 1.0000
35.5200 277.0000 1.0000
35.5400 250.0000 1.0000
35.5600 245.0000 1.0000
35.5800 238.0000 1.0000
35.6000 203.0000 1.0000
35.6200 215.0000 1.0000
35.6400 214.0000 1.0000
35.6600 205.0000 1.0000
35.6800 224.0000 1.0000
35.7000 183.0000 1.0000
35.7200 164.0000 1.0000
35.7400 202.0000 1.0000
35.7600 183.0000 1.0000
35.7800 202.0000 1.0000
35.8000 197.0000 1.0000
35.8200 211.0000 1.0000
35.8400 204.0000 1.0000
35.8600 188.0000 1.0000
35.8800 205.0000 1.0000
35.9000 216.0000 1.0000
35.9200 221.0000 1.0000
35.9400 235.0000 1.0000
35.9600 224.0000 1.0000
35.9800 214.0000 1.0000
36.0000 207.0000 1.0000
36.0200 220.0000 1.0000
36.0400 226.0000 1.0000
36.0600 203.0000 1.0000
36.0800 220.0000 1.0000
36.1000 203.0000 1.0000
36.1200 198.0000 1.0000
36.1400 202.0000 1.0000
36.1600 228.0000 1.0000
36.1800 250.0000 1.0000
36.2000 284.0000 1.0000
36.2200 346.0000 1.0000
36.2400 369.0000 1.0000
36.2600 458.0000 1.0000
36.2800 591.0000 1.0000
36.3000 658.0000 1.0000
36.3200 736.0000 1.0000
36.3400 760.0000 1.0000
36.3600 784.0000 1.0000
36.3800 779.0000 1.0000
36.4000 765.0000 1.0000
36.4200 719.0000 1.0000
36.4400 552.0000 1.0000
36.4600 549.0000 1.0000
36.4800 488.0000 1.0000
36.5000 376.0000 1.0000
36.5200 359.0000 1.0000
36.5400 312.0000 1.0000
36.5600 284.0000 1.0000
36.5800 261.0000 1.0000
36.6000 230.0000 1.0000
36.6200 212.0000 1.0000
36.6400 217.0000 1.0000
36.6600 226.0000 1.0000
36.6800 225.0000 1.0000
36.7000 227.0000 1.0000
36.7200 210.0000 1.0000
36.7400 242.0000 1.0000
36.7600 241.0000 1.0000
36.7800 240.0000 1.0000
36.8000 240.0000 1.0000
36.8200 251.0000 1.0000
36.8400 246.0000 1.0000
36.8600 236.0000 1.0000
36.8800 234.0000 1.0000
36.9000 216.0000 1.0000
36.9200 222.0000 1.0000
36.9400 214.0000 1.0000
36.9600 219.0000 1.0000
36.9800 218.0000 1.0000
37.0000 208.0000 1.0000
37.0200 226.0000 1.0000
37.0400 208.0000 1.0000
37.0600 207.0000 1.0000
37.0800 219.0000 1.0000
37.1000 215.0000 1.0000
37.1200 227.0000 1.0000
37.1400 236.0000 1.0000
37.1600 235.0000 1.0000
37.1800 231.0000 1.0000
37.2000 231.0000 1.0000
37.2200 274.0000 1.0000
37.2400 259.0000 1.0000
37.2600 243.0000 1.0000
37.2800 240.0000 1.0000
37.3000 237.0000 1.0000
37.3200 273.0000 1.0000
37.3400 285.0000 1.0000
37.3600 302.0000 1.0000
37.3800 308.0000 1.0000
37.4000 324.0000 1.0000
37.4200 372.0000 1.0000
37.4400 402.0000 1.0000
37.4600 462.0000 1.0000
37.4800 529.0000 1.0000
37.5000 601.0000 1.0000
37.5200 663.0000 1.0000
37.5400 741.0000 1.0000
37.5600 848.0000 1.0000
37.5800 836.0000 1.0000
37.6000 786.0000 1.0000
37.6200 727.0000 1.0000
37.6400 689.0000 1.0000
37.6600 611.0000 1.0000
37.6800 520.0000 1.0000
37.7000 430.0000 1.0000
37.7200 371.0000 1.0000
37.7400 304.0000 1.0000
37.7600 278.0000 1.0000
37.7800 213.0000 1.0000
37.8000 175.0000 1.0000
37.8200 178.0000 1.0000
37.8400 178.0000 1.0000
37.8600 172.0000 1.0000
37.8800 170.0000 1.0000
37.9000 174.0000 1.0000
37.9200 182.0000 1.0000
37.9400 166.0000 1.0000
37.9600 160.0000 1.0000
37.9800 171.0000 1.0000
38.0000 166.0000 1.0000
38.0200 169.0000 1.0000
38.0400 152.0000 1.0000
38.0600 143.0000 1.0000
38.0800 158.0000 1.0000
38.1000 166.0000 1.0000
38.1200 153.0000 1.0000
38.1400 146.0000 1.0000
38.1600 141.0000 1.0000
38.1800 145.0000 1.0000
38.2000 153.0000 1.0000
38.2200 172.0000 1.0000
38.2400 154.0000 1.0000
38.2600 170.0000 1.0000
38.2800 172.0000 1.0000
38.3000 175.0000 1.0000
38.3200 184.0000 1.0000
38.3400 168.0000 1.0000
38.3600 155.0000 1.0000
38.3800 179.0000 1.0000
38.4000 182.0000 1.0000
38.4200 187.0000 1.0000
38.4400 207.0000 1.0000
38.4600 195.0000 1.0000
38.4800 186.0000 1.0000
38.5000 169.0000 1.0000
38.5200 172.0000 1.0000
38.5400 172.0000 1.0000
38.5600 167.0000 1.0000
38.5800 152.0000 1.0000
38.6000 185.0000 1.0000
38.6200 187.0000 1.0000
38.6400 191.0000 1.0000
38.6600 167.0000 1.0000
38.6800 175.0000 1.0000
38.7000 178.0000 1.0000
38.7200 181.0000 1.0000
38.7400 186.0000 1.0000
38.7600 194.0000 1.0000
38.7800 182.0000 1.0000
38.8000 195.0000 1.0000
38.8200 195.0000 1.0000
38.8400 190.0000 1.0000
38.8600 190.0000 1.0000
38.8800 184.0000 1.0000
38.9000 182.0000 1.0000
38.9200 216.0000 1.0000
38.9400 208.0000 1.0000
38.9600 185.0000 1.0000
38.9800 175.0000 1.0000
39.0000 182.0000 1.0000
39.0200 177.0000 1.0000
39.0400 178.0000 1.0000
39.0600 204.0000 1.0000
39.0800 231.0000 1.0000
39.1000 217.0000 1.0000
39.1200 232.0000 1.0000
39.1400 268.0000 1.0000
39.1600 309.0000 1.0000
39.1800 374.0000 1.0000
39.2000 438.0000 1.0000
39.2200 514.0000 1.0000
39.2400 567.0000 1.0000
39.2600 614.0000 1.0000
39.2800 620.0000 1.0000
39.3000 615.0000 1.0000
39.3200 586.0000 1.0000
39.3400 545.0000 1.0000
39.3600 482.0000 1.0000
39.3800 410.0000 1.0000
39.4000 353.0000 1.0000
39.4200 316.0000 1.0000
39.4400 282.0000 1.0000
39.4600 246.0000 1.0000
39.4800 217.0000 1.0000
39.5000 195.0000 1.0000
39.5200 172.0000 1.0000
39.5400 168.0000 1.0000
39.5600 173.0000 1.0000
39.5800 165.0000 1.0000
39.6000 146.0000 1.0000
39.6200 145.0000 1.0000
39.6400 149.0000 1.0000
39.6600 146.0000 1.0000
39.6800 144.0000 1.0000
39.7000 140.0000 1.0000
39.7200 148.0000 1.0000
39.7400 144.0000 1.0000
39.7600 129.0000 1.0000
39.7800 136.0000 1.0000
39.8000 151.0000 1.0000
39.8200 141.0000 1.0000
39.8400 131.0000 1.0000
39.8600 139.0000 1.0000
39.8800 149.0000 1.0000
39.9000 152.0000 1.0000
39.9200 147.0000 1.0000
39.9400 155.0000 1.0000
39.9600 180.0000 1.0000
39.9800 198.0000 1.0000
40.0000 239.0000 1.0000
40.0200 290.0000 1.0000
40.0400 303.0000 1.0000
40.0600 339.0000 1.0000
40.0800 370.0000 1.0000
40.1000 364.0000 1.0000
40.1200 364.0000 1.0000
40.1400 346.0000 1.0000
40.1600 323.0000 1.0000
40.1800 294.0000 1.0000
40.2000 270.0000 1.0000
40.2200 251.0000 1.0000
40.2400 220.0000 1.0000
40.2600 188.0000 1.0000
40.2800 161.0000 1.0000
40.3000 151.0000 1.0000
40.3200 144.0000 1.0000
40.3400 143.0000 1.0000
40.3600 140.0000 1.0000
40.3800 132.0000 1.0000
40.4000 124.0000 1.0000
40.4200 123.0000 1.0000
40.4400 134.0000 1.0000
40.4600 136.0000 1.0000
40.4800 137.0000 1.0000
40.5000 141.0000 1.0000
40.5200 158.0000 1.0000
40.5400 162.0000 1.0000
40.5600 142.0000 1.0000
40.5800 141.0000 1.0000
40.6000 142.0000 1.0000
40.6200 141.0000 1.0000
40.6400 150.0000 1.0000
40.6600 154.0000 1.0000
40.6800 139.0000 1.0000
40.7000 142.0000 1.0000
40.7200 151.0000 1.0000
40.7400 129.0000 1.0000
40.7600 148.0000 1.0000
40.7800 169.0000 1.0000
40.8000 153.0000 1.0000
40.8200 136.0000 1.0000
40.8400 132.0000 1.0000
40.8600 137.0000 1.0000
40.8800 142.0000 1.0000
40.9000 152.0000 1.0000
40.9200 140.0000 1.0000
40.9400 137.0000 1.0000
40.9600 148.0000 1.0000
40.9800 149.0000 1.0000
41.0000 140.0000 1.0000
41.0200 146.0000 1.0000
41.0400 149.0000 1.0000
41.0600 152.0000 1.0000
41.0800 155.0000 1.0000
41.1000 155.0000 1.0000
41.1200 146.0000 1.0000
41.1400 139.0000 1.0000
41.1600 147.0000 1.0000
41.1800 146.0000 1.0000
41.2000 134.0000 1.0000
41.2200 131.0000 1.0000
41.2400 134.0000 1.0000
41.2600 136.0000 1.0000
41.2800 142.0000 1.0000
41.3000 158.0000 1.0000
41.3200 165.0000 1.0000
41.3400 172.0000 1.0000
41.3600 173.0000 1.0000
41.3800 179.0000 1.0000
41.4000 176.0000 1.0000
41.4200 188.0000 1.0000
41.4400 214.0000 1.0000
41.4600 227.0000 1.0000
41.4800 224.0000 1.0000
41.5000 262.0000 1.0000
41.5200 293.0000 1.0000
41.5400 295.0000 1.0000
41.5600 299.0000 1.0000
41.5800 294.0000 1.0000
41.6000 316.0000 1.0000
41.6200 306.0000 1.0000
41.6400 279.0000 1.0000
41.6600 288.0000 1.0000
41.6800 261.0000 1.0000
41.7000 244.0000 1.0000
41.7200 224.0000 1.0000
41.7400 226.0000 1.0000
41.7600 215.0000 1.0000
41.7800 184.0000 1.0000
41.8000 174.0000 1.0000
41.8200 183.0000 1.0000
41.8400 180.0000 1.0000
41.8600 190.0000 1.0000
41.8800 176.0000 1.0000
41.9000 170.0000 1.0000
41.9200 162.0000 1.0000
41.9400 170.0000 1.0000
41.9600 170.0000 1.0000
41.9800 172.0000 1.0000
42.0000 198.0000 1.0000
42.0200 213.0000 1.0000
42.0400 225.0000 1.0000
42.0600 257.0000 1.0000
42.0800 278.0000 1.0000
42.1000 287.0000 1.0000
42.1200 301.0000 1.0000
42.1400 359.0000 1.0000
42.1600 410.0000 1.0000
42.1800 480.0000 1.0000
42.2000 514.0000 1.0000
42.2200 546.0000 1.0000
42.2400 565.0000 1.0000
42.2600 614.0000 1.0000
42.2800 621.0000 1.0000
42.3000 557.0000 1.0000
42.3200 505.0000 1.0000
42.3400 491.0000 1.0000
42.3600 471.0000 1.0000
42.3800 413.0000 1.0000
42.4000 343.0000 1.0000
42.4200 331.0000 1.0000
42.4400 308.0000 1.0000
42.4600 279.0000 1.0000
42.4800 267.0000 1.0000
42.5000 275.0000 1.0000
42.5200 245.0000 1.0000
42.5400 244.0000 1.0000
42.5600 273.0000 1.0000
42.5800 279.0000 1.0000
42.6000 270.0000 1.0000
42.6200 290.0000 1.0000
42.6400 278.0000 1.0000
42.6600 273.0000 1.0000
42.6800 279.0000 1.0000
42.7000 291.0000 1.0000
42.7200 279.0000 1.0000
42.7400 313.0000 1.0000
42.7600 299.0000 1.0000
42.7800 261.0000 1.0000
42.8000 289.0000 1.0000
42.8200 284.0000 1.0000
42.8400 280.0000 1.0000
42.8600 270.0000 1.0000
42.8800 283.0000 1.0000
42.9000 294.0000 1.0000
42.9200 307.0000 1.0000
42.9400 337.0000 1.0000
42.9600 353.0000 1.0000
42.9800 404.0000 1.0000
43.0000 482.0000 1.0000
43.0200 575.0000 1.0000
43.0400 697.0000 1.0000
43.0600 844.0000 1.0000
43.0800 1065.0000 1.0000
43.1000 1371.0000 1.0000
43.1200 1526.0000 1.0000
43.1400 1650.0000 1.0000
43.1600 1703.0000 1.0000
43.1800 1732.0000 1.0000
43.2000 1696.0000 1.0000
43.2200 1575.0000 1.0000
43.2400 1362.0000 1.0000
43.2600 1202.0000 1.0000
43.2800 1058.0000 1.0000
43.3000 908.0000 1.0000
43.3200 779.0000 1.0000
43.3400 611.0000 1.0000
43.3600 507.0000 1.0000
43.3800 365.0000 1.0000
43.4000 284.0000 1.0000
43.4200 273.0000 1.0000
43.4400 255.0000 1.0000
43.4600 217.0000 1.0000
43.4800 239.0000 1.0000
43.5000 214.0000 1.0000
43.5200 179.0000 1.0000
43.5400 190.0000 1.0000
43.5600 184.0000 1.0000
43.5800 185.0000 1.0000
43.6000 154.0000 1.0000
43.6200 164.0000 1.0000
43.6400 174.0000 1.0000
43.6600 162.0000 1.0000
43.6800 148.0000 1.0000
43.7000 137.0000 1.0000
43.7200 137.0000 1.0000
43.7400 127.0000 1.0000
43.7600 120.0000 1.0000
43.7800 127.0000 1.0000
43.8000 119.0000 1.0000
43.8200 154.0000 1.0000
43.8400 143.0000 1.0000
43.8600 143.0000 1.0000
43.8800 149.0000 1.0000
43.9000 142.0000 1.0000
43.9200 157.0000 1.0000
43.9400 148.0000 1.0000
43.9600 155.0000 1.0000
43.9800 149.0000 1.0000
44.0000 139.0000 1.0000
44.0200 141.0000 1.0000
44.0400 134.0000 1.0000
44.0600 131.0000 1.0000
44.0800 134.0000 1.0000
44.1000 129.0000 1.0000
44.1200 121.0000 1.0000
44.1400 129.0000 1.0000
44.1600 123.0000 1.0000
44.1800 118.0000 1.0000
44.2000 121.0000 1.0000
44.2200 104.0000 1.0000
44.2400 117.0000 1.0000
44.2600 119.0000 1.0000
44.2800 131.0000 1.0000
44.3000 125.0000 1.0000
44.3200 133.0000 1.0000
44.3400 131.0000 1.0000
44.3600 131.0000 1.0000
44.3800 126.0000 1.0000
44.4000 125.0000 1.0000
44.4200 119.0000 1.0000
44.4400 144.0000 1.0000
44.4600 146.0000 1.0000
44.4800 149.0000 1.0000
44.5000 141.0000 1.0000
44.5200 136.0000 1.0000
44.5400 169.0000 1.0000
44.5600 144.0000 1.0000
44.5800 171.0000 1.0000
44.6000 177.0000 1.0000
44.6200 169.0000 1.0000
44.6400 172.0000 1.0000
44.6600 139.0000 1.0000
44.6800 160.0000 1.0000
44.7000 158.0000 1.0000
44.7200 144.0000 1.0000
44.7400 157.0000 1.0000
44.7600 145.0000 1.0000
44.7800 166.0000 1.0000
44.8000 179.0000 1.0000
44.8200 159.0000 1.0000
44.8400 179.0000 1.0000
44.8600 166.0000 1.0000
44.8800 167.0000 1.0000
44.9000 198.0000 1.0000
44.9200 187.0000 1.0000
44.9400 174.0000 1.0000
44.9600 175.0000 1.0000
44.9800 173.0000 1.0000
45.0000 206.0000 1.0000
45.0200 185.0000 1.0000
45.0400 167.0000 1.0000
45.0600 200.0000 1.0000
45.0800 220.0000 1.0000
45.1000 168.0000 1.0000
45.1200 202.0000 1.0000
45.1400 177.0000 1.0000
45.1600 192.0000 1.0000
45.1800 157.0000 1.0000
45.2000 180.0000 1.0000
45.2200 177.0000 1.0000
45.2400 180.0000 1.0000
45.2600 197.0000 1.0000
45.2800 183.0000 1.0000
45.3000 182.0000 1.0000
45.3200 171.0000 1.0000
45.3400 180.0000 1.0000
45.3600 176.0000 1.0000
45.3800 227.0000 1.0000
45.4000 195.0000 1.0000
45.4200 206.0000 1.0000
45.4400 239.0000 1.0000
45.4600 240.0000 1.0000
45.4800 250.0000 1.0000
45.5000 260.0000 1.0000
45.5200 332.0000 1.0000
45.5400 371.0000 1.0000
45.5600 393.0000 1.0000
45.5800 384.0000 1.0000
45.6000 434.0000 1.0000
45.6200 468.0000 1.0000
45.6400 436.0000 1.0000
45.6600 441.0000 1.0000
45.6800 376.0000 1.0000
45.7000 342.0000 1.0000
45.7200 312.0000 1.0000
45.7400 278.0000 1.0000
45.7600 264.0000 1.0000
45.7800 258.0000 1.0000
45.8000 184.0000 1.0000
45.8200 211.0000 1.0000
45.8400 177.0000 1.0000
45.8600 172.0000 1.0000
45.8800 167.0000 1.0000
45.9000 162.0000 1.0000
45.9200 172.0000 1.0000
45.9400 181.0000 1.0000
45.9600 158.0000 1.0000
45.9800 155.0000 1.0000
46.0000 146.0000 1.0000
46.0200 150.0000 1.0000
46.0400 150.0000 1.0000
46.0600 156.0000 1.0000
46.0800 144.0000 1.0000
46.1000 139.0000 1.0000
46.1200 146.0000 1.0000
46.1400 143.0000 1.0000
46.1600 129.0000 1.0000
46.1800 126.0000 1.0000
46.2000 129.0000 1.0000
46.2200 121.0000 1.0000
46.2400 131.0000 1.0000
46.2600 113.0000 1.0000
46.2800 112.0000 1.0000
46.3000 117.0000 1.0000
46.3200 121.0000 1.0000
46.3400 125.0000 1.0000
46.3600 120.0000 1.0000
46.3800 142.0000 1.0000
46.4000 130.0000 1.0000
46.4200 107.0000 1.0000
46.4400 118.0000 1.0000
46.4600 133.0000 1.0000
46.4800 111.0000 1.0000
46.5000 134.0000 1.0000
46.5200 113.0000 1.0000
46.5400 136.0000 1.0000
46.5600 140.0000 1.0000
46.5800 159.0000 1.0000
46.6000 144.0000 1.0000
46.6200 153.0000 1.0000
46.6400 149.0000 1.0000
46.6600 163.0000 1.0000
46.6800 157.0000 1.0000
46.7000 145.0000 1.0000
46.7200 148.0000 1.0000
46.7400 148.0000 1.0000
46.7600 150.0000 1.0000
46.7800 168.0000 1.0000
46.8000 161.0000 1.0000
46.8200 173.0000 1.0000
46.8400 144.0000 1.0000
46.8600 163.0000 1.0000
46.8800 162.0000 1.0000
46.9000 144.0000 1.0000
46.9200 158.0000 1.0000
46.9400 165.0000 1.0000
46.9600 172.0000 1.0000
46.9800 184.0000 1.0000
47.0000 161.0000 1.0000
47.0200 151.0000 1.0000
47.0400 152.0000 1.0000
47.0600 140.0000 1.0000
47.0800 150.0000 1.0000
47.1000 151.0000 1.0000
47.1200 137.0000 1.0000
47.1400 133.0000 1.0000
47.1600 140.0000 1.0000
47.1800 138.0000 1.0000
47.2000 136.0000 1.0000
47.2200 144.0000 1.0000
47.2400 153.0000 1.0000
47.2600 156.0000 1.0000
47.2800 157.0000 1.0000
47.3000 157.0000 1.0000
47.3200 148.0000 1.0000
47.3400 149.0000 1.0000
47.3600 139.0000 1.0000
47.3800 143.0000 1.0000
47.4000 141.0000 1.0000
47.4200 141.0000 1.0000
47.4400 140.0000 1.0000
47.4600 131.0000 1.0000
47.4800 132.0000 1.0000
47.5000 148.0000 1.0000
47.5200 145.0000 1.0000
47.5400 124.0000 1.0000
47.5600 121.0000 1.0000
47.5800 132.0000 1.0000
47.6000 135.0000 1.0000
47.6200 142.0000 1.0000
47.6400 155.0000 1.0000
47.6600 155.0000 1.0000
47.6800 131.0000 1.0000
47.7000 137.0000 1.0000
47.7200 142.0000 1.0000
47.7400 135.0000 1.0000
47.7600 141.0000 1.0000
47.7800 144.0000 1.0000
47.8000 140.0000 1.0000
47.8200 142.0000 1.0000
47.8400 144.0000 1.0000
47.8600 135.0000 1.0000
47.8800 145.0000 1.0000
47.9000 158.0000 1.0000
47.9200 145.0000 1.0000
47.9400 139.0000 1.0000
47.9600 155.0000 1.0000
47.9800 173.0000 1.0000
48.0000 170.0000 1.0000
48.0200 177.0000 1.0000
48.0400 190.0000 1.0000
48.0600 201.0000 1.0000
48.0800 211.0000 1.0000
48.1000 206.0000 1.0000
48.1200 225.0000 1.0000
48.1400 215.0000 1.0000
48.1600 199.0000 1.0000
48.1800 202.0000 1.0000
48.2000 191.0000 1.0000
48.2200 168.0000 1.0000
48.2400 168.0000 1.0000
48.2600 179.0000 1.0000
48.2800 164.0000 1.0000
48.3000 146.0000 1.0000
48.3200 144.0000 1.0000
48.3400 135.0000 1.0000
48.3600 136.0000 1.0000
48.3800 132.0000 1.0000
48.4000 123.0000 1.0000
48.4200 124.0000 1.0000
48.4400 133.0000 1.0000
48.4600 138.0000 1.0000
48.4800 124.0000 1.0000
48.5000 118.0000 1.0000
48.5200 131.0000 1.0000
48.5400 138.0000 1.0000
48.5600 134.0000 1.0000
48.5800 129.0000 1.0000
48.6000 140.0000 1.0000
48.6200 142.0000 1.0000
48.6400 147.0000 1.0000
48.6600 145.0000 1.0000
48.6800 155.0000 1.0000
48.7000 176.0000 1.0000
48.7200 167.0000 1.0000
48.7400 156.0000 1.0000
48.7600 172.0000 1.0000
48.7800 178.0000 1.0000
48.8000 183.0000 1.0000
48.8200 192.0000 1.0000
48.8400 187.0000 1.0000
48.8600 198.0000 1.0000
48.8800 200.0000 1.0000
48.9000 193.0000 1.0000
48.9200 213.0000 1.0000
48.9400 225.0000 1.0000
48.9600 223.0000 1.0000
48.9800 233.0000 1.0000
49.0000 228.0000 1.0000
49.0200 232.0000 1.0000
49.0400 253.0000 1.0000
49.0600 242.0000 1.0000
49.0800 222.0000 1.0000
49.1000 223.0000 1.0000
49.1200 214.0000 1.0000
49.1400 216.0000 1.0000
49.1600 211.0000 1.0000
49.1800 192.0000 1.0000
49.2000 191.0000 1.0000
49.2200 190.0000 1.0000
49.2400 185.0000 1.0000
49.2600 180.0000 1.0000
49.2800 187.0000 1.0000
49.3000 191.0000 1.0000
49.3200 187.0000 1.0000
49.3400 181.0000 1.0000
49.3600 202.0000 1.0000
49.3800 205.0000 1.0000
49.4000 183.0000 1.0000
49.4200 193.0000 1.0000
49.4400 216.0000 1.0000
49.4600 219.0000 1.0000
49.4800 235.0000 1.0000
49.5000 259.0000 1.0000
49.5200 259.0000 1.0000
49.5400 277.0000 1.0000
49.5600 305.0000 1.0000
49.5800 333.0000 1.0000
49.6000 332.0000 1.0000
49.6200 352.0000 1.0000
49.6400 380.0000 1.0000
49.6600 380.0000 1.0000
49.6800 374.0000 1.0000
49.7000 380.0000 1.0000
49.7200 412.0000 1.0000
49.7400 421.0000 1.0000
49.7600 412.0000 1.0000
49.7800 440.0000 1.0000
49.8000 484.0000 1.0000
49.8200 519.0000 1.0000
49.8400 544.0000 1.0000
49.8600 676.0000 1.0000
49.8800 802.0000 1.0000
49.9000 930.0000 1.0000
49.9200 1075.0000 1.0000
49.9400 1148.0000 1.0000
49.9600 1182.0000 1.0000
49.9800 1130.0000 1.0000
50.0000 1000.0000 1.0000
50.0200 927.0000 1.0000
50.0400 832.0000 1.0000
50.0600 749.0000 1.0000
50.0800 739.0000 1.0000
50.1000 673.0000 1.0000
50.1200 545.0000 1.0000
50.1400 455.0000 1.0000
50.1600 371.0000 1.0000
50.1800 304.0000 1.0000
50.2000 256.0000 1.0000
50.2200 244.0000 1.0000
50.2400 208.0000 1.0000
50.2600 224.0000 1.0000
50.2800 247.0000 1.0000
50.3000 277.0000 1.0000
50.3200 306.0000 1.0000
50.3400 313.0000 1.0000
50.3600 323.0000 1.0000
50.3800 366.0000 1.0000
50.4000 359.0000 1.0000
50.4200 365.0000 1.0000
50.4400 405.0000 1.0000
50.4600 388.0000 1.0000
50.4800 424.0000 1.0000
50.5000 407.0000 1.0000
50.5200 385.0000 1.0000
50.5400 372.0000 1.0000
50.5600 388.0000 1.0000
50.5800 360.0000 1.0000
50.6000 323.0000 1.0000
50.6200 325.0000 1.0000
50.6400 333.0000 1.0000
50.6600 281.0000 1.0000
50.6800 255.0000 1.0000
50.7000 234.0000 1.0000
50.7200 230.0000 1.0000
50.7400 200.0000 1.0000
50.7600 195.0000 1.0000
50.7800 192.0000 1.0000
50.8000 171.0000 1.0000
50.8200 169.0000 1.0000
50.8400 182.0000 1.0000
50.8600 192.0000 1.0000
50.8800 195.0000 1.0000
50.9000 227.0000 1.0000
50.9200 246.0000 1.0000
50.9400 238.0000 1.0000
50.9600 253.0000 1.0000
50.9800 263.0000 1.0000
51.0000 254.0000 1.0000
51.0200 268.0000 1.0000
51.0400 299.0000 1.0000
51.0600 284.0000 1.0000
51.0800 313.0000 1.0000
51.1000 302.0000 1.0000
51.1200 287.0000 1.0000
51.1400 296.0000 1.0000
51.1600 286.0000 1.0000
51.1800 280.0000 1.0000
51.2000 250.0000 1.0000
51.2200 253.0000 1.0000
51.2400 263.0000 1.0000
51.2600 235.0000 1.0000
51.2800 250.0000 1.0000
51.3000 209.0000 1.0000
51.3200 212.0000 1.0000
51.3400 201.0000 1.0000
51.3600 195.0000 1.0000
51.3800 180.0000 1.0000
51.4000 196.0000 1.0000
51.4200 178.0000 1.0000
51.4400 158.0000 1.0000
51.4600 155.0000 1.0000
51.4800 163.0000 1.0000
51.5000 181.0000 1.0000
51.5200 170.0000 1.0000
51.5400 158.0000 1.0000
51.5600 169.0000 1.0000
51.5800 148.0000 1.0000
51.6000 134.0000 1.0000
51.6200 149.0000 1.0000
51.6400 126.0000 1.0000
51.6600 131.0000 1.0000
51.6800 116.0000 1.0000
51.7000 147.0000 1.0000
51.7200 141.0000 1.0000
51.7400 140.0000 1.0000
51.7600 126.0000 1.0000
51.7800 122.0000 1.0000
51.8000 131.0000 1.0000
51.8200 117.0000 1.0000
51.8400 113.0000 1.0000
51.8600 140.0000 1.0000
51.8800 145.0000 1.0000
51.9000 154.0000 1.0000
51.9200 168.0000 1.0000
51.9400 173.0000 1.0000
51.9600 173.0000 1.0000
51.9800 173.0000 1.0000
52.0000 170.0000 1.0000
52.0200 197.0000 1.0000
52.0400 200.0000 1.0000
52.0600 182.0000 1.0000
52.0800 186.0000 1.0000
52.1000 202.0000 1.0000
52.1200 200.0000 1.0000
52.1400 237.0000 1.0000
52.1600 236.0000 1.0000
52.1800 252.0000 1.0000
52.2000 239.0000 1.0000
52.2200 283.0000 1.0000
52.2400 376.0000 1.0000
52.2600 386.0000 1.0000
52.2800 491.0000 1.0000
52.3000 559.0000 1.0000
52.3200 708.0000 1.0000
52.3400 799.0000 1.0000
52.3600 830.0000 1.0000
52.3800 857.0000 1.0000
52.4000 776.0000 1.0000
52.4200 784.0000 1.0000
52.4400 682.0000 1.0000
52.4600 679.0000 1.0000
52.4800 659.0000 1.0000
52.5000 582.0000 1.0000
52.5200 512.0000 1.0000
52.5400 531.0000 1.0000
52.5600 442.0000 1.0000
52.5800 422.0000 1.0000
52.6000 315.0000 1.0000
52.6200 290.0000 1.0000
52.6400 239.0000 1.0000
52.6600 202.0000 1.0000
52.6800 223.0000 1.0000
52.7000 201.0000 1.0000
52.7200 186.0000 1.0000
52.7400 197.0000 1.0000
52.7600 191.0000 1.0000
52.7800 197.0000 1.0000
52.8000 192.0000 1.0000
52.8200 170.0000 1.0000
52.8400 169.0000 1.0000
52.8600 194.0000 1.0000
52.8800 189.0000 1.0000
52.9000 182.0000 1.0000
52.9200 196.0000 1.0000
52.9400 180.0000 1.0000
52.9600 209.0000 1.0000
52.9800 202.0000 1.0000
53.0000 200.0000 1.0000
53.0200 193.0000 1.0000
53.0400 191.0000 1.0000
53.0600 212.0000 1.0000
53.0800 204.0000 1.0000
53.1000 206.0000 1.0000
53.1200 177.0000 1.0000
53.1400 183.0000 1.0000
53.1600 189.0000 1.0000
53.1800 185.0000 1.0000
53.2000 163.0000 1.0000
53.2200 150.0000 1.0000
53.2400 150.0000 1.0000
53.2600 164.0000 1.0000
53.2800 157.0000 1.0000
53.3000 142.0000 1.0000
53.3200 122.0000 1.0000
53.3400 128.0000 1.0000
53.3600 137.0000 1.0000
53.3800 142.0000 1.0000
53.4000 152.0000 1.0000
53.4200 142.0000 1.0000
53.4400 127.0000 1.0000
53.4600 138.0000 1.0000
53.4800 132.0000 1.0000
53.5000 118.0000 1.0000
53.5200 134.0000 1.0000
53.5400 126.0000 1.0000
53.5600 126.0000 1.0000
53.5800 138.0000 1.0000
53.6000 124.0000 1.0000
53.6200 126.0000 1.0000
53.6400 137.0000 1.0000
53.6600 144.0000 1.0000
53.6800 126.0000 1.0000
53.7000 130.0000 1.0000
53.7200 134.0000 1.0000
53.7400 146.0000 1.0000
53.7600 124.0000 1.0000
53.7800 130.0000 1.0000
53.8000 157.0000 1.0000
53.8200 155.0000 1.0000
53.8400 152.0000 1.0000
53.8600 151.0000 1.0000
53.8800 152.0000 1.0000
53.9000 144.0000 1.0000
53.9200 139.0000 1.0000
53.9400 144.0000 1.0000
53.9600 154.0000 1.0000
53.9800 146.0000 1.0000
54.0000 142.0000 1.0000
54.0200 138.0000 1.0000
54.0400 150.0000 1.0000
54.0600 138.0000 1.0000
54.0800 144.0000 1.0000
54.1000 148.0000 1.0000
54.1200 151.0000 1.0000
54.1400 153.0000 1.0000
54.1600 162.0000 1.0000
54.1800 155.0000 1.0000
54.2000 160.0000 1.0000
54.2200 154.0000 1.0000
54.2400 149.0000 1.0000
54.2600 167.0000 1.0000
54.2800 168.0000 1.0000
54.3000 183.0000 1.0000
54.3200 159.0000 1.0000
54.3400 154.0000 1.0000
54.3600 154.0000 1.0000
54.3800 153.0000 1.0000
54.4000 147.0000 1.0000
54.4200 146.0000 1.0000
54.4400 161.0000 1.0000
54.4600 146.0000 1.0000
54.4800 160.0000 1.0000
54.5000 162.0000 1.0000
54.5200 158.0000 1.0000
54.5400 169.0000 1.0000
54.5600 189.0000 1.0000
54.5800 200.0000 1.0000
54.6000 242.0000 1.0000
54.6200 274.0000 1.0000
54.6400 308.0000 1.0000
54.6600 366.0000 1.0000
54.6800 392.0000 1.0000
54.7000 409.0000 1.0000
54.7200 397.0000 1.0000
54.7400 361.0000 1.0000
54.7600 342.0000 1.0000
54.7800 324.0000 1.0000
54.8000 318.0000 1.0000
54.8200 319.0000 1.0000
54.8400 307.0000 1.0000
54.8600 290.0000 1.0000
54.8800 275.0000 1.0000
54.9000 251.0000 1.0000
54.9200 221.0000 1.0000
54.9400 203.0000 1.0000
54.9600 180.0000 1.0000
54.9800 173.0000 1.0000
55.0000 173.0000 1.0000
55.0200 185.0000 1.0000
55.0400 189.0000 1.0000
55.0600 198.0000 1.0000
55.0800 230.0000 1.0000
55.1000 230.0000 1.0000
55.1200 234.0000 1.0000
55.1400 254.0000 1.0000
55.1600 247.0000 1.0000
55.1800 237.0000 1.0000
55.2000 248.0000 1.0000
55.2200 246.0000 1.0000
55.2400 235.0000 1.0000
55.2600 221.0000 1.0000
55.2800 208.0000 1.0000
55.3000 194.0000 1.0000
55.3200 191.0000 1.0000
55.3400 199.0000 1.0000
55.3600 193.0000 1.0000
55.3800 185.0000 1.0000
55.4000 180.0000 1.0000
55.4200 165.0000 1.0000
55.4400 151.0000 1.0000
55.4600 148.0000 1.0000
55.4800 142.0000 1.0000
55.5000 137.0000 1.0000
55.5200 143.0000 1.0000
55.5400 150.0000 1.0000
55.5600 138.0000 1.0000
55.5800 136.0000 1.0000
55.6000 153.0000 1.0000
55.6200 148.0000 1.0000
55.6400 141.0000 1.0000
55.6600 129.0000 1.0000
55.6800 132.0000 1.0000
55.7000 133.0000 1.0000
55.7200 131.0000 1.0000
55.7400 141.0000 1.0000
55.7600 148.0000 1.0000
55.7800 147.0000 1.0000
55.8000 133.0000 1.0000
55.8200 128.0000 1.0000
55.8400 126.0000 1.0000
55.8600 128.0000 1.0000
55.8800 137.0000 1.0000
55.9000 129.0000 1.0000
55.9200 139.0000 1.0000
55.9400 147.0000 1.0000
55.9600 133.0000 1.0000
55.9800 139.0000 1.0000
56.0000 137.0000 1.0000
56.0200 137.0000 1.0000
56.0400 136.0000 1.0000
56.0600 125.0000 1.0000
56.0800 127.0000 1.0000
56.1000 130.0000 1.0000
56.1200 138.0000 1.0000
56.1400 148.0000 1.0000
56.1600 144.0000 1.0000
56.1800 127.0000 1.0000
56.2000 131.0000 1.0000
56.2200 151.0000 1.0000
56.2400 152.0000 1.0000
56.2600 133.0000 1.0000
56.2800 127.0000 1.0000
56.3000 127.0000 1.0000
56.3200 120.0000 1.0000
56.3400 139.0000 1.0000
56.3600 162.0000 1.0000
56.3800 146.0000 1.0000
56.4000 138.0000 1.0000
56.4200 149.0000 1.0000
56.4400 146.0000 1.0000
56.4600 145.0000 1.0000
56.4800 136.0000 1.0000
56.5000 135.0000 1.0000
56.5200 142.0000 1.0000
56.5400 154.0000 1.0000
56.5600 140.0000 1.0000
56.5800 133.0000 1.0000
56.6000 134.0000 1.0000
56.6200 139.0000 1.0000
56.6400 132.0000 1.0000
56.6600 145.0000 1.0000
56.6800 152.0000 1.0000
56.7000 149.0000 1.0000
56.7200 159.0000 1.0000
56.7400 163.0000 1.0000
56.7600 163.0000 1.0000
56.7800 157.0000 1.0000
56.8000 154.0000 1.0000
56.8200 153.0000 1.0000
56.8400 147.0000 1.0000
56.8600 143.0000 1.0000
56.8800 150.0000 1.0000
56.9000 163.0000 1.0000
56.9200 163.0000 1.0000
56.9400 172.0000 1.0000
56.9600 188.0000 1.0000
56.9800 178.0000 1.0000
57.0000 178.0000 1.0000
57.0200 211.0000 1.0000
57.0400 219.0000 1.0000
57.0600 223.0000 1.0000
57.0800 253.0000 1.0000
57.1000 268.0000 1.0000
57.1200 286.0000 1.0000
57.1400 328.0000 1.0000
57.1600 373.0000 1.0000
57.1800 454.0000 1.0000
57.2000 542.0000 1.0000
57.2200 645.0000 1.0000
57.2400 810.0000 1.0000
57.2600 1015.0000 1.0000
57.2800 1156.0000 1.0000
57.3000 1354.0000 1.0000
57.3200 1435.0000 1.0000
57.3400 1458.0000 1.0000
57.3600 1438.0000 1.0000
57.3800 1284.0000 1.0000
57.4000 1142.0000 1.0000
57.4200 1041.0000 1.0000
57.4400 952.0000 1.0000
57.4600 957.0000 1.0000
57.4800 927.0000 1.0000
57.5000 794.0000 1.0000
57.5200 743.0000 1.0000
57.5400 629.0000 1.0000
57.5600 509.0000 1.0000
57.5800 425.0000 1.0000
57.6000 347.0000 1.0000
57.6200 289.0000 1.0000
57.6400 269.0000 1.0000
57.6600 247.0000 1.0000
57.6800 213.0000 1.0000
57.7000 206.0000 1.0000
57.7200 213.0000 1.0000
57.7400 180.0000 1.0000
57.7600 192.0000 1.0000
57.7800 165.0000 1.0000
57.8000 171.0000 1.0000
57.8200 170.0000 1.0000
57.8400 178.0000 1.0000
57.8600 175.0000 1.0000
57.8800 178.0000 1.0000
57.9000 154.0000 1.0000
57.9200 146.0000 1.0000
57.9400 143.0000 1.0000
57.9600 127.0000 1.0000
57.9800 128.0000 1.0000
58.0000 158.0000 1.0000
58.0200 160.0000 1.0000
58.0400 151.0000 1.0000
58.0600 143.0000 1.0000
58.0800 146.0000 1.0000
58.1000 154.0000 1.0000
58.1200 152.0000 1.0000
58.1400 144.0000 1.0000
58.1600 148.0000 1.0000
58.1800 138.0000 1.0000
58.2000 151.0000 1.0000
58.2200 154.0000 1.0000
58.2400 151.0000 1.0000
58.2600 149.0000 1.0000
58.2800 164.0000 1.0000
58.3000 179.0000 1.0000
58.3200 158.0000 1.0000
58.3400 160.0000 1.0000
58.3600 191.0000 1.0000
58.3800 158.0000 1.0000
58.4000 172.0000 1.0000
58.4200 184.0000 1.0000
58.4400 175.0000 1.0000
58.4600 203.0000 1.0000
58.4800 192.0000 1.0000
58.5000 193.0000 1.0000
58.5200 202.0000 1.0000
58.5400 203.0000 1.0000
58.5600 197.0000 1.0000
58.5800 189.0000 1.0000
58.6000 191.0000 1.0000
58.6200 187.0000 1.0000
58.6400 173.0000 1.0000
58.6600 179.0000 1.0000
58.6800 161.0000 1.0000
58.7000 164.0000 1.0000
58.7200 151.0000 1.0000
58.7400 155.0000 1.0000
58.7600 160.0000 1.0000
58.7800 141.0000 1.0000
58.8000 132.0000 1.0000
58.8200 124.0000 1.0000
58.8400 140.0000 1.0000
58.8600 138.0000 1.0000
58.8800 129.0000 1.0000
58.9000 118.0000 1.0000
58.9200 132.0000 1.0000
58.9400 121.0000 1.0000
58.9600 128.0000 1.0000
58.9800 125.0000 1.0000
59.0000 120.0000 1.0000
59.0200 126.0000 1.0000
59.0400 135.0000 1.0000
59.0600 163.0000 1.0000
59.0800 154.0000 1.0000
59.1000 146.0000 1.0000
59.1200 142.0000 1.0000
59.1400 127.0000 1.0000
59.1600 133.0000 1.0000
59.1800 158.0000 1.0000
59.2000 164.0000 1.0000
59.2200 150.0000 1.0000
59.2400 168.0000 1.0000
59.2600 155.0000 1.0000
59.2800 153.0000 1.0000
59.3000 154.0000 1.0000
59.3200 146.0000 1.0000
59.3400 154.0000 1.0000
59.3600 154.0000 1.0000
59.3800 184.0000 1.0000
59.4000 174.0000 1.0000
59.4200 201.0000 1.0000
59.4400 192.0000 1.0000
59.4600 200.0000 1.0000
59.4800 200.0000 1.0000
59.5000 191.0000 1.0000
59.5200 187.0000 1.0000
59.5400 226.0000 1.0000
59.5600 240.0000 1.0000
59.5800 249.0000 1.0000
59.6000 277.0000 1.0000
59.6200 253.0000 1.0000
59.6400 275.0000 1.0000
59.6600 325.0000 1.0000
59.6800 388.0000 1.0000
59.7000 451.0000 1.0000
59.7200 525.0000 1.0000
59.7400 625.0000 1.0000
59.7600 715.0000 1.0000
59.7800 732.0000 1.0000
59.8000 781.0000 1.0000
59.8200 694.0000 1.0000
59.8400 663.0000 1.0000
59.8600 635.0000 1.0000
59.8800 553.0000 1.0000
59.9000 487.0000 1.0000
59.9200 503.0000 1.0000
59.9400 461.0000 1.0000
59.9600 501.0000 1.0000
59.9800 474.0000 1.0000
60.0000 377.0000 1.0000
60.0200 328.0000 1.0000
60.0400 293.0000 1.0000
60.0600 261.0000 1.0000
60.0800 228.0000 1.0000
60.1000 225.0000 1.0000
60.1200 209.0000 1.0000
60.1400 186.0000 1.0000
60.1600 190.0000 1.0000
60.1800 200.0000 1.0000
60.2000 173.0000 1.0000
60.2200 166.0000 1.0000
60.2400 155.0000 1.0000
60.2600 176.0000 1.0000
60.2800 174.0000 1.0000
60.3000 152.0000 1.0000
60.3200 177.0000 1.0000
60.3400 148.0000 1.0000
60.3600 148.0000 1.0000
60.3800 144.0000 1.0000
60.4000 148.0000 1.0000
60.4200 157.0000 1.0000
60.4400 144.0000 1.0000
60.4600 150.0000 1.0000
60.4800 155.0000 1.0000
60.5000 160.0000 1.0000
60.5200 145.0000 1.0000
60.5400 166.0000 1.0000
60.5600 164.0000 1.0000
60.5800 143.0000 1.0000
60.6000 142.0000 1.0000
60.6200 146.0000 1.0000
60.6400 157.0000 1.0000
60.6600 172.0000 1.0000
60.6800 163.0000 1.0000
60.7000 162.0000 1.0000
60.7200 159.0000 1.0000
60.7400 168.0000 1.0000
60.7600 137.0000 1.0000
60.7800 155.0000 1.0000
60.8000 135.0000 1.0000
60.8200 149.0000 1.0000
60.8400 153.0000 1.0000
60.8600 168.0000 1.0000
60.8800 189.0000 1.0000
60.9000 170.0000 1.0000
60.9200 184.0000 1.0000
60.9400 207.0000 1.0000
60.9600 188.0000 1.0000
60.9800 210.0000 1.0000
61.0000 227.0000 1.0000
61.0200 219.0000 1.0000
61.0400 201.0000 1.0000
61.0600 243.0000 1.0000
61.0800 207.0000 1.0000
61.1000 248.0000 1.0000
61.1200 283.0000 1.0000
61.1400 270.0000 1.0000
61.1600 267.0000 1.0000
61.1800 281.0000 1.0000
61.2000 259.0000 1.0000
61.2200 250.0000 1.0000
61.2400 239.0000 1.0000
61.2600 234.0000 1.0000
61.2800 196.0000 1.0000
61.3000 254.0000 1.0000
61.3200 221.0000 1.0000
61.3400 201.0000 1.0000
61.3600 200.0000 1.0000
61.3800 188.0000 1.0000
61.4000 179.0000 1.0000
61.4200 173.0000 1.0000
61.4400 159.0000 1.0000
61.4600 200.0000 1.0000
61.4800 186.0000 1.0000
61.5000 198.0000 1.0000
61.5200 195.0000 1.0000
61.5400 181.0000 1.0000
61.5600 188.0000 1.0000
61.5800 221.0000 1.0000
61.6000 217.0000 1.0000
61.6200 199.0000 1.0000
61.6400 219.0000 1.0000
61.6600 215.0000 1.0000
61.6800 247.0000 1.0000
61.7000 188.0000 1.0000
61.7200 195.0000 1.0000
61.7400 204.0000 1.0000
61.7600 187.0000 1.0000
61.7800 208.0000 1.0000
61.8000 204.0000 1.0000
61.8200 184.0000 1.0000
61.8400 200.0000 1.0000
61.8600 213.0000 1.0000
61.8800 190.0000 1.0000
61.9000 189.0000 1.0000
61.9200 195.0000 1.0000
61.9400 165.0000 1.0000
61.9600 177.0000 1.0000
61.9800 202.0000 1.0000
62.0000 171.0000 1.0000
62.0200 193.0000 1.0000
62.0400 174.0000 1.0000
62.0600 157.0000 1.0000
62.0800 191.0000 1.0000
62.1000 178.0000 1.0000
62.1200 147.0000 1.0000
62.1400 145.0000 1.0000
62.1600 125.0000 1.0000
62.1800 150.0000 1.0000
62.2000 161.0000 1.0000
62.2200 160.0000 1.0000
62.2400 157.0000 1.0000
62.2600 158.0000 1.0000
62.2800 167.0000 1.0000
62.3000 152.0000 1.0000
62.3200 185.0000 1.0000
62.3400 176.0000 1.0000
62.3600 147.0000 1.0000
62.3800 176.0000 1.0000
62.4000 165.0000 1.0000
62.4200 173.0000 1.0000
62.4400 169.0000 1.0000
62.4600 187.0000 1.0000
62.4800 170.0000 1.0000
62.5000 161.0000 1.0000
62.5200 141.0000 1.0000
62.5400 154.0000 1.0000
62.5600 144.0000 1.0000
62.5800 164.0000 1.0000
62.6000 175.0000 1.0000
62.6200 152.0000 1.0000
62.6400 169.0000 1.0000
62.6600 152.0000 1.0000
62.6800 163.0000 1.0000
62.7000 151.0000 1.0000
62.7200 136.0000 1.0000
62.7400 149.0000 1.0000
62.7600 136.0000 1.0000
62.7800 137.0000 1.0000
62.8000 175.0000 1.0000
62.8200 163.0000 1.0000
62.8400 149.0000 1.0000
62.8600 184.0000 1.0000
62.8800 148.0000 1.0000
62.9000 147.0000 1.0000
62.9200 155.0000 1.0000
62.9400 152.0000 1.0000
62.9600 152.0000 1.0000
62.9800 130.0000 1.0000
63.0000 141.0000 1.0000
63.0200 146.0000 1.0000
63.0400 143.0000 1.0000
63.0600 130.0000 1.0000
63.0800 128.0000 1.0000
63.1000 138.0000 1.0000
63.1200 149.0000 1.0000
63.1400 151.0000 1.0000
63.1600 133.0000 1.0000
63.1800 150.0000 1.0000
63.2000 159.0000 1.0000
63.2200 159.0000 1.0000
63.2400 140.0000 1.0000
63.2600 171.0000 1.0000
63.2800 186.0000 1.0000
63.3000 174.0000 1.0000
63.3200 189.0000 1.0000
63.3400 164.0000 1.0000
63.3600 196.0000 1.0000
63.3800 189.0000 1.0000
63.4000 181.0000 1.0000
63.4200 207.0000 1.0000
63.4400 215.0000 1.0000
63.4600 186.0000 1.0000
63.4800 182.0000 1.0000
63.5000 222.0000 1.0000
63.5200 221.0000 1.0000
63.5400 223.0000 1.0000
63.5600 240.0000 1.0000
63.5800 235.0000 1.0000
63.6000 240.0000 1.0000
63.6200 226.0000 1.0000
63.6400 225.0000 1.0000
63.6600 246.0000 1.0000
63.6800 253.0000 1.0000
63.7000 257.0000 1.0000
63.7200 268.0000 1.0000
63.7400 259.0000 1.0000
63.7600 250.0000 1.0000
63.7800 276.0000 1.0000
63.8000 289.0000 1.0000
63.8200 284.0000 1.0000
63.8400 277.0000 1.0000
63.8600 312.0000 1.0000
63.8800 279.0000 1.0000
63.9000 267.0000 1.0000
63.9200 257.0000 1.0000
63.9400 240.0000 1.0000
63.9600 236.0000 1.0000
63.9800 225.0000 1.0000
64.0000 205.0000 1.0000
64.0200 236.0000 1.0000
64.0400 226.0000 1.0000
64.0600 230.0000 1.0000
64.0800 201.0000 1.0000
64.1000 190.0000 1.0000
64.1200 198.0000 1.0000
64.1400 177.0000 1.0000
64.1600 168.0000 1.0000
64.1800 164.0000 1.0000
64.2000 174.0000 1.0000
64.2200 156.0000 1.0000
64.2400 166.0000 1.0000
64.2600 173.0000 1.0000
64.2800 144.0000 1.0000
64.3000 149.0000 1.0000
64.3200 145.0000 1.0000
64.3400 160.0000 1.0000
64.3600 155.0000 1.0000
64.3800 152.0000 1.0000
64.4000 142.0000 1.0000
64.4200 160.0000 1.0000
64.4400 165.0000 1.0000
64.4600 153.0000 1.0000
64.4800 144.0000 1.0000
64.5000 150.0000 1.0000
64.5200 155.0000 1.0000
64.5400 157.0000 1.0000
64.5600 136.0000 1.0000
64.5800 151.0000 1.0000
64.6000 157.0000 1.0000
64.6200 155.0000 1.0000
64.6400 154.0000 1.0000
64.6600 147.0000 1.0000
64.6800 139.0000 1.0000
64.7000 158.0000 1.0000
64.7200 154.0000 1.0000
64.7400 161.0000 1.0000
64.7600 165.0000 1.0000
64.7800 161.0000 1.0000
64.8000 186.0000 1.0000
64.8200 168.0000 1.0000
64.8400 159.0000 1.0000
64.8600 140.0000 1.0000
64.8800 137.0000 1.0000
64.9000 161.0000 1.0000
64.9200 157.0000 1.0000
64.9400 164.0000 1.0000
64.9600 168.0000 1.0000
64.9800 168.0000 1.0000
65.0000 168.0000 1.0000
*RAS_INT_END
*RAS_DATA_END
