*RAS_DATA_START
*RAS_HEADER_START
*CORR_POS_DB_NAME "Angle Correction ASC6 SC WITH Mono_04082019"
*CORR_POS_GONIO_RADIUS ""
*CORR_POS_NODE_INDEX01 ""
*CORR_POS_NODE_INDEX02 ""
*CORR_POS_NODE_INDEX03 ""
*CORR_POS_NODE_INDEX04 ""
*CORR_POS_NODE_INDEX05 ""
*CORR_POS_NODE_INDEX06 ""
*CORR_POS_NODE_INDEX07 ""
*CORR_POS_NODE_INDEX08 ""
*CORR_POS_NODE_INDEX09 ""
*CORR_POS_NODE_INDEX10 ""
*CORR_POS_NODE_INDEX11 ""
*CORR_POS_NODE_LABEL01 "Si(111)"
*CORR_POS_NODE_LABEL02 "Si(220)"
*CORR_POS_NODE_LABEL03 "Si(311)"
*CORR_POS_NODE_LABEL04 "Si(400)"
*CORR_POS_NODE_LABEL05 "Si(331)"
*CORR_POS_NODE_LABEL06 "Si(422)"
*CORR_POS_NODE_LABEL07 "Si(511)"
*CORR_POS_NODE_LABEL08 "Si(440)"
*CORR_POS_NODE_LABEL09 "Si(531)"
*CORR_POS_NODE_LABEL10 "Si(620)"
*CORR_POS_NODE_LABEL11 "Si(533)"
*CORR_POS_NODE_POS_CALC01 "28.377"
*CORR_POS_NODE_POS_CALC02 "47.2506"
*CORR_POS_NODE_POS_CALC03 "56.0725"
*CORR_POS_NODE_POS_CALC04 "69.0822"
*CORR_POS_NODE_POS_CALC05 "76.3294"
*CORR_POS_NODE_POS_CALC06 "87.9853"
*CORR_POS_NODE_POS_CALC07 "94.9091"
*CORR_POS_NODE_POS_CALC08 "106.668"
*CORR_POS_NODE_POS_CALC09 "114.054"
*CORR_POS_NODE_POS_CALC10 "127.511"
*CORR_POS_NODE_POS_CALC11 "136.864"
*CORR_POS_NODE_POS_MEAS01 "28.5058"
*CORR_POS_NODE_POS_MEAS02 "47.345"
*CORR_POS_NODE_POS_MEAS03 "56.1421"
*CORR_POS_NODE_POS_MEAS04 "69.1304"
*CORR_POS_NODE_POS_MEAS05 "76.366"
*CORR_POS_NODE_POS_MEAS06 "88.0213"
*CORR_POS_NODE_POS_MEAS07 "94.9406"
*CORR_POS_NODE_POS_MEAS08 "106.689"
*CORR_POS_NODE_POS_MEAS09 "114.065"
*CORR_POS_NODE_POS_MEAS10 "127.518"
*CORR_POS_NODE_POS_MEAS11 "136.869"
*CORR_POS_OPT_ATTR "集中法"
*CORR_POS_PARAM_MU ""
*CORR_POS_PARAM_PL ""
*CORR_POS_SEMODEL_TYPE "0"
*CORR_POS_STANDARD_TYPE ""
*CORR_POS_VALUE_ANALYZER "None"
*CORR_POS_VALUE_CMONO "None"
*CORR_POS_VALUE_IMONO "None"
*CORR_POS_VALUE_IS "1.250deg"
*CORR_POS_VALUE_ISL "10.0mm"
*CORR_POS_VALUE_ISOLLER "5.0deg"
*CORR_POS_VALUE_RS1 "1.250deg"
*CORR_POS_VALUE_RS2 "0.3mm"
*CORR_POS_VALUE_RSOLLER "5.0deg"
*CORR_POS_XG_FOCUS_L ""
*CORR_POS_XG_WAVE_TYPE ""
*CORR_POS_XG_WAVE_VALUE ""
*DISP_FMT_X "%.2f"
*DISP_FMT_Y "%.0f"
*DISP_FULLSCALE "5061.6000000000"
*DISP_LINE_COLOR "255.0000000000"
*DISP_LINE_STYLE "0.0000000000"
*DISP_LINE_WIDTH "0.2500000000"
*DISP_NOTE "Collected Data-24"
*DISP_OFFSET_Y "0.0000000000"
*DISP_PEAKSEARCH_UNIT_Y "CPS"
*DISP_RANGE_BOTTOM "0.0000000000"
*DISP_RANGE_LEFT "5.0000000000"
*DISP_RANGE_LOGCUTOFF "0.0100000000"
*DISP_RANGE_RIGHT "65.0000000000"
*DISP_RANGE_TOP "5061.6000000000"
*DISP_SCALE_MODE_Y "0.0000000000"
*DISP_TAB_NAME "Theta/2-Theta"
*DISP_TITLE_Y "Intensity"
*DISP_UNIT_Y "CPS"
*DISP_WINDOW_NAME "MSG_MACROENGINE"
*FILE_COMMENT " "
*FILE_MD5 ""
*FILE_MEMO " "
*FILE_OPERATOR "Administrator"
*FILE_PART_ID "MEAS_PBEA_00223"
*FILE_SAMPLE " "
*FILE_TYPE "RAS_RAW"
*FILE_USERGROUP "System Manager"
*FILE_VERSION "1.0000000000"
*HW_ATTACHMENT_ID "ATT1031"
*HW_ATTACHMENT_NAME "6サンプルチェンジャ|ASC-6"
*HW_COUNTER_ID-0 "CUT0021"
*HW_COUNTER_ID-1 "CUT0020"
*HW_COUNTER_ID-2 "CUT0020"
*HW_COUNTER_ID-3 "CMC0021"
*HW_COUNTER_NAME-0 "SC-70|SC-70"
*HW_COUNTER_NAME-1 "None|None"
*HW_COUNTER_NAME-2 "None|None"
*HW_COUNTER_NAME-3 "検出器モノクロメータ|Detector monochromator"
*HW_COUNTER_SELECT_NAME "SC-70|SC-70"
*HW_ECP_HV "671.5000000000"
*HW_ECP_HV_UNIT "V"
*HW_GONIOMETER_ID "GON0070"
*HW_GONIOMETER_NAME "MiniFlex 300/600|MiniFlex 300/600"
*HW_GONIOMETER_RADIUS-0 "79.0"
*HW_GONIOMETER_RADIUS-1 "91.5"
*HW_GONIOMETER_RADIUS-2 "150.0"
*HW_GONIOMETER_RADIUS-3 "0"
*HW_GONIOMETER_RADIUS-4 "103.4"
*HW_GONIOMETER_RADIUS-5 "150.0"
*HW_GONIOMETER_RADIUS-6 "46.6"
*HW_GONIOMETER_RADIUS-7 "160.0"
*HW_I_OPT_ID-0 "ISL0021"
*HW_I_OPT_ID-1 "ISO0021"
*HW_I_OPT_NAME-0 "発散スリット|Divergence slit"
*HW_I_OPT_NAME-1 "入射平行スリット|Incident parallel slit"
*HW_R_ATTENUATER_AUTOMODE "0"
*HW_R_OPT_ID-0 "RSS0021"
*HW_R_OPT_ID-1 "RSO0021"
*HW_R_OPT_ID-2 "RRS0021"
*HW_R_OPT_NAME-0 "散乱スリット|Scattering slit"
*HW_R_OPT_NAME-1 "受光平行スリット|Receiving soller slit"
*HW_R_OPT_NAME-2 "受光スリット|Receiving slit"
*HW_SAMPLE_HOLDER_ID "SMP0000"
*HW_SAMPLE_HOLDER_NAME "無し|None"
*HW_XG_CURRENT_MAX "15"
*HW_XG_CURRENT_MIN "2"
*HW_XG_CURRENT_RESOLUTION "1"
*HW_XG_CURRENT_UNIT "mA"
*HW_XG_FOCUS "1mm x 10mm"
*HW_XG_FOCUS_TYPE "Normal"
*HW_XG_ID "1060"
*HW_XG_NAME "300W/600W 封入管-B|300W/600W Sealed tube-B"
*HW_XG_TARGET_ATOMIC_NUMBER "29.0000000000"
*HW_XG_TARGET_NAME "Cu"
*HW_XG_TYPE "Hermetic"
*HW_XG_VOLTAGE_MAX "40"
*HW_XG_VOLTAGE_MIN "20"
*HW_XG_VOLTAGE_RESOLUTION "1"
*HW_XG_VOLTAGE_UNIT "kV"
*HW_XG_WATT_MAX "0.600"
*HW_XG_WATT_UNIT "kW"
*HW_XG_WAVE_LENGTH_ALPHA1 "1.540593"
*HW_XG_WAVE_LENGTH_ALPHA2 "1.544414"
*HW_XG_WAVE_LENGTH_BETA "1.392250"
*MEAS_COND_AXIS_NAME-0 "Theta/2-Theta"
*MEAS_COND_AXIS_NAME-1 "Spin"
*MEAS_COND_AXIS_NAME-2 "Change"
*MEAS_COND_AXIS_NAME-3 "Soller(inc.)"
*MEAS_COND_AXIS_NAME-4 "IHS"
*MEAS_COND_AXIS_NAME-5 "DS"
*MEAS_COND_AXIS_NAME-6 "SS"
*MEAS_COND_AXIS_NAME-7 "Soller(rec.)"
*MEAS_COND_AXIS_NAME-8 "RS"
*MEAS_COND_AXIS_NAME-9 "Filter"
*MEAS_COND_AXIS_NAME-10 "Monochromator"
*MEAS_COND_AXIS_NAME-11 "HV"
*MEAS_COND_AXIS_NAME-12 "PHA"
*MEAS_COND_AXIS_NAME_INTERNAL-0 "TwoThetaTheta"
*MEAS_COND_AXIS_NAME_INTERNAL-1 "Spin"
*MEAS_COND_AXIS_NAME_INTERNAL-2 "Change"
*MEAS_COND_AXIS_NAME_INTERNAL-3 "IncidentSollerSlit"
*MEAS_COND_AXIS_NAME_INTERNAL-4 "IncidentAxdSlit"
*MEAS_COND_AXIS_NAME_INTERNAL-5 "IncidentSlitBox"
*MEAS_COND_AXIS_NAME_INTERNAL-6 "ReceivingSlitBox1"
*MEAS_COND_AXIS_NAME_INTERNAL-7 "ReceivingSollerSlit"
*MEAS_COND_AXIS_NAME_INTERNAL-8 "ReceivingSlitBox2"
*MEAS_COND_AXIS_NAME_INTERNAL-9 "Filter"
*MEAS_COND_AXIS_NAME_INTERNAL-10 "CounterMonochromator"
*MEAS_COND_AXIS_NAME_INTERNAL-11 "HV"
*MEAS_COND_AXIS_NAME_INTERNAL-12 "PHA"
*MEAS_COND_AXIS_NAME_MAGICNO-0 "268632064.0000000000"
*MEAS_COND_AXIS_NAME_MAGICNO-1 "16842752.0000000000"
*MEAS_COND_AXIS_NAME_MAGICNO-2 "16842752.0000000000"
*MEAS_COND_AXIS_NAME_MAGICNO-3 "20971521.0000000000"
*MEAS_COND_AXIS_NAME_MAGICNO-4 "22020097.0000000000"
*MEAS_COND_AXIS_NAME_MAGICNO-5 "22020097.0000000000"
*MEAS_COND_AXIS_NAME_MAGICNO-6 "23068673.0000000000"
*MEAS_COND_AXIS_NAME_MAGICNO-7 "20971521.0000000000"
*MEAS_COND_AXIS_NAME_MAGICNO-8 "23068673.0000000000"
*MEAS_COND_AXIS_NAME_MAGICNO-9 "20971521.0000000000"
*MEAS_COND_AXIS_NAME_MAGICNO-10 "20971521.0000000000"
*MEAS_COND_AXIS_NAME_MAGICNO-11 "0.0000000000"
*MEAS_COND_AXIS_NAME_MAGICNO-12 "0.0000000000"
*MEAS_COND_AXIS_OFFSET-0 "0.0000000000"
*MEAS_COND_AXIS_OFFSET-1 "-"
*MEAS_COND_AXIS_OFFSET-2 "-"
*MEAS_COND_AXIS_OFFSET-3 "-"
*MEAS_COND_AXIS_OFFSET-4 "-"
*MEAS_COND_AXIS_OFFSET-5 "-"
*MEAS_COND_AXIS_OFFSET-6 "-"
*MEAS_COND_AXIS_OFFSET-7 "-"
*MEAS_COND_AXIS_OFFSET-8 "-"
*MEAS_COND_AXIS_OFFSET-9 "-"
*MEAS_COND_AXIS_OFFSET-10 "-"
*MEAS_COND_AXIS_OFFSET-11 "-"
*MEAS_COND_AXIS_OFFSET-12 "-"
*MEAS_COND_AXIS_POSITION-0 "65.0000000000"
*MEAS_COND_AXIS_POSITION-1 "0.0000000000"
*MEAS_COND_AXIS_POSITION-2 "6.0000000000"
*MEAS_COND_AXIS_POSITION-3 "5.0deg"
*MEAS_COND_AXIS_POSITION-4 "10.0mm"
*MEAS_COND_AXIS_POSITION-5 "1.250deg"
*MEAS_COND_AXIS_POSITION-6 "1.250deg"
*MEAS_COND_AXIS_POSITION-7 "5.0deg"
*MEAS_COND_AXIS_POSITION-8 "0.3mm"
*MEAS_COND_AXIS_POSITION-9 "None"
*MEAS_COND_AXIS_POSITION-10 "Bent"
*MEAS_COND_AXIS_POSITION-11 "671.5000000000"
*MEAS_COND_AXIS_POSITION-12 "551.2500000000"
*MEAS_COND_AXIS_UNIT-0 "deg"
*MEAS_COND_AXIS_UNIT-1 ""
*MEAS_COND_AXIS_UNIT-2 ""
*MEAS_COND_AXIS_UNIT-3 ""
*MEAS_COND_AXIS_UNIT-4 ""
*MEAS_COND_AXIS_UNIT-5 ""
*MEAS_COND_AXIS_UNIT-6 ""
*MEAS_COND_AXIS_UNIT-7 ""
*MEAS_COND_AXIS_UNIT-8 ""
*MEAS_COND_AXIS_UNIT-9 ""
*MEAS_COND_AXIS_UNIT-10 ""
*MEAS_COND_AXIS_UNIT-11 "V"
*MEAS_COND_AXIS_UNIT-12 "mV"
*MEAS_COND_CORRECTION_SLIT_COUNTERMONO "None"
*MEAS_COND_CORRECTION_SLIT_DS "1.250deg"
*MEAS_COND_CORRECTION_SLIT_FILTER "None"
*MEAS_COND_CORRECTION_SLIT_IHS "10.0mm"
*MEAS_COND_CORRECTION_SLIT_RS "0.3mm"
*MEAS_COND_CORRECTION_SLIT_SOLLER_INC "5.0deg"
*MEAS_COND_CORRECTION_SLIT_SOLLER_REC "5.0deg"
*MEAS_COND_CORRECTION_SLIT_SS "1.250deg"
*MEAS_COND_COUNTER_CNTLOSS_CORR "0.0000000000"
*MEAS_COND_COUNTER_PHABASE "551.2500000000"
*MEAS_COND_COUNTER_PHAWINDOW "926.2500000000"
*MEAS_COND_COUNTER_PHA_UNIT "mV"
*MEAS_COND_COUNTER_TAUDIFF "0.2500000000"
*MEAS_COND_COUNTER_TAUINT "0.7500000000"
*MEAS_COND_IRRADIATION_MODE "OFF"
*MEAS_COND_IRRADIATION_WIDTH ""
*MEAS_COND_OPT_ATTR " "
*MEAS_COND_OPT_NAME ""
*MEAS_COND_UNSYMMETRIC_MODE "OFF"
*MEAS_COND_XG_CURRENT "15.0000000000"
*MEAS_COND_XG_VOLTAGE "40.0000000000"
*MEAS_COND_XG_WAVE_TYPE "Ka"
*MEAS_DATA_COUNT "3001.0000000000"
*MEAS_SCAN_AXIS_X "Theta/2-Theta"
*MEAS_SCAN_AXIS_X_INTERNAL "TwoThetaTheta"
*MEAS_SCAN_END_TIME "08/05/25 04:34:42"
*MEAS_SCAN_MODE "STEP"
*MEAS_SCAN_MONITOR "0"
*MEAS_SCAN_RESOLUTION_X "0.0025"
*MEAS_SCAN_SPEED "2.00"
*MEAS_SCAN_SPEED_UNIT "sec."
*MEAS_SCAN_SPEED_USER "2.00"
*MEAS_SCAN_START "5.0000000000"
*MEAS_SCAN_START_TIME "08/05/25 02:49:25"
*MEAS_SCAN_STEP "0.0200000000"
*MEAS_SCAN_STOP "65.0000000000"
*MEAS_SCAN_UNIT_X "deg"
*MEAS_SCAN_UNIT_Y "counts"
*SLIT_SYSTEM "0"
*RAS_HEADER_END
*RAS_INT_START
5.0000 885.0000 1.0000
5.0200 993.0000 1.0000
5.0400 893.0000 1.0000
5.0600 882.0000 1.0000
5.0800 919.0000 1.0000
5.1000 838.0000 1.0000
5.1200 926.0000 1.0000
5.1400 857.0000 1.0000
5.1600 912.0000 1.0000
5.1800 872.0000 1.0000
5.2000 862.0000 1.0000
5.2200 794.0000 1.0000
5.2400 727.0000 1.0000
5.2600 785.0000 1.0000
5.2800 849.0000 1.0000
5.3000 800.0000 1.0000
5.3200 790.0000 1.0000
5.3400 832.0000 1.0000
5.3600 798.0000 1.0000
5.3800 885.0000 1.0000
5.4000 754.0000 1.0000
5.4200 748.0000 1.0000
5.4400 786.0000 1.0000
5.4600 787.0000 1.0000
5.4800 780.0000 1.0000
5.5000 856.0000 1.0000
5.5200 873.0000 1.0000
5.5400 812.0000 1.0000
5.5600 762.0000 1.0000
5.5800 783.0000 1.0000
5.6000 787.0000 1.0000
5.6200 894.0000 1.0000
5.6400 762.0000 1.0000
5.6600 792.0000 1.0000
5.6800 809.0000 1.0000
5.7000 747.0000 1.0000
5.7200 790.0000 1.0000
5.7400 768.0000 1.0000
5.7600 781.0000 1.0000
5.7800 772.0000 1.0000
5.8000 837.0000 1.0000
5.8200 854.0000 1.0000
5.8400 790.0000 1.0000
5.8600 739.0000 1.0000
5.8800 823.0000 1.0000
5.9000 899.0000 1.0000
5.9200 880.0000 1.0000
5.9400 780.0000 1.0000
5.9600 802.0000 1.0000
5.9800 821.0000 1.0000
6.0000 847.0000 1.0000
6.0200 825.0000 1.0000
6.0400 838.0000 1.0000
6.0600 817.0000 1.0000
6.0800 734.0000 1.0000
6.1000 732.0000 1.0000
6.1200 714.0000 1.0000
6.1400 669.0000 1.0000
6.1600 670.0000 1.0000
6.1800 668.0000 1.0000
6.2000 648.0000 1.0000
6.2200 622.0000 1.0000
6.2400 694.0000 1.0000
6.2600 686.0000 1.0000
6.2800 651.0000 1.0000
6.3000 646.0000 1.0000
6.3200 615.0000 1.0000
6.3400 613.0000 1.0000
6.3600 549.0000 1.0000
6.3800 591.0000 1.0000
6.4000 642.0000 1.0000
6.4200 655.0000 1.0000
6.4400 624.0000 1.0000
6.4600 627.0000 1.0000
6.4800 628.0000 1.0000
6.5000 612.0000 1.0000
6.5200 576.0000 1.0000
6.5400 580.0000 1.0000
6.5600 558.0000 1.0000
6.5800 551.0000 1.0000
6.6000 555.0000 1.0000
6.6200 553.0000 1.0000
6.6400 557.0000 1.0000
6.6600 530.0000 1.0000
6.6800 512.0000 1.0000
6.7000 513.0000 1.0000
6.7200 528.0000 1.0000
6.7400 527.0000 1.0000
6.7600 528.0000 1.0000
6.7800 518.0000 1.0000
6.8000 500.0000 1.0000
6.8200 515.0000 1.0000
6.8400 554.0000 1.0000
6.8600 539.0000 1.0000
6.8800 516.0000 1.0000
6.9000 528.0000 1.0000
6.9200 529.0000 1.0000
6.9400 503.0000 1.0000
6.9600 483.0000 1.0000
6.9800 511.0000 1.0000
7.0000 528.0000 1.0000
7.0200 498.0000 1.0000
7.0400 480.0000 1.0000
7.0600 482.0000 1.0000
7.0800 496.0000 1.0000
7.1000 521.0000 1.0000
7.1200 480.0000 1.0000
7.1400 450.0000 1.0000
7.1600 477.0000 1.0000
7.1800 463.0000 1.0000
7.2000 457.0000 1.0000
7.2200 455.0000 1.0000
7.2400 446.0000 1.0000
7.2600 471.0000 1.0000
7.2800 508.0000 1.0000
7.3000 507.0000 1.0000
7.3200 431.0000 1.0000
7.3400 394.0000 1.0000
7.3600 421.0000 1.0000
7.3800 476.0000 1.0000
7.4000 467.0000 1.0000
7.4200 443.0000 1.0000
7.4400 454.0000 1.0000
7.4600 433.0000 1.0000
7.4800 447.0000 1.0000
7.5000 401.0000 1.0000
7.5200 368.0000 1.0000
7.5400 426.0000 1.0000
7.5600 435.0000 1.0000
7.5800 377.0000 1.0000
7.6000 381.0000 1.0000
7.6200 387.0000 1.0000
7.6400 411.0000 1.0000
7.6600 422.0000 1.0000
7.6800 438.0000 1.0000
7.7000 449.0000 1.0000
7.7200 436.0000 1.0000
7.7400 449.0000 1.0000
7.7600 424.0000 1.0000
7.7800 391.0000 1.0000
7.8000 402.0000 1.0000
7.8200 387.0000 1.0000
7.8400 374.0000 1.0000
7.8600 402.0000 1.0000
7.8800 396.0000 1.0000
7.9000 383.0000 1.0000
7.9200 401.0000 1.0000
7.9400 398.0000 1.0000
7.9600 385.0000 1.0000
7.9800 361.0000 1.0000
8.0000 353.0000 1.0000
8.0200 375.0000 1.0000
8.0400 397.0000 1.0000
8.0600 401.0000 1.0000
8.0800 393.0000 1.0000
8.1000 394.0000 1.0000
8.1200 389.0000 1.0000
8.1400 383.0000 1.0000
8.1600 392.0000 1.0000
8.1800 377.0000 1.0000
8.2000 371.0000 1.0000
8.2200 384.0000 1.0000
8.2400 370.0000 1.0000
8.2600 360.0000 1.0000
8.2800 372.0000 1.0000
8.3000 378.0000 1.0000
8.3200 445.0000 1.0000
8.3400 432.0000 1.0000
8.3600 422.0000 1.0000
8.3800 459.0000 1.0000
8.4000 460.0000 1.0000
8.4200 464.0000 1.0000
8.4400 487.0000 1.0000
8.4600 508.0000 1.0000
8.4800 494.0000 1.0000
8.5000 556.0000 1.0000
8.5200 546.0000 1.0000
8.5400 597.0000 1.0000
8.5600 587.0000 1.0000
8.5800 560.0000 1.0000
8.6000 517.0000 1.0000
8.6200 512.0000 1.0000
8.6400 506.0000 1.0000
8.6600 464.0000 1.0000
8.6800 439.0000 1.0000
8.7000 402.0000 1.0000
8.7200 388.0000 1.0000
8.7400 385.0000 1.0000
8.7600 397.0000 1.0000
8.7800 364.0000 1.0000
8.8000 333.0000 1.0000
8.8200 316.0000 1.0000
8.8400 315.0000 1.0000
8.8600 327.0000 1.0000
8.8800 311.0000 1.0000
8.9000 325.0000 1.0000
8.9200 287.0000 1.0000
8.9400 324.0000 1.0000
8.9600 267.0000 1.0000
8.9800 275.0000 1.0000
9.0000 324.0000 1.0000
9.0200 284.0000 1.0000
9.0400 298.0000 1.0000
9.0600 309.0000 1.0000
9.0800 290.0000 1.0000
9.1000 310.0000 1.0000
9.1200 330.0000 1.0000
9.1400 327.0000 1.0000
9.1600 302.0000 1.0000
9.1800 305.0000 1.0000
9.2000 286.0000 1.0000
9.2200 310.0000 1.0000
9.2400 307.0000 1.0000
9.2600 297.0000 1.0000
9.2800 308.0000 1.0000
9.3000 324.0000 1.0000
9.3200 261.0000 1.0000
9.3400 294.0000 1.0000
9.3600 315.0000 1.0000
9.3800 293.0000 1.0000
9.4000 288.0000 1.0000
9.4200 329.0000 1.0000
9.4400 329.0000 1.0000
9.4600 320.0000 1.0000
9.4800 298.0000 1.0000
9.5000 262.0000 1.0000
9.5200 279.0000 1.0000
9.5400 302.0000 1.0000
9.5600 295.0000 1.0000
9.5800 302.0000 1.0000
9.6000 304.0000 1.0000
9.6200 264.0000 1.0000
9.6400 271.0000 1.0000
9.6600 279.0000 1.0000
9.6800 276.0000 1.0000
9.7000 249.0000 1.0000
9.7200 260.0000 1.0000
9.7400 244.0000 1.0000
9.7600 272.0000 1.0000
9.7800 287.0000 1.0000
9.8000 299.0000 1.0000
9.8200 274.0000 1.0000
9.8400 251.0000 1.0000
9.8600 241.0000 1.0000
9.8800 282.0000 1.0000
9.9000 261.0000 1.0000
9.9200 269.0000 1.0000
9.9400 250.0000 1.0000
9.9600 274.0000 1.0000
9.9800 238.0000 1.0000
10.0000 286.0000 1.0000
10.0200 291.0000 1.0000
10.0400 248.0000 1.0000
10.0600 262.0000 1.0000
10.0800 319.0000 1.0000
10.1000 268.0000 1.0000
10.1200 294.0000 1.0000
10.1400 313.0000 1.0000
10.1600 291.0000 1.0000
10.1800 362.0000 1.0000
10.2000 423.0000 1.0000
10.2200 450.0000 1.0000
10.2400 436.0000 1.0000
10.2600 410.0000 1.0000
10.2800 365.0000 1.0000
10.3000 387.0000 1.0000
10.3200 339.0000 1.0000
10.3400 275.0000 1.0000
10.3600 253.0000 1.0000
10.3800 258.0000 1.0000
10.4000 212.0000 1.0000
10.4200 221.0000 1.0000
10.4400 254.0000 1.0000
10.4600 213.0000 1.0000
10.4800 194.0000 1.0000
10.5000 224.0000 1.0000
10.5200 284.0000 1.0000
10.5400 229.0000 1.0000
10.5600 212.0000 1.0000
10.5800 208.0000 1.0000
10.6000 224.0000 1.0000
10.6200 229.0000 1.0000
10.6400 249.0000 1.0000
10.6600 240.0000 1.0000
10.6800 186.0000 1.0000
10.7000 203.0000 1.0000
10.7200 206.0000 1.0000
10.7400 218.0000 1.0000
10.7600 212.0000 1.0000
10.7800 187.0000 1.0000
10.8000 235.0000 1.0000
10.8200 244.0000 1.0000
10.8400 214.0000 1.0000
10.8600 220.0000 1.0000
10.8800 180.0000 1.0000
10.9000 223.0000 1.0000
10.9200 209.0000 1.0000
10.9400 178.0000 1.0000
10.9600 220.0000 1.0000
10.9800 213.0000 1.0000
11.0000 178.0000 1.0000
11.0200 204.0000 1.0000
11.0400 195.0000 1.0000
11.0600 218.0000 1.0000
11.0800 184.0000 1.0000
11.1000 180.0000 1.0000
11.1200 188.0000 1.0000
11.1400 208.0000 1.0000
11.1600 193.0000 1.0000
11.1800 181.0000 1.0000
11.2000 190.0000 1.0000
11.2200 197.0000 1.0000
11.2400 193.0000 1.0000
11.2600 191.0000 1.0000
11.2800 214.0000 1.0000
11.3000 223.0000 1.0000
11.3200 198.0000 1.0000
11.3400 186.0000 1.0000
11.3600 207.0000 1.0000
11.3800 204.0000 1.0000
11.4000 198.0000 1.0000
11.4200 192.0000 1.0000
11.4400 190.0000 1.0000
11.4600 196.0000 1.0000
11.4800 207.0000 1.0000
11.5000 185.0000 1.0000
11.5200 175.0000 1.0000
11.5400 178.0000 1.0000
11.5600 225.0000 1.0000
11.5800 197.0000 1.0000
11.6000 174.0000 1.0000
11.6200 230.0000 1.0000
11.6400 207.0000 1.0000
11.6600 207.0000 1.0000
11.6800 181.0000 1.0000
11.7000 209.0000 1.0000
11.7200 188.0000 1.0000
11.7400 212.0000 1.0000
11.7600 196.0000 1.0000
11.7800 202.0000 1.0000
11.8000 181.0000 1.0000
11.8200 190.0000 1.0000
11.8400 178.0000 1.0000
11.8600 203.0000 1.0000
11.8800 219.0000 1.0000
11.9000 200.0000 1.0000
11.9200 223.0000 1.0000
11.9400 222.0000 1.0000
11.9600 227.0000 1.0000
11.9800 258.0000 1.0000
12.0000 242.0000 1.0000
12.0200 235.0000 1.0000
12.0400 253.0000 1.0000
12.0600 237.0000 1.0000
12.0800 265.0000 1.0000
12.1000 295.0000 1.0000
12.1200 293.0000 1.0000
12.1400 314.0000 1.0000
12.1600 335.0000 1.0000
12.1800 316.0000 1.0000
12.2000 353.0000 1.0000
12.2200 373.0000 1.0000
12.2400 356.0000 1.0000
12.2600 351.0000 1.0000
12.2800 358.0000 1.0000
12.3000 324.0000 1.0000
12.3200 311.0000 1.0000
12.3400 274.0000 1.0000
12.3600 275.0000 1.0000
12.3800 251.0000 1.0000
12.4000 219.0000 1.0000
12.4200 188.0000 1.0000
12.4400 232.0000 1.0000
12.4600 192.0000 1.0000
12.4800 174.0000 1.0000
12.5000 193.0000 1.0000
12.5200 208.0000 1.0000
12.5400 192.0000 1.0000
12.5600 162.0000 1.0000
12.5800 168.0000 1.0000
12.6000 197.0000 1.0000
12.6200 167.0000 1.0000
12.6400 158.0000 1.0000
12.6600 149.0000 1.0000
12.6800 174.0000 1.0000
12.7000 158.0000 1.0000
12.7200 157.0000 1.0000
12.7400 178.0000 1.0000
12.7600 167.0000 1.0000
12.7800 182.0000 1.0000
12.8000 183.0000 1.0000
12.8200 162.0000 1.0000
12.8400 189.0000 1.0000
12.8600 191.0000 1.0000
12.8800 168.0000 1.0000
12.9000 170.0000 1.0000
12.9200 169.0000 1.0000
12.9400 175.0000 1.0000
12.9600 156.0000 1.0000
12.9800 160.0000 1.0000
13.0000 161.0000 1.0000
13.0200 165.0000 1.0000
13.0400 181.0000 1.0000
13.0600 193.0000 1.0000
13.0800 185.0000 1.0000
13.1000 177.0000 1.0000
13.1200 188.0000 1.0000
13.1400 178.0000 1.0000
13.1600 175.0000 1.0000
13.1800 189.0000 1.0000
13.2000 183.0000 1.0000
13.2200 202.0000 1.0000
13.2400 196.0000 1.0000
13.2600 207.0000 1.0000
13.2800 217.0000 1.0000
13.3000 212.0000 1.0000
13.3200 215.0000 1.0000
13.3400 230.0000 1.0000
13.3600 256.0000 1.0000
13.3800 280.0000 1.0000
13.4000 295.0000 1.0000
13.4200 291.0000 1.0000
13.4400 308.0000 1.0000
13.4600 302.0000 1.0000
13.4800 303.0000 1.0000
13.5000 315.0000 1.0000
13.5200 314.0000 1.0000
13.5400 315.0000 1.0000
13.5600 326.0000 1.0000
13.5800 382.0000 1.0000
13.6000 413.0000 1.0000
13.6200 396.0000 1.0000
13.6400 438.0000 1.0000
13.6600 447.0000 1.0000
13.6800 404.0000 1.0000
13.7000 397.0000 1.0000
13.7200 379.0000 1.0000
13.7400 315.0000 1.0000
13.7600 282.0000 1.0000
13.7800 239.0000 1.0000
13.8000 224.0000 1.0000
13.8200 211.0000 1.0000
13.8400 196.0000 1.0000
13.8600 190.0000 1.0000
13.8800 186.0000 1.0000
13.9000 159.0000 1.0000
13.9200 138.0000 1.0000
13.9400 138.0000 1.0000
13.9600 147.0000 1.0000
13.9800 150.0000 1.0000
14.0000 150.0000 1.0000
14.0200 155.0000 1.0000
14.0400 152.0000 1.0000
14.0600 134.0000 1.0000
14.0800 146.0000 1.0000
14.1000 145.0000 1.0000
14.1200 129.0000 1.0000
14.1400 135.0000 1.0000
14.1600 132.0000 1.0000
14.1800 132.0000 1.0000
14.2000 146.0000 1.0000
14.2200 132.0000 1.0000
14.2400 131.0000 1.0000
14.2600 140.0000 1.0000
14.2800 143.0000 1.0000
14.3000 141.0000 1.0000
14.3200 142.0000 1.0000
14.3400 142.0000 1.0000
14.3600 136.0000 1.0000
14.3800 143.0000 1.0000
14.4000 157.0000 1.0000
14.4200 162.0000 1.0000
14.4400 161.0000 1.0000
14.4600 154.0000 1.0000
14.4800 143.0000 1.0000
14.5000 132.0000 1.0000
14.5200 137.0000 1.0000
14.5400 154.0000 1.0000
14.5600 153.0000 1.0000
14.5800 144.0000 1.0000
14.6000 147.0000 1.0000
14.6200 151.0000 1.0000
14.6400 164.0000 1.0000
14.6600 172.0000 1.0000
14.6800 179.0000 1.0000
14.7000 191.0000 1.0000
14.7200 201.0000 1.0000
14.7400 217.0000 1.0000
14.7600 230.0000 1.0000
14.7800 229.0000 1.0000
14.8000 234.0000 1.0000
14.8200 253.0000 1.0000
14.8400 235.0000 1.0000
14.8600 215.0000 1.0000
14.8800 209.0000 1.0000
14.9000 193.0000 1.0000
14.9200 200.0000 1.0000
14.9400 189.0000 1.0000
14.9600 170.0000 1.0000
14.9800 162.0000 1.0000
15.0000 150.0000 1.0000
15.0200 141.0000 1.0000
15.0400 139.0000 1.0000
15.0600 145.0000 1.0000
15.0800 151.0000 1.0000
15.1000 141.0000 1.0000
15.1200 131.0000 1.0000
15.1400 136.0000 1.0000
15.1600 135.0000 1.0000
15.1800 123.0000 1.0000
15.2000 129.0000 1.0000
15.2200 135.0000 1.0000
15.2400 129.0000 1.0000
15.2600 130.0000 1.0000
15.2800 132.0000 1.0000
15.3000 141.0000 1.0000
15.3200 141.0000 1.0000
15.3400 135.0000 1.0000
15.3600 135.0000 1.0000
15.3800 133.0000 1.0000
15.4000 126.0000 1.0000
15.4200 124.0000 1.0000
15.4400 142.0000 1.0000
15.4600 155.0000 1.0000
15.4800 150.0000 1.0000
15.5000 157.0000 1.0000
15.5200 175.0000 1.0000
15.5400 161.0000 1.0000
15.5600 158.0000 1.0000
15.5800 174.0000 1.0000
15.6000 169.0000 1.0000
15.6200 153.0000 1.0000
15.6400 148.0000 1.0000
15.6600 140.0000 1.0000
15.6800 136.0000 1.0000
15.7000 138.0000 1.0000
15.7200 142.0000 1.0000
15.7400 137.0000 1.0000
15.7600 120.0000 1.0000
15.7800 123.0000 1.0000
15.8000 115.0000 1.0000
15.8200 105.0000 1.0000
15.8400 118.0000 1.0000
15.8600 124.0000 1.0000
15.8800 120.0000 1.0000
15.9000 128.0000 1.0000
15.9200 142.0000 1.0000
15.9400 129.0000 1.0000
15.9600 117.0000 1.0000
15.9800 128.0000 1.0000
16.0000 132.0000 1.0000
16.0200 113.0000 1.0000
16.0400 104.0000 1.0000
16.0600 112.0000 1.0000
16.0800 112.0000 1.0000
16.1000 118.0000 1.0000
16.1200 121.0000 1.0000
16.1400 122.0000 1.0000
16.1600 131.0000 1.0000
16.1800 122.0000 1.0000
16.2000 129.0000 1.0000
16.2200 132.0000 1.0000
16.2400 122.0000 1.0000
16.2600 123.0000 1.0000
16.2800 122.0000 1.0000
16.3000 126.0000 1.0000
16.3200 129.0000 1.0000
16.3400 115.0000 1.0000
16.3600 125.0000 1.0000
16.3800 120.0000 1.0000
16.4000 117.0000 1.0000
16.4200 108.0000 1.0000
16.4400 104.0000 1.0000
16.4600 115.0000 1.0000
16.4800 132.0000 1.0000
16.5000 140.0000 1.0000
16.5200 152.0000 1.0000
16.5400 142.0000 1.0000
16.5600 135.0000 1.0000
16.5800 140.0000 1.0000
16.6000 135.0000 1.0000
16.6200 131.0000 1.0000
16.6400 150.0000 1.0000
16.6600 148.0000 1.0000
16.6800 152.0000 1.0000
16.7000 139.0000 1.0000
16.7200 134.0000 1.0000
16.7400 134.0000 1.0000
16.7600 120.0000 1.0000
16.7800 121.0000 1.0000
16.8000 129.0000 1.0000
16.8200 114.0000 1.0000
16.8400 103.0000 1.0000
16.8600 119.0000 1.0000
16.8800 135.0000 1.0000
16.9000 124.0000 1.0000
16.9200 110.0000 1.0000
16.9400 117.0000 1.0000
16.9600 106.0000 1.0000
16.9800 105.0000 1.0000
17.0000 114.0000 1.0000
17.0200 124.0000 1.0000
17.0400 112.0000 1.0000
17.0600 114.0000 1.0000
17.0800 109.0000 1.0000
17.1000 126.0000 1.0000
17.1200 137.0000 1.0000
17.1400 125.0000 1.0000
17.1600 116.0000 1.0000
17.1800 127.0000 1.0000
17.2000 121.0000 1.0000
17.2200 122.0000 1.0000
17.2400 117.0000 1.0000
17.2600 135.0000 1.0000
17.2800 154.0000 1.0000
17.3000 154.0000 1.0000
17.3200 149.0000 1.0000
17.3400 141.0000 1.0000
17.3600 149.0000 1.0000
17.3800 149.0000 1.0000
17.4000 169.0000 1.0000
17.4200 179.0000 1.0000
17.4400 178.0000 1.0000
17.4600 180.0000 1.0000
17.4800 184.0000 1.0000
17.5000 162.0000 1.0000
17.5200 170.0000 1.0000
17.5400 153.0000 1.0000
17.5600 143.0000 1.0000
17.5800 159.0000 1.0000
17.6000 152.0000 1.0000
17.6200 145.0000 1.0000
17.6400 137.0000 1.0000
17.6600 130.0000 1.0000
17.6800 139.0000 1.0000
17.7000 120.0000 1.0000
17.7200 133.0000 1.0000
17.7400 151.0000 1.0000
17.7600 140.0000 1.0000
17.7800 150.0000 1.0000
17.8000 138.0000 1.0000
17.8200 120.0000 1.0000
17.8400 150.0000 1.0000
17.8600 145.0000 1.0000
17.8800 134.0000 1.0000
17.9000 117.0000 1.0000
17.9200 124.0000 1.0000
17.9400 128.0000 1.0000
17.9600 135.0000 1.0000
17.9800 131.0000 1.0000
18.0000 141.0000 1.0000
18.0200 154.0000 1.0000
18.0400 133.0000 1.0000
18.0600 144.0000 1.0000
18.0800 135.0000 1.0000
18.1000 142.0000 1.0000
18.1200 141.0000 1.0000
18.1400 140.0000 1.0000
18.1600 155.0000 1.0000
18.1800 127.0000 1.0000
18.2000 127.0000 1.0000
18.2200 134.0000 1.0000
18.2400 137.0000 1.0000
18.2600 137.0000 1.0000
18.2800 126.0000 1.0000
18.3000 114.0000 1.0000
18.3200 129.0000 1.0000
18.3400 138.0000 1.0000
18.3600 144.0000 1.0000
18.3800 146.0000 1.0000
18.4000 130.0000 1.0000
18.4200 146.0000 1.0000
18.4400 146.0000 1.0000
18.4600 168.0000 1.0000
18.4800 158.0000 1.0000
18.5000 171.0000 1.0000
18.5200 159.0000 1.0000
18.5400 192.0000 1.0000
18.5600 152.0000 1.0000
18.5800 157.0000 1.0000
18.6000 169.0000 1.0000
18.6200 173.0000 1.0000
18.6400 180.0000 1.0000
18.6600 166.0000 1.0000
18.6800 147.0000 1.0000
18.7000 155.0000 1.0000
18.7200 153.0000 1.0000
18.7400 161.0000 1.0000
18.7600 177.0000 1.0000
18.7800 173.0000 1.0000
18.8000 176.0000 1.0000
18.8200 164.0000 1.0000
18.8400 169.0000 1.0000
18.8600 175.0000 1.0000
18.8800 187.0000 1.0000
18.9000 164.0000 1.0000
18.9200 192.0000 1.0000
18.9400 188.0000 1.0000
18.9600 191.0000 1.0000
18.9800 205.0000 1.0000
19.0000 203.0000 1.0000
19.0200 202.0000 1.0000
19.0400 173.0000 1.0000
19.0600 161.0000 1.0000
19.0800 182.0000 1.0000
19.1000 159.0000 1.0000
19.1200 161.0000 1.0000
19.1400 163.0000 1.0000
19.1600 146.0000 1.0000
19.1800 160.0000 1.0000
19.2000 140.0000 1.0000
19.2200 147.0000 1.0000
19.2400 146.0000 1.0000
19.2600 156.0000 1.0000
19.2800 159.0000 1.0000
19.3000 165.0000 1.0000
19.3200 159.0000 1.0000
19.3400 158.0000 1.0000
19.3600 147.0000 1.0000
19.3800 164.0000 1.0000
19.4000 180.0000 1.0000
19.4200 168.0000 1.0000
19.4400 173.0000 1.0000
19.4600 178.0000 1.0000
19.4800 190.0000 1.0000
19.5000 185.0000 1.0000
19.5200 186.0000 1.0000
19.5400 183.0000 1.0000
19.5600 205.0000 1.0000
19.5800 204.0000 1.0000
19.6000 197.0000 1.0000
19.6200 189.0000 1.0000
19.6400 202.0000 1.0000
19.6600 206.0000 1.0000
19.6800 164.0000 1.0000
19.7000 198.0000 1.0000
19.7200 181.0000 1.0000
19.7400 167.0000 1.0000
19.7600 169.0000 1.0000
19.7800 205.0000 1.0000
19.8000 174.0000 1.0000
19.8200 160.0000 1.0000
19.8400 142.0000 1.0000
19.8600 149.0000 1.0000
19.8800 144.0000 1.0000
19.9000 153.0000 1.0000
19.9200 149.0000 1.0000
19.9400 153.0000 1.0000
19.9600 149.0000 1.0000
19.9800 169.0000 1.0000
20.0000 174.0000 1.0000
20.0200 164.0000 1.0000
20.0400 155.0000 1.0000
20.0600 150.0000 1.0000
20.0800 199.0000 1.0000
20.1000 163.0000 1.0000
20.1200 178.0000 1.0000
20.1400 175.0000 1.0000
20.1600 182.0000 1.0000
20.1800 179.0000 1.0000
20.2000 187.0000 1.0000
20.2200 203.0000 1.0000
20.2400 187.0000 1.0000
20.2600 199.0000 1.0000
20.2800 245.0000 1.0000
20.3000 215.0000 1.0000
20.3200 255.0000 1.0000
20.3400 226.0000 1.0000
20.3600 261.0000 1.0000
20.3800 276.0000 1.0000
20.4000 300.0000 1.0000
20.4200 329.0000 1.0000
20.4400 336.0000 1.0000
20.4600 389.0000 1.0000
20.4800 446.0000 1.0000
20.5000 552.0000 1.0000
20.5200 624.0000 1.0000
20.5400 776.0000 1.0000
20.5600 908.0000 1.0000
20.5800 1179.0000 1.0000
20.6000 1348.0000 1.0000
20.6200 1634.0000 1.0000
20.6400 1789.0000 1.0000
20.6600 1955.0000 1.0000
20.6800 1955.0000 1.0000
20.7000 1833.0000 1.0000
20.7200 1505.0000 1.0000
20.7400 1197.0000 1.0000
20.7600 898.0000 1.0000
20.7800 793.0000 1.0000
20.8000 628.0000 1.0000
20.8200 562.0000 1.0000
20.8400 549.0000 1.0000
20.8600 465.0000 1.0000
20.8800 445.0000 1.0000
20.9000 361.0000 1.0000
20.9200 335.0000 1.0000
20.9400 272.0000 1.0000
20.9600 228.0000 1.0000
20.9800 240.0000 1.0000
21.0000 221.0000 1.0000
21.0200 205.0000 1.0000
21.0400 208.0000 1.0000
21.0600 212.0000 1.0000
21.0800 207.0000 1.0000
21.1000 180.0000 1.0000
21.1200 177.0000 1.0000
21.1400 166.0000 1.0000
21.1600 194.0000 1.0000
21.1800 172.0000 1.0000
21.2000 209.0000 1.0000
21.2200 181.0000 1.0000
21.2400 157.0000 1.0000
21.2600 193.0000 1.0000
21.2800 198.0000 1.0000
21.3000 197.0000 1.0000
21.3200 190.0000 1.0000
21.3400 185.0000 1.0000
21.3600 176.0000 1.0000
21.3800 186.0000 1.0000
21.4000 210.0000 1.0000
21.4200 211.0000 1.0000
21.4400 212.0000 1.0000
21.4600 226.0000 1.0000
21.4800 249.0000 1.0000
21.5000 236.0000 1.0000
21.5200 249.0000 1.0000
21.5400 294.0000 1.0000
21.5600 291.0000 1.0000
21.5800 328.0000 1.0000
21.6000 359.0000 1.0000
21.6200 355.0000 1.0000
21.6400 430.0000 1.0000
21.6600 483.0000 1.0000
21.6800 575.0000 1.0000
21.7000 738.0000 1.0000
21.7200 866.0000 1.0000
21.7400 922.0000 1.0000
21.7600 1078.0000 1.0000
21.7800 1174.0000 1.0000
21.8000 1220.0000 1.0000
21.8200 1232.0000 1.0000
21.8400 1214.0000 1.0000
21.8600 1081.0000 1.0000
21.8800 956.0000 1.0000
21.9000 775.0000 1.0000
21.9200 579.0000 1.0000
21.9400 466.0000 1.0000
21.9600 379.0000 1.0000
21.9800 310.0000 1.0000
22.0000 300.0000 1.0000
22.0200 288.0000 1.0000
22.0400 244.0000 1.0000
22.0600 245.0000 1.0000
22.0800 253.0000 1.0000
22.1000 256.0000 1.0000
22.1200 253.0000 1.0000
22.1400 248.0000 1.0000
22.1600 245.0000 1.0000
22.1800 228.0000 1.0000
22.2000 244.0000 1.0000
22.2200 242.0000 1.0000
22.2400 212.0000 1.0000
22.2600 219.0000 1.0000
22.2800 226.0000 1.0000
22.3000 249.0000 1.0000
22.3200 244.0000 1.0000
22.3400 240.0000 1.0000
22.3600 217.0000 1.0000
22.3800 210.0000 1.0000
22.4000 220.0000 1.0000
22.4200 197.0000 1.0000
22.4400 227.0000 1.0000
22.4600 216.0000 1.0000
22.4800 216.0000 1.0000
22.5000 193.0000 1.0000
22.5200 218.0000 1.0000
22.5400 215.0000 1.0000
22.5600 217.0000 1.0000
22.5800 215.0000 1.0000
22.6000 230.0000 1.0000
22.6200 221.0000 1.0000
22.6400 269.0000 1.0000
22.6600 302.0000 1.0000
22.6800 317.0000 1.0000
22.7000 352.0000 1.0000
22.7200 344.0000 1.0000
22.7400 402.0000 1.0000
22.7600 399.0000 1.0000
22.7800 383.0000 1.0000
22.8000 378.0000 1.0000
22.8200 383.0000 1.0000
22.8400 364.0000 1.0000
22.8600 342.0000 1.0000
22.8800 323.0000 1.0000
22.9000 323.0000 1.0000
22.9200 285.0000 1.0000
22.9400 274.0000 1.0000
22.9600 304.0000 1.0000
22.9800 283.0000 1.0000
23.0000 281.0000 1.0000
23.0200 298.0000 1.0000
23.0400 288.0000 1.0000
23.0600 302.0000 1.0000
23.0800 333.0000 1.0000
23.1000 337.0000 1.0000
23.1200 324.0000 1.0000
23.1400 334.0000 1.0000
23.1600 342.0000 1.0000
23.1800 375.0000 1.0000
23.2000 397.0000 1.0000
23.2200 406.0000 1.0000
23.2400 492.0000 1.0000
23.2600 486.0000 1.0000
23.2800 550.0000 1.0000
23.3000 655.0000 1.0000
23.3200 716.0000 1.0000
23.3400 768.0000 1.0000
23.3600 806.0000 1.0000
23.3800 896.0000 1.0000
23.4000 885.0000 1.0000
23.4200 893.0000 1.0000
23.4400 805.0000 1.0000
23.4600 806.0000 1.0000
23.4800 685.0000 1.0000
23.5000 581.0000 1.0000
23.5200 533.0000 1.0000
23.5400 481.0000 1.0000
23.5600 478.0000 1.0000
23.5800 458.0000 1.0000
23.6000 461.0000 1.0000
23.6200 470.0000 1.0000
23.6400 502.0000 1.0000
23.6600 500.0000 1.0000
23.6800 519.0000 1.0000
23.7000 539.0000 1.0000
23.7200 558.0000 1.0000
23.7400 573.0000 1.0000
23.7600 578.0000 1.0000
23.7800 533.0000 1.0000
23.8000 496.0000 1.0000
23.8200 490.0000 1.0000
23.8400 519.0000 1.0000
23.8600 505.0000 1.0000
23.8800 511.0000 1.0000
23.9000 569.0000 1.0000
23.9200 643.0000 1.0000
23.9400 654.0000 1.0000
23.9600 717.0000 1.0000
23.9800 775.0000 1.0000
24.0000 811.0000 1.0000
24.0200 853.0000 1.0000
24.0400 903.0000 1.0000
24.0600 882.0000 1.0000
24.0800 867.0000 1.0000
24.1000 836.0000 1.0000
24.1200 815.0000 1.0000
24.1400 761.0000 1.0000
24.1600 681.0000 1.0000
24.1800 618.0000 1.0000
24.2000 535.0000 1.0000
24.2200 438.0000 1.0000
24.2400 388.0000 1.0000
24.2600 365.0000 1.0000
24.2800 318.0000 1.0000
24.3000 318.0000 1.0000
24.3200 305.0000 1.0000
24.3400 268.0000 1.0000
24.3600 270.0000 1.0000
24.3800 243.0000 1.0000
24.4000 255.0000 1.0000
24.4200 232.0000 1.0000
24.4400 225.0000 1.0000
24.4600 219.0000 1.0000
24.4800 214.0000 1.0000
24.5000 225.0000 1.0000
24.5200 218.0000 1.0000
24.5400 217.0000 1.0000
24.5600 200.0000 1.0000
24.5800 208.0000 1.0000
24.6000 228.0000 1.0000
24.6200 202.0000 1.0000
24.6400 216.0000 1.0000
24.6600 222.0000 1.0000
24.6800 242.0000 1.0000
24.7000 235.0000 1.0000
24.7200 223.0000 1.0000
24.7400 214.0000 1.0000
24.7600 223.0000 1.0000
24.7800 240.0000 1.0000
24.8000 236.0000 1.0000
24.8200 267.0000 1.0000
24.8400 262.0000 1.0000
24.8600 291.0000 1.0000
24.8800 285.0000 1.0000
24.9000 313.0000 1.0000
24.9200 308.0000 1.0000
24.9400 318.0000 1.0000
24.9600 304.0000 1.0000
24.9800 312.0000 1.0000
25.0000 320.0000 1.0000
25.0200 318.0000 1.0000
25.0400 319.0000 1.0000
25.0600 312.0000 1.0000
25.0800 328.0000 1.0000
25.1000 365.0000 1.0000
25.1200 370.0000 1.0000
25.1400 379.0000 1.0000
25.1600 440.0000 1.0000
25.1800 515.0000 1.0000
25.2000 571.0000 1.0000
25.2200 684.0000 1.0000
25.2400 774.0000 1.0000
25.2600 878.0000 1.0000
25.2800 1039.0000 1.0000
25.3000 1241.0000 1.0000
25.3200 1435.0000 1.0000
25.3400 1614.0000 1.0000
25.3600 1755.0000 1.0000
25.3800 1735.0000 1.0000
25.4000 1679.0000 1.0000
25.4200 1593.0000 1.0000
25.4400 1407.0000 1.0000
25.4600 1194.0000 1.0000
25.4800 984.0000 1.0000
25.5000 773.0000 1.0000
25.5200 629.0000 1.0000
25.5400 532.0000 1.0000
25.5600 430.0000 1.0000
25.5800 390.0000 1.0000
25.6000 350.0000 1.0000
25.6200 321.0000 1.0000
25.6400 307.0000 1.0000
25.6600 281.0000 1.0000
25.6800 268.0000 1.0000
25.7000 287.0000 1.0000
25.7200 285.0000 1.0000
25.7400 272.0000 1.0000
25.7600 266.0000 1.0000
25.7800 278.0000 1.0000
25.8000 267.0000 1.0000
25.8200 279.0000 1.0000
25.8400 294.0000 1.0000
25.8600 306.0000 1.0000
25.8800 316.0000 1.0000
25.9000 334.0000 1.0000
25.9200 349.0000 1.0000
25.9400 363.0000 1.0000
25.9600 374.0000 1.0000
25.9800 409.0000 1.0000
26.0000 438.0000 1.0000
26.0200 483.0000 1.0000
26.0400 524.0000 1.0000
26.0600 555.0000 1.0000
26.0800 614.0000 1.0000
26.1000 683.0000 1.0000
26.1200 765.0000 1.0000
26.1400 851.0000 1.0000
26.1600 949.0000 1.0000
26.1800 1087.0000 1.0000
26.2000 1235.0000 1.0000
26.2200 1451.0000 1.0000
26.2400 1685.0000 1.0000
26.2600 1927.0000 1.0000
26.2800 2274.0000 1.0000
26.3000 2757.0000 1.0000
26.3200 3311.0000 1.0000
26.3400 4056.0000 1.0000
26.3600 4992.0000 1.0000
26.3800 6193.0000 1.0000
26.4000 7170.0000 1.0000
26.4200 7955.0000 1.0000
26.4400 8436.0000 1.0000
26.4600 8362.0000 1.0000
26.4800 7675.0000 1.0000
26.5000 6301.0000 1.0000
26.5200 4873.0000 1.0000
26.5400 3667.0000 1.0000
26.5600 2664.0000 1.0000
26.5800 1891.0000 1.0000
26.6000 1320.0000 1.0000
26.6200 1011.0000 1.0000
26.6400 876.0000 1.0000
26.6600 807.0000 1.0000
26.6800 765.0000 1.0000
26.7000 749.0000 1.0000
26.7200 743.0000 1.0000
26.7400 764.0000 1.0000
26.7600 769.0000 1.0000
26.7800 772.0000 1.0000
26.8000 814.0000 1.0000
26.8200 817.0000 1.0000
26.8400 803.0000 1.0000
26.8600 853.0000 1.0000
26.8800 851.0000 1.0000
26.9000 783.0000 1.0000
26.9200 746.0000 1.0000
26.9400 677.0000 1.0000
26.9600 605.0000 1.0000
26.9800 589.0000 1.0000
27.0000 576.0000 1.0000
27.0200 558.0000 1.0000
27.0400 524.0000 1.0000
27.0600 506.0000 1.0000
27.0800 529.0000 1.0000
27.1000 569.0000 1.0000
27.1200 598.0000 1.0000
27.1400 627.0000 1.0000
27.1600 656.0000 1.0000
27.1800 738.0000 1.0000
27.2000 823.0000 1.0000
27.2200 935.0000 1.0000
27.2400 1045.0000 1.0000
27.2600 1137.0000 1.0000
27.2800 1202.0000 1.0000
27.3000 1264.0000 1.0000
27.3200 1332.0000 1.0000
27.3400 1271.0000 1.0000
27.3600 1173.0000 1.0000
27.3800 1099.0000 1.0000
27.4000 1063.0000 1.0000
27.4200 1089.0000 1.0000
27.4400 1103.0000 1.0000
27.4600 1184.0000 1.0000
27.4800 1297.0000 1.0000
27.5000 1437.0000 1.0000
27.5200 1685.0000 1.0000
27.5400 1865.0000 1.0000
27.5600 2012.0000 1.0000
27.5800 2130.0000 1.0000
27.6000 2252.0000 1.0000
27.6200 2383.0000 1.0000
27.6400 2458.0000 1.0000
27.6600 2560.0000 1.0000
27.6800 2645.0000 1.0000
27.7000 2714.0000 1.0000
27.7200 2773.0000 1.0000
27.7400 2865.0000 1.0000
27.7600 2920.0000 1.0000
27.7800 2842.0000 1.0000
27.8000 2700.0000 1.0000
27.8200 2490.0000 1.0000
27.8400 2209.0000 1.0000
27.8600 1916.0000 1.0000
27.8800 1645.0000 1.0000
27.9000 1392.0000 1.0000
27.9200 1181.0000 1.0000
27.9400 1020.0000 1.0000
27.9600 948.0000 1.0000
27.9800 933.0000 1.0000
28.0000 889.0000 1.0000
28.0200 861.0000 1.0000
28.0400 844.0000 1.0000
28.0600 831.0000 1.0000
28.0800 783.0000 1.0000
28.1000 742.0000 1.0000
28.1200 701.0000 1.0000
28.1400 631.0000 1.0000
28.1600 579.0000 1.0000
28.1800 538.0000 1.0000
28.2000 464.0000 1.0000
28.2200 403.0000 1.0000
28.2400 375.0000 1.0000
28.2600 323.0000 1.0000
28.2800 293.0000 1.0000
28.3000 282.0000 1.0000
28.3200 249.0000 1.0000
28.3400 250.0000 1.0000
28.3600 242.0000 1.0000
28.3800 228.0000 1.0000
28.4000 212.0000 1.0000
28.4200 198.0000 1.0000
28.4400 192.0000 1.0000
28.4600 186.0000 1.0000
28.4800 176.0000 1.0000
28.5000 179.0000 1.0000
28.5200 181.0000 1.0000
28.5400 182.0000 1.0000
28.5600 179.0000 1.0000
28.5800 174.0000 1.0000
28.6000 188.0000 1.0000
28.6200 199.0000 1.0000
28.6400 181.0000 1.0000
28.6600 185.0000 1.0000
28.6800 185.0000 1.0000
28.7000 183.0000 1.0000
28.7200 194.0000 1.0000
28.7400 207.0000 1.0000
28.7600 211.0000 1.0000
28.7800 220.0000 1.0000
28.8000 240.0000 1.0000
28.8200 279.0000 1.0000
28.8400 276.0000 1.0000
28.8600 268.0000 1.0000
28.8800 274.0000 1.0000
28.9000 275.0000 1.0000
28.9200 272.0000 1.0000
28.9400 270.0000 1.0000
28.9600 281.0000 1.0000
28.9800 269.0000 1.0000
29.0000 236.0000 1.0000
29.0200 226.0000 1.0000
29.0400 228.0000 1.0000
29.0600 229.0000 1.0000
29.0800 208.0000 1.0000
29.1000 203.0000 1.0000
29.1200 215.0000 1.0000
29.1400 220.0000 1.0000
29.1600 218.0000 1.0000
29.1800 231.0000 1.0000
29.2000 257.0000 1.0000
29.2200 267.0000 1.0000
29.2400 270.0000 1.0000
29.2600 275.0000 1.0000
29.2800 295.0000 1.0000
29.3000 301.0000 1.0000
29.3200 289.0000 1.0000
29.3400 266.0000 1.0000
29.3600 263.0000 1.0000
29.3800 309.0000 1.0000
29.4000 323.0000 1.0000
29.4200 320.0000 1.0000
29.4400 319.0000 1.0000
29.4600 319.0000 1.0000
29.4800 356.0000 1.0000
29.5000 375.0000 1.0000
29.5200 414.0000 1.0000
29.5400 449.0000 1.0000
29.5600 464.0000 1.0000
29.5800 453.0000 1.0000
29.6000 459.0000 1.0000
29.6200 479.0000 1.0000
29.6400 461.0000 1.0000
29.6600 450.0000 1.0000
29.6800 457.0000 1.0000
29.7000 458.0000 1.0000
29.7200 444.0000 1.0000
29.7400 462.0000 1.0000
29.7600 445.0000 1.0000
29.7800 452.0000 1.0000
29.8000 463.0000 1.0000
29.8200 443.0000 1.0000
29.8400 486.0000 1.0000
29.8600 478.0000 1.0000
29.8800 448.0000 1.0000
29.9000 437.0000 1.0000
29.9200 402.0000 1.0000
29.9400 415.0000 1.0000
29.9600 403.0000 1.0000
29.9800 413.0000 1.0000
30.0000 425.0000 1.0000
30.0200 425.0000 1.0000
30.0400 452.0000 1.0000
30.0600 480.0000 1.0000
30.0800 534.0000 1.0000
30.1000 531.0000 1.0000
30.1200 563.0000 1.0000
30.1400 592.0000 1.0000
30.1600 650.0000 1.0000
30.1800 634.0000 1.0000
30.2000 670.0000 1.0000
30.2200 703.0000 1.0000
30.2400 668.0000 1.0000
30.2600 676.0000 1.0000
30.2800 702.0000 1.0000
30.3000 646.0000 1.0000
30.3200 598.0000 1.0000
30.3400 547.0000 1.0000
30.3600 470.0000 1.0000
30.3800 425.0000 1.0000
30.4000 398.0000 1.0000
30.4200 336.0000 1.0000
30.4400 293.0000 1.0000
30.4600 293.0000 1.0000
30.4800 322.0000 1.0000
30.5000 326.0000 1.0000
30.5200 341.0000 1.0000
30.5400 362.0000 1.0000
30.5600 385.0000 1.0000
30.5800 362.0000 1.0000
30.6000 405.0000 1.0000
30.6200 409.0000 1.0000
30.6400 386.0000 1.0000
30.6600 376.0000 1.0000
30.6800 350.0000 1.0000
30.7000 339.0000 1.0000
30.7200 317.0000 1.0000
30.7400 281.0000 1.0000
30.7600 246.0000 1.0000
30.7800 247.0000 1.0000
30.8000 229.0000 1.0000
30.8200 209.0000 1.0000
30.8400 189.0000 1.0000
30.8600 184.0000 1.0000
30.8800 192.0000 1.0000
30.9000 183.0000 1.0000
30.9200 189.0000 1.0000
30.9400 200.0000 1.0000
30.9600 205.0000 1.0000
30.9800 216.0000 1.0000
31.0000 235.0000 1.0000
31.0200 248.0000 1.0000
31.0400 279.0000 1.0000
31.0600 286.0000 1.0000
31.0800 293.0000 1.0000
31.1000 318.0000 1.0000
31.1200 350.0000 1.0000
31.1400 372.0000 1.0000
31.1600 366.0000 1.0000
31.1800 359.0000 1.0000
31.2000 350.0000 1.0000
31.2200 355.0000 1.0000
31.2400 331.0000 1.0000
31.2600 315.0000 1.0000
31.2800 288.0000 1.0000
31.3000 298.0000 1.0000
31.3200 244.0000 1.0000
31.3400 219.0000 1.0000
31.3600 226.0000 1.0000
31.3800 228.0000 1.0000
31.4000 206.0000 1.0000
31.4200 214.0000 1.0000
31.4400 209.0000 1.0000
31.4600 207.0000 1.0000
31.4800 204.0000 1.0000
31.5000 199.0000 1.0000
31.5200 195.0000 1.0000
31.5400 209.0000 1.0000
31.5600 205.0000 1.0000
31.5800 192.0000 1.0000
31.6000 216.0000 1.0000
31.6200 214.0000 1.0000
31.6400 198.0000 1.0000
31.6600 199.0000 1.0000
31.6800 198.0000 1.0000
31.7000 210.0000 1.0000
31.7200 182.0000 1.0000
31.7400 198.0000 1.0000
31.7600 176.0000 1.0000
31.7800 170.0000 1.0000
31.8000 169.0000 1.0000
31.8200 156.0000 1.0000
31.8400 179.0000 1.0000
31.8600 172.0000 1.0000
31.8800 170.0000 1.0000
31.9000 173.0000 1.0000
31.9200 186.0000 1.0000
31.9400 166.0000 1.0000
31.9600 181.0000 1.0000
31.9800 180.0000 1.0000
32.0000 160.0000 1.0000
32.0200 194.0000 1.0000
32.0400 187.0000 1.0000
32.0600 177.0000 1.0000
32.0800 185.0000 1.0000
32.1000 192.0000 1.0000
32.1200 195.0000 1.0000
32.1400 185.0000 1.0000
32.1600 188.0000 1.0000
32.1800 209.0000 1.0000
32.2000 198.0000 1.0000
32.2200 171.0000 1.0000
32.2400 136.0000 1.0000
32.2600 159.0000 1.0000
32.2800 145.0000 1.0000
32.3000 140.0000 1.0000
32.3200 140.0000 1.0000
32.3400 133.0000 1.0000
32.3600 129.0000 1.0000
32.3800 138.0000 1.0000
32.4000 119.0000 1.0000
32.4200 137.0000 1.0000
32.4400 128.0000 1.0000
32.4600 119.0000 1.0000
32.4800 116.0000 1.0000
32.5000 125.0000 1.0000
32.5200 131.0000 1.0000
32.5400 116.0000 1.0000
32.5600 103.0000 1.0000
32.5800 137.0000 1.0000
32.6000 139.0000 1.0000
32.6200 123.0000 1.0000
32.6400 128.0000 1.0000
32.6600 141.0000 1.0000
32.6800 144.0000 1.0000
32.7000 142.0000 1.0000
32.7200 165.0000 1.0000
32.7400 163.0000 1.0000
32.7600 174.0000 1.0000
32.7800 147.0000 1.0000
32.8000 155.0000 1.0000
32.8200 133.0000 1.0000
32.8400 142.0000 1.0000
32.8600 141.0000 1.0000
32.8800 143.0000 1.0000
32.9000 117.0000 1.0000
32.9200 138.0000 1.0000
32.9400 134.0000 1.0000
32.9600 132.0000 1.0000
32.9800 136.0000 1.0000
33.0000 145.0000 1.0000
33.0200 135.0000 1.0000
33.0400 145.0000 1.0000
33.0600 134.0000 1.0000
33.0800 145.0000 1.0000
33.1000 135.0000 1.0000
33.1200 152.0000 1.0000
33.1400 143.0000 1.0000
33.1600 163.0000 1.0000
33.1800 149.0000 1.0000
33.2000 142.0000 1.0000
33.2200 155.0000 1.0000
33.2400 149.0000 1.0000
33.2600 129.0000 1.0000
33.2800 164.0000 1.0000
33.3000 163.0000 1.0000
33.3200 126.0000 1.0000
33.3400 149.0000 1.0000
33.3600 142.0000 1.0000
33.3800 156.0000 1.0000
33.4000 151.0000 1.0000
33.4200 162.0000 1.0000
33.4400 147.0000 1.0000
33.4600 165.0000 1.0000
33.4800 185.0000 1.0000
33.5000 160.0000 1.0000
33.5200 190.0000 1.0000
33.5400 215.0000 1.0000
33.5600 182.0000 1.0000
33.5800 212.0000 1.0000
33.6000 205.0000 1.0000
33.6200 237.0000 1.0000
33.6400 246.0000 1.0000
33.6600 227.0000 1.0000
33.6800 238.0000 1.0000
33.7000 222.0000 1.0000
33.7200 227.0000 1.0000
33.7400 248.0000 1.0000
33.7600 253.0000 1.0000
33.7800 231.0000 1.0000
33.8000 198.0000 1.0000
33.8200 207.0000 1.0000
33.8400 184.0000 1.0000
33.8600 211.0000 1.0000
33.8800 203.0000 1.0000
33.9000 192.0000 1.0000
33.9200 169.0000 1.0000
33.9400 198.0000 1.0000
33.9600 207.0000 1.0000
33.9800 209.0000 1.0000
34.0000 199.0000 1.0000
34.0200 223.0000 1.0000
34.0400 202.0000 1.0000
34.0600 213.0000 1.0000
34.0800 237.0000 1.0000
34.1000 252.0000 1.0000
34.1200 240.0000 1.0000
34.1400 261.0000 1.0000
34.1600 275.0000 1.0000
34.1800 266.0000 1.0000
34.2000 276.0000 1.0000
34.2200 281.0000 1.0000
34.2400 290.0000 1.0000
34.2600 314.0000 1.0000
34.2800 266.0000 1.0000
34.3000 282.0000 1.0000
34.3200 293.0000 1.0000
34.3400 278.0000 1.0000
34.3600 298.0000 1.0000
34.3800 294.0000 1.0000
34.4000 261.0000 1.0000
34.4200 270.0000 1.0000
34.4400 294.0000 1.0000
34.4600 292.0000 1.0000
34.4800 303.0000 1.0000
34.5000 275.0000 1.0000
34.5200 319.0000 1.0000
34.5400 301.0000 1.0000
34.5600 299.0000 1.0000
34.5800 295.0000 1.0000
34.6000 300.0000 1.0000
34.6200 314.0000 1.0000
34.6400 342.0000 1.0000
34.6600 374.0000 1.0000
34.6800 394.0000 1.0000
34.7000 444.0000 1.0000
34.7200 418.0000 1.0000
34.7400 549.0000 1.0000
34.7600 570.0000 1.0000
34.7800 713.0000 1.0000
34.8000 799.0000 1.0000
34.8200 878.0000 1.0000
34.8400 990.0000 1.0000
34.8600 1209.0000 1.0000
34.8800 1448.0000 1.0000
34.9000 1690.0000 1.0000
34.9200 1836.0000 1.0000
34.9400 2025.0000 1.0000
34.9600 2122.0000 1.0000
34.9800 1880.0000 1.0000
35.0000 1907.0000 1.0000
35.0200 1674.0000 1.0000
35.0400 1474.0000 1.0000
35.0600 1246.0000 1.0000
35.0800 1023.0000 1.0000
35.1000 895.0000 1.0000
35.1200 739.0000 1.0000
35.1400 671.0000 1.0000
35.1600 559.0000 1.0000
35.1800 532.0000 1.0000
35.2000 528.0000 1.0000
35.2200 518.0000 1.0000
35.2400 470.0000 1.0000
35.2600 478.0000 1.0000
35.2800 435.0000 1.0000
35.3000 405.0000 1.0000
35.3200 389.0000 1.0000
35.3400 359.0000 1.0000
35.3600 368.0000 1.0000
35.3800 349.0000 1.0000
35.4000 298.0000 1.0000
35.4200 286.0000 1.0000
35.4400 311.0000 1.0000
35.4600 307.0000 1.0000
35.4800 277.0000 1.0000
35.5000 282.0000 1.0000
35.5200 253.0000 1.0000
35.5400 265.0000 1.0000
35.5600 261.0000 1.0000
35.5800 246.0000 1.0000
35.6000 278.0000 1.0000
35.6200 232.0000 1.0000
35.6400 216.0000 1.0000
35.6600 193.0000 1.0000
35.6800 196.0000 1.0000
35.7000 202.0000 1.0000
35.7200 219.0000 1.0000
35.7400 192.0000 1.0000
35.7600 227.0000 1.0000
35.7800 208.0000 1.0000
35.8000 210.0000 1.0000
35.8200 203.0000 1.0000
35.8400 198.0000 1.0000
35.8600 229.0000 1.0000
35.8800 230.0000 1.0000
35.9000 253.0000 1.0000
35.9200 231.0000 1.0000
35.9400 234.0000 1.0000
35.9600 271.0000 1.0000
35.9800 245.0000 1.0000
36.0000 227.0000 1.0000
36.0200 274.0000 1.0000
36.0400 222.0000 1.0000
36.0600 240.0000 1.0000
36.0800 264.0000 1.0000
36.1000 232.0000 1.0000
36.1200 221.0000 1.0000
36.1400 243.0000 1.0000
36.1600 235.0000 1.0000
36.1800 261.0000 1.0000
36.2000 329.0000 1.0000
36.2200 314.0000 1.0000
36.2400 419.0000 1.0000
36.2600 488.0000 1.0000
36.2800 532.0000 1.0000
36.3000 609.0000 1.0000
36.3200 681.0000 1.0000
36.3400 697.0000 1.0000
36.3600 719.0000 1.0000
36.3800 738.0000 1.0000
36.4000 714.0000 1.0000
36.4200 598.0000 1.0000
36.4400 546.0000 1.0000
36.4600 512.0000 1.0000
36.4800 447.0000 1.0000
36.5000 404.0000 1.0000
36.5200 345.0000 1.0000
36.5400 292.0000 1.0000
36.5600 265.0000 1.0000
36.5800 256.0000 1.0000
36.6000 236.0000 1.0000
36.6200 239.0000 1.0000
36.6400 225.0000 1.0000
36.6600 245.0000 1.0000
36.6800 232.0000 1.0000
36.7000 231.0000 1.0000
36.7200 233.0000 1.0000
36.7400 235.0000 1.0000
36.7600 240.0000 1.0000
36.7800 230.0000 1.0000
36.8000 253.0000 1.0000
36.8200 265.0000 1.0000
36.8400 277.0000 1.0000
36.8600 263.0000 1.0000
36.8800 231.0000 1.0000
36.9000 227.0000 1.0000
36.9200 238.0000 1.0000
36.9400 235.0000 1.0000
36.9600 209.0000 1.0000
36.9800 226.0000 1.0000
37.0000 200.0000 1.0000
37.0200 219.0000 1.0000
37.0400 202.0000 1.0000
37.0600 206.0000 1.0000
37.0800 207.0000 1.0000
37.1000 225.0000 1.0000
37.1200 228.0000 1.0000
37.1400 225.0000 1.0000
37.1600 241.0000 1.0000
37.1800 251.0000 1.0000
37.2000 228.0000 1.0000
37.2200 261.0000 1.0000
37.2400 271.0000 1.0000
37.2600 277.0000 1.0000
37.2800 305.0000 1.0000
37.3000 315.0000 1.0000
37.3200 279.0000 1.0000
37.3400 286.0000 1.0000
37.3600 317.0000 1.0000
37.3800 308.0000 1.0000
37.4000 331.0000 1.0000
37.4200 383.0000 1.0000
37.4400 384.0000 1.0000
37.4600 438.0000 1.0000
37.4800 516.0000 1.0000
37.5000 600.0000 1.0000
37.5200 710.0000 1.0000
37.5400 759.0000 1.0000
37.5600 803.0000 1.0000
37.5800 829.0000 1.0000
37.6000 823.0000 1.0000
37.6200 772.0000 1.0000
37.6400 700.0000 1.0000
37.6600 622.0000 1.0000
37.6800 543.0000 1.0000
37.7000 442.0000 1.0000
37.7200 372.0000 1.0000
37.7400 331.0000 1.0000
37.7600 287.0000 1.0000
37.7800 224.0000 1.0000
37.8000 205.0000 1.0000
37.8200 178.0000 1.0000
37.8400 159.0000 1.0000
37.8600 162.0000 1.0000
37.8800 180.0000 1.0000
37.9000 177.0000 1.0000
37.9200 177.0000 1.0000
37.9400 164.0000 1.0000
37.9600 171.0000 1.0000
37.9800 165.0000 1.0000
38.0000 164.0000 1.0000
38.0200 174.0000 1.0000
38.0400 162.0000 1.0000
38.0600 155.0000 1.0000
38.0800 167.0000 1.0000
38.1000 153.0000 1.0000
38.1200 155.0000 1.0000
38.1400 150.0000 1.0000
38.1600 171.0000 1.0000
38.1800 163.0000 1.0000
38.2000 158.0000 1.0000
38.2200 163.0000 1.0000
38.2400 161.0000 1.0000
38.2600 174.0000 1.0000
38.2800 164.0000 1.0000
38.3000 162.0000 1.0000
38.3200 173.0000 1.0000
38.3400 180.0000 1.0000
38.3600 184.0000 1.0000
38.3800 181.0000 1.0000
38.4000 176.0000 1.0000
38.4200 186.0000 1.0000
38.4400 187.0000 1.0000
38.4600 171.0000 1.0000
38.4800 174.0000 1.0000
38.5000 183.0000 1.0000
38.5200 175.0000 1.0000
38.5400 161.0000 1.0000
38.5600 160.0000 1.0000
38.5800 177.0000 1.0000
38.6000 177.0000 1.0000
38.6200 187.0000 1.0000
38.6400 185.0000 1.0000
38.6600 188.0000 1.0000
38.6800 187.0000 1.0000
38.7000 184.0000 1.0000
38.7200 200.0000 1.0000
38.7400 197.0000 1.0000
38.7600 183.0000 1.0000
38.7800 190.0000 1.0000
38.8000 200.0000 1.0000
38.8200 195.0000 1.0000
38.8400 190.0000 1.0000
38.8600 197.0000 1.0000
38.8800 207.0000 1.0000
38.9000 195.0000 1.0000
38.9200 188.0000 1.0000
38.9400 194.0000 1.0000
38.9600 214.0000 1.0000
38.9800 217.0000 1.0000
39.0000 195.0000 1.0000
39.0200 203.0000 1.0000
39.0400 214.0000 1.0000
39.0600 224.0000 1.0000
39.0800 235.0000 1.0000
39.1000 262.0000 1.0000
39.1200 278.0000 1.0000
39.1400 280.0000 1.0000
39.1600 321.0000 1.0000
39.1800 382.0000 1.0000
39.2000 433.0000 1.0000
39.2200 513.0000 1.0000
39.2400 590.0000 1.0000
39.2600 637.0000 1.0000
39.2800 635.0000 1.0000
39.3000 634.0000 1.0000
39.3200 588.0000 1.0000
39.3400 542.0000 1.0000
39.3600 487.0000 1.0000
39.3800 438.0000 1.0000
39.4000 377.0000 1.0000
39.4200 328.0000 1.0000
39.4400 298.0000 1.0000
39.4600 262.0000 1.0000
39.4800 224.0000 1.0000
39.5000 196.0000 1.0000
39.5200 180.0000 1.0000
39.5400 187.0000 1.0000
39.5600 194.0000 1.0000
39.5800 192.0000 1.0000
39.6000 162.0000 1.0000
39.6200 151.0000 1.0000
39.6400 154.0000 1.0000
39.6600 147.0000 1.0000
39.6800 144.0000 1.0000
39.7000 150.0000 1.0000
39.7200 156.0000 1.0000
39.7400 145.0000 1.0000
39.7600 142.0000 1.0000
39.7800 135.0000 1.0000
39.8000 148.0000 1.0000
39.8200 172.0000 1.0000
39.8400 154.0000 1.0000
39.8600 147.0000 1.0000
39.8800 153.0000 1.0000
39.9000 156.0000 1.0000
39.9200 173.0000 1.0000
39.9400 194.0000 1.0000
39.9600 195.0000 1.0000
39.9800 218.0000 1.0000
40.0000 218.0000 1.0000
40.0200 220.0000 1.0000
40.0400 276.0000 1.0000
40.0600 314.0000 1.0000
40.0800 326.0000 1.0000
40.1000 341.0000 1.0000
40.1200 344.0000 1.0000
40.1400 325.0000 1.0000
40.1600 301.0000 1.0000
40.1800 294.0000 1.0000
40.2000 274.0000 1.0000
40.2200 240.0000 1.0000
40.2400 227.0000 1.0000
40.2600 203.0000 1.0000
40.2800 176.0000 1.0000
40.3000 164.0000 1.0000
40.3200 158.0000 1.0000
40.3400 135.0000 1.0000
40.3600 107.0000 1.0000
40.3800 111.0000 1.0000
40.4000 126.0000 1.0000
40.4200 121.0000 1.0000
40.4400 128.0000 1.0000
40.4600 136.0000 1.0000
40.4800 126.0000 1.0000
40.5000 130.0000 1.0000
40.5200 135.0000 1.0000
40.5400 138.0000 1.0000
40.5600 158.0000 1.0000
40.5800 167.0000 1.0000
40.6000 155.0000 1.0000
40.6200 154.0000 1.0000
40.6400 153.0000 1.0000
40.6600 142.0000 1.0000
40.6800 142.0000 1.0000
40.7000 137.0000 1.0000
40.7200 137.0000 1.0000
40.7400 146.0000 1.0000
40.7600 147.0000 1.0000
40.7800 152.0000 1.0000
40.8000 145.0000 1.0000
40.8200 139.0000 1.0000
40.8400 149.0000 1.0000
40.8600 146.0000 1.0000
40.8800 142.0000 1.0000
40.9000 161.0000 1.0000
40.9200 158.0000 1.0000
40.9400 161.0000 1.0000
40.9600 146.0000 1.0000
40.9800 151.0000 1.0000
41.0000 179.0000 1.0000
41.0200 148.0000 1.0000
41.0400 150.0000 1.0000
41.0600 164.0000 1.0000
41.0800 153.0000 1.0000
41.1000 152.0000 1.0000
41.1200 150.0000 1.0000
41.1400 155.0000 1.0000
41.1600 161.0000 1.0000
41.1800 154.0000 1.0000
41.2000 144.0000 1.0000
41.2200 133.0000 1.0000
41.2400 138.0000 1.0000
41.2600 132.0000 1.0000
41.2800 128.0000 1.0000
41.3000 143.0000 1.0000
41.3200 155.0000 1.0000
41.3400 165.0000 1.0000
41.3600 157.0000 1.0000
41.3800 159.0000 1.0000
41.4000 175.0000 1.0000
41.4200 184.0000 1.0000
41.4400 206.0000 1.0000
41.4600 216.0000 1.0000
41.4800 222.0000 1.0000
41.5000 247.0000 1.0000
41.5200 268.0000 1.0000
41.5400 281.0000 1.0000
41.5600 287.0000 1.0000
41.5800 286.0000 1.0000
41.6000 278.0000 1.0000
41.6200 282.0000 1.0000
41.6400 284.0000 1.0000
41.6600 271.0000 1.0000
41.6800 267.0000 1.0000
41.7000 244.0000 1.0000
41.7200 222.0000 1.0000
41.7400 227.0000 1.0000
41.7600 211.0000 1.0000
41.7800 191.0000 1.0000
41.8000 195.0000 1.0000
41.8200 191.0000 1.0000
41.8400 172.0000 1.0000
41.8600 166.0000 1.0000
41.8800 163.0000 1.0000
41.9000 172.0000 1.0000
41.9200 160.0000 1.0000
41.9400 159.0000 1.0000
41.9600 192.0000 1.0000
41.9800 215.0000 1.0000
42.0000 209.0000 1.0000
42.0200 213.0000 1.0000
42.0400 236.0000 1.0000
42.0600 252.0000 1.0000
42.0800 271.0000 1.0000
42.1000 304.0000 1.0000
42.1200 321.0000 1.0000
42.1400 354.0000 1.0000
42.1600 393.0000 1.0000
42.1800 469.0000 1.0000
42.2000 520.0000 1.0000
42.2200 534.0000 1.0000
42.2400 592.0000 1.0000
42.2600 611.0000 1.0000
42.2800 595.0000 1.0000
42.3000 594.0000 1.0000
42.3200 561.0000 1.0000
42.3400 516.0000 1.0000
42.3600 441.0000 1.0000
42.3800 390.0000 1.0000
42.4000 360.0000 1.0000
42.4200 362.0000 1.0000
42.4400 301.0000 1.0000
42.4600 283.0000 1.0000
42.4800 243.0000 1.0000
42.5000 268.0000 1.0000
42.5200 266.0000 1.0000
42.5400 269.0000 1.0000
42.5600 259.0000 1.0000
42.5800 284.0000 1.0000
42.6000 293.0000 1.0000
42.6200 302.0000 1.0000
42.6400 311.0000 1.0000
42.6600 293.0000 1.0000
42.6800 313.0000 1.0000
42.7000 298.0000 1.0000
42.7200 291.0000 1.0000
42.7400 291.0000 1.0000
42.7600 318.0000 1.0000
42.7800 281.0000 1.0000
42.8000 285.0000 1.0000
42.8200 300.0000 1.0000
42.8400 270.0000 1.0000
42.8600 281.0000 1.0000
42.8800 272.0000 1.0000
42.9000 287.0000 1.0000
42.9200 299.0000 1.0000
42.9400 354.0000 1.0000
42.9600 385.0000 1.0000
42.9800 420.0000 1.0000
43.0000 501.0000 1.0000
43.0200 573.0000 1.0000
43.0400 680.0000 1.0000
43.0600 857.0000 1.0000
43.0800 1065.0000 1.0000
43.1000 1270.0000 1.0000
43.1200 1425.0000 1.0000
43.1400 1665.0000 1.0000
43.1600 1755.0000 1.0000
43.1800 1702.0000 1.0000
43.2000 1636.0000 1.0000
43.2200 1540.0000 1.0000
43.2400 1388.0000 1.0000
43.2600 1217.0000 1.0000
43.2800 1081.0000 1.0000
43.3000 947.0000 1.0000
43.3200 812.0000 1.0000
43.3400 620.0000 1.0000
43.3600 509.0000 1.0000
43.3800 394.0000 1.0000
43.4000 335.0000 1.0000
43.4200 259.0000 1.0000
43.4400 246.0000 1.0000
43.4600 238.0000 1.0000
43.4800 218.0000 1.0000
43.5000 223.0000 1.0000
43.5200 221.0000 1.0000
43.5400 200.0000 1.0000
43.5600 194.0000 1.0000
43.5800 177.0000 1.0000
43.6000 157.0000 1.0000
43.6200 165.0000 1.0000
43.6400 170.0000 1.0000
43.6600 160.0000 1.0000
43.6800 163.0000 1.0000
43.7000 160.0000 1.0000
43.7200 148.0000 1.0000
43.7400 145.0000 1.0000
43.7600 158.0000 1.0000
43.7800 143.0000 1.0000
43.8000 135.0000 1.0000
43.8200 134.0000 1.0000
43.8400 149.0000 1.0000
43.8600 153.0000 1.0000
43.8800 142.0000 1.0000
43.9000 150.0000 1.0000
43.9200 159.0000 1.0000
43.9400 168.0000 1.0000
43.9600 143.0000 1.0000
43.9800 150.0000 1.0000
44.0000 143.0000 1.0000
44.0200 149.0000 1.0000
44.0400 144.0000 1.0000
44.0600 133.0000 1.0000
44.0800 131.0000 1.0000
44.1000 121.0000 1.0000
44.1200 127.0000 1.0000
44.1400 126.0000 1.0000
44.1600 120.0000 1.0000
44.1800 134.0000 1.0000
44.2000 115.0000 1.0000
44.2200 137.0000 1.0000
44.2400 123.0000 1.0000
44.2600 126.0000 1.0000
44.2800 116.0000 1.0000
44.3000 104.0000 1.0000
44.3200 123.0000 1.0000
44.3400 131.0000 1.0000
44.3600 135.0000 1.0000
44.3800 136.0000 1.0000
44.4000 141.0000 1.0000
44.4200 142.0000 1.0000
44.4400 136.0000 1.0000
44.4600 136.0000 1.0000
44.4800 147.0000 1.0000
44.5000 134.0000 1.0000
44.5200 143.0000 1.0000
44.5400 141.0000 1.0000
44.5600 135.0000 1.0000
44.5800 159.0000 1.0000
44.6000 167.0000 1.0000
44.6200 169.0000 1.0000
44.6400 160.0000 1.0000
44.6600 163.0000 1.0000
44.6800 153.0000 1.0000
44.7000 183.0000 1.0000
44.7200 155.0000 1.0000
44.7400 156.0000 1.0000
44.7600 165.0000 1.0000
44.7800 151.0000 1.0000
44.8000 147.0000 1.0000
44.8200 167.0000 1.0000
44.8400 154.0000 1.0000
44.8600 188.0000 1.0000
44.8800 187.0000 1.0000
44.9000 187.0000 1.0000
44.9200 168.0000 1.0000
44.9400 178.0000 1.0000
44.9600 195.0000 1.0000
44.9800 178.0000 1.0000
45.0000 202.0000 1.0000
45.0200 192.0000 1.0000
45.0400 198.0000 1.0000
45.0600 176.0000 1.0000
45.0800 218.0000 1.0000
45.1000 199.0000 1.0000
45.1200 154.0000 1.0000
45.1400 173.0000 1.0000
45.1600 197.0000 1.0000
45.1800 179.0000 1.0000
45.2000 163.0000 1.0000
45.2200 203.0000 1.0000
45.2400 161.0000 1.0000
45.2600 168.0000 1.0000
45.2800 188.0000 1.0000
45.3000 182.0000 1.0000
45.3200 209.0000 1.0000
45.3400 179.0000 1.0000
45.3600 205.0000 1.0000
45.3800 192.0000 1.0000
45.4000 207.0000 1.0000
45.4200 237.0000 1.0000
45.4400 212.0000 1.0000
45.4600 246.0000 1.0000
45.4800 242.0000 1.0000
45.5000 319.0000 1.0000
45.5200 310.0000 1.0000
45.5400 342.0000 1.0000
45.5600 366.0000 1.0000
45.5800 415.0000 1.0000
45.6000 424.0000 1.0000
45.6200 392.0000 1.0000
45.6400 387.0000 1.0000
45.6600 390.0000 1.0000
45.6800 364.0000 1.0000
45.7000 317.0000 1.0000
45.7200 296.0000 1.0000
45.7400 278.0000 1.0000
45.7600 284.0000 1.0000
45.7800 243.0000 1.0000
45.8000 205.0000 1.0000
45.8200 191.0000 1.0000
45.8400 198.0000 1.0000
45.8600 167.0000 1.0000
45.8800 170.0000 1.0000
45.9000 192.0000 1.0000
45.9200 152.0000 1.0000
45.9400 159.0000 1.0000
45.9600 169.0000 1.0000
45.9800 163.0000 1.0000
46.0000 171.0000 1.0000
46.0200 167.0000 1.0000
46.0400 145.0000 1.0000
46.0600 160.0000 1.0000
46.0800 133.0000 1.0000
46.1000 129.0000 1.0000
46.1200 139.0000 1.0000
46.1400 117.0000 1.0000
46.1600 129.0000 1.0000
46.1800 122.0000 1.0000
46.2000 129.0000 1.0000
46.2200 107.0000 1.0000
46.2400 107.0000 1.0000
46.2600 114.0000 1.0000
46.2800 123.0000 1.0000
46.3000 123.0000 1.0000
46.3200 126.0000 1.0000
46.3400 129.0000 1.0000
46.3600 123.0000 1.0000
46.3800 119.0000 1.0000
46.4000 115.0000 1.0000
46.4200 144.0000 1.0000
46.4400 123.0000 1.0000
46.4600 99.0000 1.0000
46.4800 120.0000 1.0000
46.5000 129.0000 1.0000
46.5200 134.0000 1.0000
46.5400 143.0000 1.0000
46.5600 134.0000 1.0000
46.5800 130.0000 1.0000
46.6000 145.0000 1.0000
46.6200 150.0000 1.0000
46.6400 150.0000 1.0000
46.6600 154.0000 1.0000
46.6800 153.0000 1.0000
46.7000 159.0000 1.0000
46.7200 159.0000 1.0000
46.7400 165.0000 1.0000
46.7600 147.0000 1.0000
46.7800 155.0000 1.0000
46.8000 150.0000 1.0000
46.8200 149.0000 1.0000
46.8400 156.0000 1.0000
46.8600 153.0000 1.0000
46.8800 162.0000 1.0000
46.9000 153.0000 1.0000
46.9200 164.0000 1.0000
46.9400 174.0000 1.0000
46.9600 159.0000 1.0000
46.9800 154.0000 1.0000
47.0000 159.0000 1.0000
47.0200 157.0000 1.0000
47.0400 155.0000 1.0000
47.0600 158.0000 1.0000
47.0800 139.0000 1.0000
47.1000 127.0000 1.0000
47.1200 143.0000 1.0000
47.1400 143.0000 1.0000
47.1600 153.0000 1.0000
47.1800 160.0000 1.0000
47.2000 176.0000 1.0000
47.2200 167.0000 1.0000
47.2400 173.0000 1.0000
47.2600 192.0000 1.0000
47.2800 164.0000 1.0000
47.3000 169.0000 1.0000
47.3200 173.0000 1.0000
47.3400 173.0000 1.0000
47.3600 165.0000 1.0000
47.3800 147.0000 1.0000
47.4000 152.0000 1.0000
47.4200 160.0000 1.0000
47.4400 160.0000 1.0000
47.4600 138.0000 1.0000
47.4800 141.0000 1.0000
47.5000 148.0000 1.0000
47.5200 139.0000 1.0000
47.5400 142.0000 1.0000
47.5600 146.0000 1.0000
47.5800 130.0000 1.0000
47.6000 131.0000 1.0000
47.6200 154.0000 1.0000
47.6400 163.0000 1.0000
47.6600 151.0000 1.0000
47.6800 151.0000 1.0000
47.7000 148.0000 1.0000
47.7200 165.0000 1.0000
47.7400 153.0000 1.0000
47.7600 141.0000 1.0000
47.7800 144.0000 1.0000
47.8000 155.0000 1.0000
47.8200 161.0000 1.0000
47.8400 148.0000 1.0000
47.8600 144.0000 1.0000
47.8800 129.0000 1.0000
47.9000 136.0000 1.0000
47.9200 145.0000 1.0000
47.9400 146.0000 1.0000
47.9600 150.0000 1.0000
47.9800 152.0000 1.0000
48.0000 169.0000 1.0000
48.0200 193.0000 1.0000
48.0400 194.0000 1.0000
48.0600 197.0000 1.0000
48.0800 203.0000 1.0000
48.1000 199.0000 1.0000
48.1200 196.0000 1.0000
48.1400 200.0000 1.0000
48.1600 208.0000 1.0000
48.1800 216.0000 1.0000
48.2000 214.0000 1.0000
48.2200 198.0000 1.0000
48.2400 176.0000 1.0000
48.2600 176.0000 1.0000
48.2800 162.0000 1.0000
48.3000 151.0000 1.0000
48.3200 151.0000 1.0000
48.3400 143.0000 1.0000
48.3600 147.0000 1.0000
48.3800 164.0000 1.0000
48.4000 156.0000 1.0000
48.4200 142.0000 1.0000
48.4400 140.0000 1.0000
48.4600 145.0000 1.0000
48.4800 147.0000 1.0000
48.5000 145.0000 1.0000
48.5200 148.0000 1.0000
48.5400 140.0000 1.0000
48.5600 137.0000 1.0000
48.5800 143.0000 1.0000
48.6000 141.0000 1.0000
48.6200 146.0000 1.0000
48.6400 148.0000 1.0000
48.6600 161.0000 1.0000
48.6800 163.0000 1.0000
48.7000 155.0000 1.0000
48.7200 169.0000 1.0000
48.7400 176.0000 1.0000
48.7600 171.0000 1.0000
48.7800 176.0000 1.0000
48.8000 185.0000 1.0000
48.8200 198.0000 1.0000
48.8400 188.0000 1.0000
48.8600 189.0000 1.0000
48.8800 203.0000 1.0000
48.9000 200.0000 1.0000
48.9200 215.0000 1.0000
48.9400 230.0000 1.0000
48.9600 238.0000 1.0000
48.9800 249.0000 1.0000
49.0000 260.0000 1.0000
49.0200 253.0000 1.0000
49.0400 240.0000 1.0000
49.0600 239.0000 1.0000
49.0800 240.0000 1.0000
49.1000 250.0000 1.0000
49.1200 248.0000 1.0000
49.1400 224.0000 1.0000
49.1600 214.0000 1.0000
49.1800 215.0000 1.0000
49.2000 207.0000 1.0000
49.2200 204.0000 1.0000
49.2400 214.0000 1.0000
49.2600 218.0000 1.0000
49.2800 204.0000 1.0000
49.3000 184.0000 1.0000
49.3200 180.0000 1.0000
49.3400 193.0000 1.0000
49.3600 200.0000 1.0000
49.3800 212.0000 1.0000
49.4000 200.0000 1.0000
49.4200 212.0000 1.0000
49.4400 231.0000 1.0000
49.4600 237.0000 1.0000
49.4800 244.0000 1.0000
49.5000 247.0000 1.0000
49.5200 296.0000 1.0000
49.5400 323.0000 1.0000
49.5600 328.0000 1.0000
49.5800 350.0000 1.0000
49.6000 348.0000 1.0000
49.6200 347.0000 1.0000
49.6400 357.0000 1.0000
49.6600 397.0000 1.0000
49.6800 422.0000 1.0000
49.7000 441.0000 1.0000
49.7200 429.0000 1.0000
49.7400 425.0000 1.0000
49.7600 447.0000 1.0000
49.7800 456.0000 1.0000
49.8000 487.0000 1.0000
49.8200 551.0000 1.0000
49.8400 588.0000 1.0000
49.8600 638.0000 1.0000
49.8800 730.0000 1.0000
49.9000 845.0000 1.0000
49.9200 964.0000 1.0000
49.9400 1057.0000 1.0000
49.9600 1077.0000 1.0000
49.9800 997.0000 1.0000
50.0000 931.0000 1.0000
50.0200 832.0000 1.0000
50.0400 789.0000 1.0000
50.0600 716.0000 1.0000
50.0800 653.0000 1.0000
50.1000 597.0000 1.0000
50.1200 542.0000 1.0000
50.1400 486.0000 1.0000
50.1600 413.0000 1.0000
50.1800 326.0000 1.0000
50.2000 267.0000 1.0000
50.2200 236.0000 1.0000
50.2400 236.0000 1.0000
50.2600 232.0000 1.0000
50.2800 250.0000 1.0000
50.3000 261.0000 1.0000
50.3200 282.0000 1.0000
50.3400 278.0000 1.0000
50.3600 305.0000 1.0000
50.3800 313.0000 1.0000
50.4000 352.0000 1.0000
50.4200 349.0000 1.0000
50.4400 352.0000 1.0000
50.4600 382.0000 1.0000
50.4800 374.0000 1.0000
50.5000 367.0000 1.0000
50.5200 350.0000 1.0000
50.5400 369.0000 1.0000
50.5600 356.0000 1.0000
50.5800 368.0000 1.0000
50.6000 340.0000 1.0000
50.6200 297.0000 1.0000
50.6400 265.0000 1.0000
50.6600 270.0000 1.0000
50.6800 254.0000 1.0000
50.7000 233.0000 1.0000
50.7200 236.0000 1.0000
50.7400 222.0000 1.0000
50.7600 196.0000 1.0000
50.7800 207.0000 1.0000
50.8000 196.0000 1.0000
50.8200 191.0000 1.0000
50.8400 192.0000 1.0000
50.8600 181.0000 1.0000
50.8800 212.0000 1.0000
50.9000 191.0000 1.0000
50.9200 227.0000 1.0000
50.9400 236.0000 1.0000
50.9600 269.0000 1.0000
50.9800 263.0000 1.0000
51.0000 237.0000 1.0000
51.0200 242.0000 1.0000
51.0400 297.0000 1.0000
51.0600 307.0000 1.0000
51.0800 319.0000 1.0000
51.1000 317.0000 1.0000
51.1200 339.0000 1.0000
51.1400 313.0000 1.0000
51.1600 307.0000 1.0000
51.1800 338.0000 1.0000
51.2000 303.0000 1.0000
51.2200 253.0000 1.0000
51.2400 273.0000 1.0000
51.2600 253.0000 1.0000
51.2800 238.0000 1.0000
51.3000 268.0000 1.0000
51.3200 248.0000 1.0000
51.3400 222.0000 1.0000
51.3600 223.0000 1.0000
51.3800 208.0000 1.0000
51.4000 198.0000 1.0000
51.4200 174.0000 1.0000
51.4400 182.0000 1.0000
51.4600 198.0000 1.0000
51.4800 185.0000 1.0000
51.5000 210.0000 1.0000
51.5200 154.0000 1.0000
51.5400 163.0000 1.0000
51.5600 150.0000 1.0000
51.5800 164.0000 1.0000
51.6000 147.0000 1.0000
51.6200 163.0000 1.0000
51.6400 120.0000 1.0000
51.6600 146.0000 1.0000
51.6800 142.0000 1.0000
51.7000 154.0000 1.0000
51.7200 130.0000 1.0000
51.7400 132.0000 1.0000
51.7600 138.0000 1.0000
51.7800 146.0000 1.0000
51.8000 138.0000 1.0000
51.8200 124.0000 1.0000
51.8400 137.0000 1.0000
51.8600 143.0000 1.0000
51.8800 150.0000 1.0000
51.9000 155.0000 1.0000
51.9200 170.0000 1.0000
51.9400 152.0000 1.0000
51.9600 165.0000 1.0000
51.9800 189.0000 1.0000
52.0000 193.0000 1.0000
52.0200 189.0000 1.0000
52.0400 196.0000 1.0000
52.0600 191.0000 1.0000
52.0800 216.0000 1.0000
52.1000 239.0000 1.0000
52.1200 205.0000 1.0000
52.1400 212.0000 1.0000
52.1600 243.0000 1.0000
52.1800 241.0000 1.0000
52.2000 282.0000 1.0000
52.2200 288.0000 1.0000
52.2400 395.0000 1.0000
52.2600 408.0000 1.0000
52.2800 474.0000 1.0000
52.3000 580.0000 1.0000
52.3200 685.0000 1.0000
52.3400 709.0000 1.0000
52.3600 804.0000 1.0000
52.3800 864.0000 1.0000
52.4000 841.0000 1.0000
52.4200 803.0000 1.0000
52.4400 731.0000 1.0000
52.4600 683.0000 1.0000
52.4800 614.0000 1.0000
52.5000 568.0000 1.0000
52.5200 549.0000 1.0000
52.5400 529.0000 1.0000
52.5600 488.0000 1.0000
52.5800 385.0000 1.0000
52.6000 315.0000 1.0000
52.6200 299.0000 1.0000
52.6400 259.0000 1.0000
52.6600 241.0000 1.0000
52.6800 241.0000 1.0000
52.7000 194.0000 1.0000
52.7200 220.0000 1.0000
52.7400 206.0000 1.0000
52.7600 189.0000 1.0000
52.7800 194.0000 1.0000
52.8000 182.0000 1.0000
52.8200 173.0000 1.0000
52.8400 188.0000 1.0000
52.8600 196.0000 1.0000
52.8800 192.0000 1.0000
52.9000 184.0000 1.0000
52.9200 192.0000 1.0000
52.9400 196.0000 1.0000
52.9600 195.0000 1.0000
52.9800 194.0000 1.0000
53.0000 206.0000 1.0000
53.0200 197.0000 1.0000
53.0400 212.0000 1.0000
53.0600 196.0000 1.0000
53.0800 168.0000 1.0000
53.1000 204.0000 1.0000
53.1200 186.0000 1.0000
53.1400 191.0000 1.0000
53.1600 180.0000 1.0000
53.1800 197.0000 1.0000
53.2000 158.0000 1.0000
53.2200 166.0000 1.0000
53.2400 163.0000 1.0000
53.2600 151.0000 1.0000
53.2800 131.0000 1.0000
53.3000 143.0000 1.0000
53.3200 129.0000 1.0000
53.3400 151.0000 1.0000
53.3600 138.0000 1.0000
53.3800 119.0000 1.0000
53.4000 134.0000 1.0000
53.4200 123.0000 1.0000
53.4400 108.0000 1.0000
53.4600 148.0000 1.0000
53.4800 122.0000 1.0000
53.5000 121.0000 1.0000
53.5200 117.0000 1.0000
53.5400 117.0000 1.0000
53.5600 143.0000 1.0000
53.5800 124.0000 1.0000
53.6000 124.0000 1.0000
53.6200 150.0000 1.0000
53.6400 164.0000 1.0000
53.6600 149.0000 1.0000
53.6800 136.0000 1.0000
53.7000 126.0000 1.0000
53.7200 152.0000 1.0000
53.7400 148.0000 1.0000
53.7600 157.0000 1.0000
53.7800 148.0000 1.0000
53.8000 142.0000 1.0000
53.8200 146.0000 1.0000
53.8400 150.0000 1.0000
53.8600 135.0000 1.0000
53.8800 131.0000 1.0000
53.9000 144.0000 1.0000
53.9200 160.0000 1.0000
53.9400 157.0000 1.0000
53.9600 163.0000 1.0000
53.9800 159.0000 1.0000
54.0000 147.0000 1.0000
54.0200 133.0000 1.0000
54.0400 153.0000 1.0000
54.0600 148.0000 1.0000
54.0800 155.0000 1.0000
54.1000 160.0000 1.0000
54.1200 161.0000 1.0000
54.1400 156.0000 1.0000
54.1600 151.0000 1.0000
54.1800 167.0000 1.0000
54.2000 154.0000 1.0000
54.2200 164.0000 1.0000
54.2400 174.0000 1.0000
54.2600 169.0000 1.0000
54.2800 166.0000 1.0000
54.3000 175.0000 1.0000
54.3200 168.0000 1.0000
54.3400 161.0000 1.0000
54.3600 150.0000 1.0000
54.3800 149.0000 1.0000
54.4000 147.0000 1.0000
54.4200 135.0000 1.0000
54.4400 149.0000 1.0000
54.4600 158.0000 1.0000
54.4800 156.0000 1.0000
54.5000 157.0000 1.0000
54.5200 168.0000 1.0000
54.5400 174.0000 1.0000
54.5600 178.0000 1.0000
54.5800 197.0000 1.0000
54.6000 246.0000 1.0000
54.6200 283.0000 1.0000
54.6400 318.0000 1.0000
54.6600 353.0000 1.0000
54.6800 356.0000 1.0000
54.7000 379.0000 1.0000
54.7200 378.0000 1.0000
54.7400 369.0000 1.0000
54.7600 340.0000 1.0000
54.7800 334.0000 1.0000
54.8000 332.0000 1.0000
54.8200 294.0000 1.0000
54.8400 258.0000 1.0000
54.8600 267.0000 1.0000
54.8800 259.0000 1.0000
54.9000 231.0000 1.0000
54.9200 215.0000 1.0000
54.9400 195.0000 1.0000
54.9600 177.0000 1.0000
54.9800 174.0000 1.0000
55.0000 166.0000 1.0000
55.0200 187.0000 1.0000
55.0400 203.0000 1.0000
55.0600 211.0000 1.0000
55.0800 236.0000 1.0000
55.1000 244.0000 1.0000
55.1200 245.0000 1.0000
55.1400 258.0000 1.0000
55.1600 276.0000 1.0000
55.1800 254.0000 1.0000
55.2000 240.0000 1.0000
55.2200 229.0000 1.0000
55.2400 212.0000 1.0000
55.2600 215.0000 1.0000
55.2800 220.0000 1.0000
55.3000 217.0000 1.0000
55.3200 209.0000 1.0000
55.3400 205.0000 1.0000
55.3600 194.0000 1.0000
55.3800 185.0000 1.0000
55.4000 180.0000 1.0000
55.4200 155.0000 1.0000
55.4400 140.0000 1.0000
55.4600 136.0000 1.0000
55.4800 144.0000 1.0000
55.5000 152.0000 1.0000
55.5200 137.0000 1.0000
55.5400 136.0000 1.0000
55.5600 145.0000 1.0000
55.5800 137.0000 1.0000
55.6000 138.0000 1.0000
55.6200 133.0000 1.0000
55.6400 134.0000 1.0000
55.6600 137.0000 1.0000
55.6800 130.0000 1.0000
55.7000 134.0000 1.0000
55.7200 138.0000 1.0000
55.7400 134.0000 1.0000
55.7600 140.0000 1.0000
55.7800 143.0000 1.0000
55.8000 136.0000 1.0000
55.8200 147.0000 1.0000
55.8400 144.0000 1.0000
55.8600 132.0000 1.0000
55.8800 137.0000 1.0000
55.9000 146.0000 1.0000
55.9200 134.0000 1.0000
55.9400 143.0000 1.0000
55.9600 147.0000 1.0000
55.9800 135.0000 1.0000
56.0000 146.0000 1.0000
56.0200 145.0000 1.0000
56.0400 143.0000 1.0000
56.0600 149.0000 1.0000
56.0800 143.0000 1.0000
56.1000 132.0000 1.0000
56.1200 136.0000 1.0000
56.1400 139.0000 1.0000
56.1600 140.0000 1.0000
56.1800 139.0000 1.0000
56.2000 141.0000 1.0000
56.2200 140.0000 1.0000
56.2400 138.0000 1.0000
56.2600 146.0000 1.0000
56.2800 141.0000 1.0000
56.3000 115.0000 1.0000
56.3200 131.0000 1.0000
56.3400 140.0000 1.0000
56.3600 129.0000 1.0000
56.3800 132.0000 1.0000
56.4000 138.0000 1.0000
56.4200 136.0000 1.0000
56.4400 128.0000 1.0000
56.4600 138.0000 1.0000
56.4800 143.0000 1.0000
56.5000 136.0000 1.0000
56.5200 131.0000 1.0000
56.5400 148.0000 1.0000
56.5600 155.0000 1.0000
56.5800 143.0000 1.0000
56.6000 149.0000 1.0000
56.6200 148.0000 1.0000
56.6400 133.0000 1.0000
56.6600 142.0000 1.0000
56.6800 145.0000 1.0000
56.7000 149.0000 1.0000
56.7200 163.0000 1.0000
56.7400 160.0000 1.0000
56.7600 150.0000 1.0000
56.7800 149.0000 1.0000
56.8000 153.0000 1.0000
56.8200 155.0000 1.0000
56.8400 159.0000 1.0000
56.8600 154.0000 1.0000
56.8800 138.0000 1.0000
56.9000 146.0000 1.0000
56.9200 160.0000 1.0000
56.9400 168.0000 1.0000
56.9600 164.0000 1.0000
56.9800 175.0000 1.0000
57.0000 176.0000 1.0000
57.0200 186.0000 1.0000
57.0400 202.0000 1.0000
57.0600 228.0000 1.0000
57.0800 251.0000 1.0000
57.1000 261.0000 1.0000
57.1200 294.0000 1.0000
57.1400 330.0000 1.0000
57.1600 412.0000 1.0000
57.1800 504.0000 1.0000
57.2000 601.0000 1.0000
57.2200 704.0000 1.0000
57.2400 828.0000 1.0000
57.2600 977.0000 1.0000
57.2800 1168.0000 1.0000
57.3000 1274.0000 1.0000
57.3200 1403.0000 1.0000
57.3400 1431.0000 1.0000
57.3600 1364.0000 1.0000
57.3800 1255.0000 1.0000
57.4000 1102.0000 1.0000
57.4200 1004.0000 1.0000
57.4400 922.0000 1.0000
57.4600 898.0000 1.0000
57.4800 894.0000 1.0000
57.5000 837.0000 1.0000
57.5200 738.0000 1.0000
57.5400 652.0000 1.0000
57.5600 540.0000 1.0000
57.5800 388.0000 1.0000
57.6000 335.0000 1.0000
57.6200 291.0000 1.0000
57.6400 238.0000 1.0000
57.6600 234.0000 1.0000
57.6800 250.0000 1.0000
57.7000 227.0000 1.0000
57.7200 207.0000 1.0000
57.7400 192.0000 1.0000
57.7600 185.0000 1.0000
57.7800 172.0000 1.0000
57.8000 156.0000 1.0000
57.8200 159.0000 1.0000
57.8400 155.0000 1.0000
57.8600 147.0000 1.0000
57.8800 153.0000 1.0000
57.9000 137.0000 1.0000
57.9200 142.0000 1.0000
57.9400 149.0000 1.0000
57.9600 149.0000 1.0000
57.9800 148.0000 1.0000
58.0000 152.0000 1.0000
58.0200 125.0000 1.0000
58.0400 139.0000 1.0000
58.0600 144.0000 1.0000
58.0800 138.0000 1.0000
58.1000 132.0000 1.0000
58.1200 131.0000 1.0000
58.1400 141.0000 1.0000
58.1600 143.0000 1.0000
58.1800 148.0000 1.0000
58.2000 146.0000 1.0000
58.2200 161.0000 1.0000
58.2400 162.0000 1.0000
58.2600 149.0000 1.0000
58.2800 141.0000 1.0000
58.3000 161.0000 1.0000
58.3200 153.0000 1.0000
58.3400 153.0000 1.0000
58.3600 156.0000 1.0000
58.3800 166.0000 1.0000
58.4000 181.0000 1.0000
58.4200 184.0000 1.0000
58.4400 205.0000 1.0000
58.4600 179.0000 1.0000
58.4800 207.0000 1.0000
58.5000 217.0000 1.0000
58.5200 185.0000 1.0000
58.5400 192.0000 1.0000
58.5600 203.0000 1.0000
58.5800 183.0000 1.0000
58.6000 172.0000 1.0000
58.6200 177.0000 1.0000
58.6400 173.0000 1.0000
58.6600 168.0000 1.0000
58.6800 161.0000 1.0000
58.7000 160.0000 1.0000
58.7200 169.0000 1.0000
58.7400 156.0000 1.0000
58.7600 153.0000 1.0000
58.7800 131.0000 1.0000
58.8000 120.0000 1.0000
58.8200 125.0000 1.0000
58.8400 119.0000 1.0000
58.8600 127.0000 1.0000
58.8800 138.0000 1.0000
58.9000 131.0000 1.0000
58.9200 126.0000 1.0000
58.9400 133.0000 1.0000
58.9600 134.0000 1.0000
58.9800 143.0000 1.0000
59.0000 141.0000 1.0000
59.0200 137.0000 1.0000
59.0400 124.0000 1.0000
59.0600 146.0000 1.0000
59.0800 131.0000 1.0000
59.1000 142.0000 1.0000
59.1200 165.0000 1.0000
59.1400 117.0000 1.0000
59.1600 131.0000 1.0000
59.1800 144.0000 1.0000
59.2000 150.0000 1.0000
59.2200 146.0000 1.0000
59.2400 142.0000 1.0000
59.2600 142.0000 1.0000
59.2800 140.0000 1.0000
59.3000 149.0000 1.0000
59.3200 154.0000 1.0000
59.3400 154.0000 1.0000
59.3600 158.0000 1.0000
59.3800 188.0000 1.0000
59.4000 191.0000 1.0000
59.4200 191.0000 1.0000
59.4400 180.0000 1.0000
59.4600 174.0000 1.0000
59.4800 200.0000 1.0000
59.5000 225.0000 1.0000
59.5200 225.0000 1.0000
59.5400 231.0000 1.0000
59.5600 244.0000 1.0000
59.5800 271.0000 1.0000
59.6000 269.0000 1.0000
59.6200 313.0000 1.0000
59.6400 312.0000 1.0000
59.6600 349.0000 1.0000
59.6800 403.0000 1.0000
59.7000 467.0000 1.0000
59.7200 520.0000 1.0000
59.7400 586.0000 1.0000
59.7600 629.0000 1.0000
59.7800 718.0000 1.0000
59.8000 741.0000 1.0000
59.8200 698.0000 1.0000
59.8400 653.0000 1.0000
59.8600 543.0000 1.0000
59.8800 514.0000 1.0000
59.9000 492.0000 1.0000
59.9200 469.0000 1.0000
59.9400 460.0000 1.0000
59.9600 472.0000 1.0000
59.9800 441.0000 1.0000
60.0000 388.0000 1.0000
60.0200 360.0000 1.0000
60.0400 296.0000 1.0000
60.0600 256.0000 1.0000
60.0800 230.0000 1.0000
60.1000 208.0000 1.0000
60.1200 203.0000 1.0000
60.1400 198.0000 1.0000
60.1600 181.0000 1.0000
60.1800 162.0000 1.0000
60.2000 189.0000 1.0000
60.2200 190.0000 1.0000
60.2400 153.0000 1.0000
60.2600 184.0000 1.0000
60.2800 174.0000 1.0000
60.3000 183.0000 1.0000
60.3200 176.0000 1.0000
60.3400 154.0000 1.0000
60.3600 158.0000 1.0000
60.3800 163.0000 1.0000
60.4000 156.0000 1.0000
60.4200 161.0000 1.0000
60.4400 142.0000 1.0000
60.4600 142.0000 1.0000
60.4800 165.0000 1.0000
60.5000 152.0000 1.0000
60.5200 129.0000 1.0000
60.5400 147.0000 1.0000
60.5600 137.0000 1.0000
60.5800 147.0000 1.0000
60.6000 170.0000 1.0000
60.6200 130.0000 1.0000
60.6400 158.0000 1.0000
60.6600 139.0000 1.0000
60.6800 169.0000 1.0000
60.7000 172.0000 1.0000
60.7200 147.0000 1.0000
60.7400 174.0000 1.0000
60.7600 128.0000 1.0000
60.7800 158.0000 1.0000
60.8000 144.0000 1.0000
60.8200 134.0000 1.0000
60.8400 153.0000 1.0000
60.8600 153.0000 1.0000
60.8800 159.0000 1.0000
60.9000 150.0000 1.0000
60.9200 168.0000 1.0000
60.9400 209.0000 1.0000
60.9600 210.0000 1.0000
60.9800 197.0000 1.0000
61.0000 200.0000 1.0000
61.0200 242.0000 1.0000
61.0400 221.0000 1.0000
61.0600 197.0000 1.0000
61.0800 232.0000 1.0000
61.1000 253.0000 1.0000
61.1200 259.0000 1.0000
61.1400 289.0000 1.0000
61.1600 252.0000 1.0000
61.1800 273.0000 1.0000
61.2000 232.0000 1.0000
61.2200 248.0000 1.0000
61.2400 207.0000 1.0000
61.2600 216.0000 1.0000
61.2800 227.0000 1.0000
61.3000 205.0000 1.0000
61.3200 206.0000 1.0000
61.3400 204.0000 1.0000
61.3600 208.0000 1.0000
61.3800 206.0000 1.0000
61.4000 211.0000 1.0000
61.4200 184.0000 1.0000
61.4400 192.0000 1.0000
61.4600 202.0000 1.0000
61.4800 197.0000 1.0000
61.5000 198.0000 1.0000
61.5200 205.0000 1.0000
61.5400 212.0000 1.0000
61.5600 196.0000 1.0000
61.5800 207.0000 1.0000
61.6000 210.0000 1.0000
61.6200 206.0000 1.0000
61.6400 178.0000 1.0000
61.6600 198.0000 1.0000
61.6800 187.0000 1.0000
61.7000 222.0000 1.0000
61.7200 193.0000 1.0000
61.7400 178.0000 1.0000
61.7600 172.0000 1.0000
61.7800 179.0000 1.0000
61.8000 203.0000 1.0000
61.8200 195.0000 1.0000
61.8400 169.0000 1.0000
61.8600 176.0000 1.0000
61.8800 169.0000 1.0000
61.9000 187.0000 1.0000
61.9200 185.0000 1.0000
61.9400 187.0000 1.0000
61.9600 181.0000 1.0000
61.9800 177.0000 1.0000
62.0000 169.0000 1.0000
62.0200 178.0000 1.0000
62.0400 186.0000 1.0000
62.0600 178.0000 1.0000
62.0800 159.0000 1.0000
62.1000 161.0000 1.0000
62.1200 157.0000 1.0000
62.1400 163.0000 1.0000
62.1600 149.0000 1.0000
62.1800 156.0000 1.0000
62.2000 157.0000 1.0000
62.2200 172.0000 1.0000
62.2400 157.0000 1.0000
62.2600 168.0000 1.0000
62.2800 153.0000 1.0000
62.3000 162.0000 1.0000
62.3200 128.0000 1.0000
62.3400 142.0000 1.0000
62.3600 173.0000 1.0000
62.3800 158.0000 1.0000
62.4000 146.0000 1.0000
62.4200 138.0000 1.0000
62.4400 151.0000 1.0000
62.4600 149.0000 1.0000
62.4800 150.0000 1.0000
62.5000 137.0000 1.0000
62.5200 140.0000 1.0000
62.5400 172.0000 1.0000
62.5600 160.0000 1.0000
62.5800 164.0000 1.0000
62.6000 155.0000 1.0000
62.6200 147.0000 1.0000
62.6400 174.0000 1.0000
62.6600 158.0000 1.0000
62.6800 145.0000 1.0000
62.7000 152.0000 1.0000
62.7200 181.0000 1.0000
62.7400 173.0000 1.0000
62.7600 154.0000 1.0000
62.7800 151.0000 1.0000
62.8000 149.0000 1.0000
62.8200 157.0000 1.0000
62.8400 161.0000 1.0000
62.8600 167.0000 1.0000
62.8800 158.0000 1.0000
62.9000 155.0000 1.0000
62.9200 138.0000 1.0000
62.9400 145.0000 1.0000
62.9600 125.0000 1.0000
62.9800 143.0000 1.0000
63.0000 156.0000 1.0000
63.0200 138.0000 1.0000
63.0400 144.0000 1.0000
63.0600 137.0000 1.0000
63.0800 125.0000 1.0000
63.1000 141.0000 1.0000
63.1200 149.0000 1.0000
63.1400 146.0000 1.0000
63.1600 158.0000 1.0000
63.1800 163.0000 1.0000
63.2000 143.0000 1.0000
63.2200 187.0000 1.0000
63.2400 173.0000 1.0000
63.2600 186.0000 1.0000
63.2800 182.0000 1.0000
63.3000 162.0000 1.0000
63.3200 183.0000 1.0000
63.3400 176.0000 1.0000
63.3600 192.0000 1.0000
63.3800 185.0000 1.0000
63.4000 200.0000 1.0000
63.4200 187.0000 1.0000
63.4400 195.0000 1.0000
63.4600 221.0000 1.0000
63.4800 196.0000 1.0000
63.5000 233.0000 1.0000
63.5200 226.0000 1.0000
63.5400 227.0000 1.0000
63.5600 239.0000 1.0000
63.5800 247.0000 1.0000
63.6000 252.0000 1.0000
63.6200 215.0000 1.0000
63.6400 234.0000 1.0000
63.6600 233.0000 1.0000
63.6800 243.0000 1.0000
63.7000 236.0000 1.0000
63.7200 237.0000 1.0000
63.7400 233.0000 1.0000
63.7600 272.0000 1.0000
63.7800 256.0000 1.0000
63.8000 252.0000 1.0000
63.8200 288.0000 1.0000
63.8400 280.0000 1.0000
63.8600 288.0000 1.0000
63.8800 275.0000 1.0000
63.9000 281.0000 1.0000
63.9200 261.0000 1.0000
63.9400 255.0000 1.0000
63.9600 228.0000 1.0000
63.9800 205.0000 1.0000
64.0000 219.0000 1.0000
64.0200 230.0000 1.0000
64.0400 215.0000 1.0000
64.0600 214.0000 1.0000
64.0800 217.0000 1.0000
64.1000 207.0000 1.0000
64.1200 171.0000 1.0000
64.1400 165.0000 1.0000
64.1600 173.0000 1.0000
64.1800 164.0000 1.0000
64.2000 147.0000 1.0000
64.2200 165.0000 1.0000
64.2400 156.0000 1.0000
64.2600 154.0000 1.0000
64.2800 149.0000 1.0000
64.3000 142.0000 1.0000
64.3200 153.0000 1.0000
64.3400 147.0000 1.0000
64.3600 160.0000 1.0000
64.3800 160.0000 1.0000
64.4000 157.0000 1.0000
64.4200 138.0000 1.0000
64.4400 160.0000 1.0000
64.4600 164.0000 1.0000
64.4800 149.0000 1.0000
64.5000 154.0000 1.0000
64.5200 160.0000 1.0000
64.5400 149.0000 1.0000
64.5600 144.0000 1.0000
64.5800 152.0000 1.0000
64.6000 143.0000 1.0000
64.6200 158.0000 1.0000
64.6400 158.0000 1.0000
64.6600 155.0000 1.0000
64.6800 151.0000 1.0000
64.7000 151.0000 1.0000
64.7200 151.0000 1.0000
64.7400 172.0000 1.0000
64.7600 152.0000 1.0000
64.7800 157.0000 1.0000
64.8000 166.0000 1.0000
64.8200 163.0000 1.0000
64.8400 170.0000 1.0000
64.8600 161.0000 1.0000
64.8800 160.0000 1.0000
64.9000 164.0000 1.0000
64.9200 166.0000 1.0000
64.9400 178.0000 1.0000
64.9600 182.0000 1.0000
64.9800 182.0000 1.0000
65.0000 182.0000 1.0000
*RAS_INT_END
*RAS_DATA_END
