*RAS_DATA_START
*RAS_HEADER_START
*CORR_POS_DB_NAME "Angle Correction ASC6 SC WITH Mono_04082019"
*CORR_POS_GONIO_RADIUS ""
*CORR_POS_NODE_INDEX01 ""
*CORR_POS_NODE_INDEX02 ""
*CORR_POS_NODE_INDEX03 ""
*CORR_POS_NODE_INDEX04 ""
*CORR_POS_NODE_INDEX05 ""
*CORR_POS_NODE_INDEX06 ""
*CORR_POS_NODE_INDEX07 ""
*CORR_POS_NODE_INDEX08 ""
*CORR_POS_NODE_INDEX09 ""
*CORR_POS_NODE_INDEX10 ""
*CORR_POS_NODE_INDEX11 ""
*CORR_POS_NODE_LABEL01 "Si(111)"
*CORR_POS_NODE_LABEL02 "Si(220)"
*CORR_POS_NODE_LABEL03 "Si(311)"
*CORR_POS_NODE_LABEL04 "Si(400)"
*CORR_POS_NODE_LABEL05 "Si(331)"
*CORR_POS_NODE_LABEL06 "Si(422)"
*CORR_POS_NODE_LABEL07 "Si(511)"
*CORR_POS_NODE_LABEL08 "Si(440)"
*CORR_POS_NODE_LABEL09 "Si(531)"
*CORR_POS_NODE_LABEL10 "Si(620)"
*CORR_POS_NODE_LABEL11 "Si(533)"
*CORR_POS_NODE_POS_CALC01 "28.377"
*CORR_POS_NODE_POS_CALC02 "47.2506"
*CORR_POS_NODE_POS_CALC03 "56.0725"
*CORR_POS_NODE_POS_CALC04 "69.0822"
*CORR_POS_NODE_POS_CALC05 "76.3294"
*CORR_POS_NODE_POS_CALC06 "87.9853"
*CORR_POS_NODE_POS_CALC07 "94.9091"
*CORR_POS_NODE_POS_CALC08 "106.668"
*CORR_POS_NODE_POS_CALC09 "114.054"
*CORR_POS_NODE_POS_CALC10 "127.511"
*CORR_POS_NODE_POS_CALC11 "136.864"
*CORR_POS_NODE_POS_MEAS01 "28.5058"
*CORR_POS_NODE_POS_MEAS02 "47.345"
*CORR_POS_NODE_POS_MEAS03 "56.1421"
*CORR_POS_NODE_POS_MEAS04 "69.1304"
*CORR_POS_NODE_POS_MEAS05 "76.366"
*CORR_POS_NODE_POS_MEAS06 "88.0213"
*CORR_POS_NODE_POS_MEAS07 "94.9406"
*CORR_POS_NODE_POS_MEAS08 "106.689"
*CORR_POS_NODE_POS_MEAS09 "114.065"
*CORR_POS_NODE_POS_MEAS10 "127.518"
*CORR_POS_NODE_POS_MEAS11 "136.869"
*CORR_POS_OPT_ATTR "集中法"
*CORR_POS_PARAM_MU ""
*CORR_POS_PARAM_PL ""
*CORR_POS_SEMODEL_TYPE "0"
*CORR_POS_STANDARD_TYPE ""
*CORR_POS_VALUE_ANALYZER "None"
*CORR_POS_VALUE_CMONO "None"
*CORR_POS_VALUE_IMONO "None"
*CORR_POS_VALUE_IS "1.250deg"
*CORR_POS_VALUE_ISL "10.0mm"
*CORR_POS_VALUE_ISOLLER "5.0deg"
*CORR_POS_VALUE_RS1 "1.250deg"
*CORR_POS_VALUE_RS2 "0.3mm"
*CORR_POS_VALUE_RSOLLER "5.0deg"
*CORR_POS_XG_FOCUS_L ""
*CORR_POS_XG_WAVE_TYPE ""
*CORR_POS_XG_WAVE_VALUE ""
*DISP_FMT_X "%.2f"
*DISP_FMT_Y "%.0f"
*DISP_FULLSCALE "1269.0000000000"
*DISP_LINE_COLOR "255.0000000000"
*DISP_LINE_STYLE "0.0000000000"
*DISP_LINE_WIDTH "0.2500000000"
*DISP_NOTE "Collected Data-18"
*DISP_OFFSET_Y "0.0000000000"
*DISP_PEAKSEARCH_UNIT_Y "CPS"
*DISP_RANGE_BOTTOM "0.0000000000"
*DISP_RANGE_LEFT "5.0000000000"
*DISP_RANGE_LOGCUTOFF "0.0100000000"
*DISP_RANGE_RIGHT "65.0000000000"
*DISP_RANGE_TOP "1269.0000000000"
*DISP_SCALE_MODE_Y "0.0000000000"
*DISP_TAB_NAME "Theta/2-Theta"
*DISP_TITLE_Y "Intensity"
*DISP_UNIT_Y "CPS"
*DISP_WINDOW_NAME "MSG_MACROENGINE"
*FILE_COMMENT " "
*FILE_MD5 ""
*FILE_MEMO " "
*FILE_OPERATOR "Administrator"
*FILE_PART_ID "MEAS_PBEA_00223"
*FILE_SAMPLE " "
*FILE_TYPE "RAS_RAW"
*FILE_USERGROUP "System Manager"
*FILE_VERSION "1.0000000000"
*HW_ATTACHMENT_ID "ATT1031"
*HW_ATTACHMENT_NAME "6サンプルチェンジャ|ASC-6"
*HW_COUNTER_ID-0 "CUT0021"
*HW_COUNTER_ID-1 "CUT0020"
*HW_COUNTER_ID-2 "CUT0020"
*HW_COUNTER_ID-3 "CMC0021"
*HW_COUNTER_NAME-0 "SC-70|SC-70"
*HW_COUNTER_NAME-1 "None|None"
*HW_COUNTER_NAME-2 "None|None"
*HW_COUNTER_NAME-3 "検出器モノクロメータ|Detector monochromator"
*HW_COUNTER_SELECT_NAME "SC-70|SC-70"
*HW_ECP_HV "671.5000000000"
*HW_ECP_HV_UNIT "V"
*HW_GONIOMETER_ID "GON0070"
*HW_GONIOMETER_NAME "MiniFlex 300/600|MiniFlex 300/600"
*HW_GONIOMETER_RADIUS-0 "79.0"
*HW_GONIOMETER_RADIUS-1 "91.5"
*HW_GONIOMETER_RADIUS-2 "150.0"
*HW_GONIOMETER_RADIUS-3 "0"
*HW_GONIOMETER_RADIUS-4 "103.4"
*HW_GONIOMETER_RADIUS-5 "150.0"
*HW_GONIOMETER_RADIUS-6 "46.6"
*HW_GONIOMETER_RADIUS-7 "160.0"
*HW_I_OPT_ID-0 "ISL0021"
*HW_I_OPT_ID-1 "ISO0021"
*HW_I_OPT_NAME-0 "発散スリット|Divergence slit"
*HW_I_OPT_NAME-1 "入射平行スリット|Incident parallel slit"
*HW_R_ATTENUATER_AUTOMODE "0"
*HW_R_OPT_ID-0 "RSS0021"
*HW_R_OPT_ID-1 "RSO0021"
*HW_R_OPT_ID-2 "RRS0021"
*HW_R_OPT_NAME-0 "散乱スリット|Scattering slit"
*HW_R_OPT_NAME-1 "受光平行スリット|Receiving soller slit"
*HW_R_OPT_NAME-2 "受光スリット|Receiving slit"
*HW_SAMPLE_HOLDER_ID "SMP0000"
*HW_SAMPLE_HOLDER_NAME "無し|None"
*HW_XG_CURRENT_MAX "15"
*HW_XG_CURRENT_MIN "2"
*HW_XG_CURRENT_RESOLUTION "1"
*HW_XG_CURRENT_UNIT "mA"
*HW_XG_FOCUS "1mm x 10mm"
*HW_XG_FOCUS_TYPE "Normal"
*HW_XG_ID "1060"
*HW_XG_NAME "300W/600W 封入管-B|300W/600W Sealed tube-B"
*HW_XG_TARGET_ATOMIC_NUMBER "29.0000000000"
*HW_XG_TARGET_NAME "Cu"
*HW_XG_TYPE "Hermetic"
*HW_XG_VOLTAGE_MAX "40"
*HW_XG_VOLTAGE_MIN "20"
*HW_XG_VOLTAGE_RESOLUTION "1"
*HW_XG_VOLTAGE_UNIT "kV"
*HW_XG_WATT_MAX "0.600"
*HW_XG_WATT_UNIT "kW"
*HW_XG_WAVE_LENGTH_ALPHA1 "1.540593"
*HW_XG_WAVE_LENGTH_ALPHA2 "1.544414"
*HW_XG_WAVE_LENGTH_BETA "1.392250"
*MEAS_COND_AXIS_NAME-0 "Theta/2-Theta"
*MEAS_COND_AXIS_NAME-1 "Spin"
*MEAS_COND_AXIS_NAME-2 "Change"
*MEAS_COND_AXIS_NAME-3 "Soller(inc.)"
*MEAS_COND_AXIS_NAME-4 "IHS"
*MEAS_COND_AXIS_NAME-5 "DS"
*MEAS_COND_AXIS_NAME-6 "SS"
*MEAS_COND_AXIS_NAME-7 "Soller(rec.)"
*MEAS_COND_AXIS_NAME-8 "RS"
*MEAS_COND_AXIS_NAME-9 "Filter"
*MEAS_COND_AXIS_NAME-10 "Monochromator"
*MEAS_COND_AXIS_NAME-11 "HV"
*MEAS_COND_AXIS_NAME-12 "PHA"
*MEAS_COND_AXIS_NAME_INTERNAL-0 "TwoThetaTheta"
*MEAS_COND_AXIS_NAME_INTERNAL-1 "Spin"
*MEAS_COND_AXIS_NAME_INTERNAL-2 "Change"
*MEAS_COND_AXIS_NAME_INTERNAL-3 "IncidentSollerSlit"
*MEAS_COND_AXIS_NAME_INTERNAL-4 "IncidentAxdSlit"
*MEAS_COND_AXIS_NAME_INTERNAL-5 "IncidentSlitBox"
*MEAS_COND_AXIS_NAME_INTERNAL-6 "ReceivingSlitBox1"
*MEAS_COND_AXIS_NAME_INTERNAL-7 "ReceivingSollerSlit"
*MEAS_COND_AXIS_NAME_INTERNAL-8 "ReceivingSlitBox2"
*MEAS_COND_AXIS_NAME_INTERNAL-9 "Filter"
*MEAS_COND_AXIS_NAME_INTERNAL-10 "CounterMonochromator"
*MEAS_COND_AXIS_NAME_INTERNAL-11 "HV"
*MEAS_COND_AXIS_NAME_INTERNAL-12 "PHA"
*MEAS_COND_AXIS_NAME_MAGICNO-0 "268632064.0000000000"
*MEAS_COND_AXIS_NAME_MAGICNO-1 "16842752.0000000000"
*MEAS_COND_AXIS_NAME_MAGICNO-2 "16842752.0000000000"
*MEAS_COND_AXIS_NAME_MAGICNO-3 "20971521.0000000000"
*MEAS_COND_AXIS_NAME_MAGICNO-4 "22020097.0000000000"
*MEAS_COND_AXIS_NAME_MAGICNO-5 "22020097.0000000000"
*MEAS_COND_AXIS_NAME_MAGICNO-6 "23068673.0000000000"
*MEAS_COND_AXIS_NAME_MAGICNO-7 "20971521.0000000000"
*MEAS_COND_AXIS_NAME_MAGICNO-8 "23068673.0000000000"
*MEAS_COND_AXIS_NAME_MAGICNO-9 "20971521.0000000000"
*MEAS_COND_AXIS_NAME_MAGICNO-10 "20971521.0000000000"
*MEAS_COND_AXIS_NAME_MAGICNO-11 "0.0000000000"
*MEAS_COND_AXIS_NAME_MAGICNO-12 "0.0000000000"
*MEAS_COND_AXIS_OFFSET-0 "0.0000000000"
*MEAS_COND_AXIS_OFFSET-1 "-"
*MEAS_COND_AXIS_OFFSET-2 "-"
*MEAS_COND_AXIS_OFFSET-3 "-"
*MEAS_COND_AXIS_OFFSET-4 "-"
*MEAS_COND_AXIS_OFFSET-5 "-"
*MEAS_COND_AXIS_OFFSET-6 "-"
*MEAS_COND_AXIS_OFFSET-7 "-"
*MEAS_COND_AXIS_OFFSET-8 "-"
*MEAS_COND_AXIS_OFFSET-9 "-"
*MEAS_COND_AXIS_OFFSET-10 "-"
*MEAS_COND_AXIS_OFFSET-11 "-"
*MEAS_COND_AXIS_OFFSET-12 "-"
*MEAS_COND_AXIS_POSITION-0 "65.0000000000"
*MEAS_COND_AXIS_POSITION-1 "0.0000000000"
*MEAS_COND_AXIS_POSITION-2 "6.0000000000"
*MEAS_COND_AXIS_POSITION-3 "5.0deg"
*MEAS_COND_AXIS_POSITION-4 "10.0mm"
*MEAS_COND_AXIS_POSITION-5 "1.250deg"
*MEAS_COND_AXIS_POSITION-6 "1.250deg"
*MEAS_COND_AXIS_POSITION-7 "5.0deg"
*MEAS_COND_AXIS_POSITION-8 "0.3mm"
*MEAS_COND_AXIS_POSITION-9 "None"
*MEAS_COND_AXIS_POSITION-10 "Bent"
*MEAS_COND_AXIS_POSITION-11 "671.5000000000"
*MEAS_COND_AXIS_POSITION-12 "551.2500000000"
*MEAS_COND_AXIS_UNIT-0 "deg"
*MEAS_COND_AXIS_UNIT-1 ""
*MEAS_COND_AXIS_UNIT-2 ""
*MEAS_COND_AXIS_UNIT-3 ""
*MEAS_COND_AXIS_UNIT-4 ""
*MEAS_COND_AXIS_UNIT-5 ""
*MEAS_COND_AXIS_UNIT-6 ""
*MEAS_COND_AXIS_UNIT-7 ""
*MEAS_COND_AXIS_UNIT-8 ""
*MEAS_COND_AXIS_UNIT-9 ""
*MEAS_COND_AXIS_UNIT-10 ""
*MEAS_COND_AXIS_UNIT-11 "V"
*MEAS_COND_AXIS_UNIT-12 "mV"
*MEAS_COND_CORRECTION_SLIT_COUNTERMONO "None"
*MEAS_COND_CORRECTION_SLIT_DS "1.250deg"
*MEAS_COND_CORRECTION_SLIT_FILTER "None"
*MEAS_COND_CORRECTION_SLIT_IHS "10.0mm"
*MEAS_COND_CORRECTION_SLIT_RS "0.3mm"
*MEAS_COND_CORRECTION_SLIT_SOLLER_INC "5.0deg"
*MEAS_COND_CORRECTION_SLIT_SOLLER_REC "5.0deg"
*MEAS_COND_CORRECTION_SLIT_SS "1.250deg"
*MEAS_COND_COUNTER_CNTLOSS_CORR "0.0000000000"
*MEAS_COND_COUNTER_PHABASE "551.2500000000"
*MEAS_COND_COUNTER_PHAWINDOW "926.2500000000"
*MEAS_COND_COUNTER_PHA_UNIT "mV"
*MEAS_COND_COUNTER_TAUDIFF "0.2500000000"
*MEAS_COND_COUNTER_TAUINT "0.7500000000"
*MEAS_COND_IRRADIATION_MODE "OFF"
*MEAS_COND_IRRADIATION_WIDTH ""
*MEAS_COND_OPT_ATTR " "
*MEAS_COND_OPT_NAME ""
*MEAS_COND_UNSYMMETRIC_MODE "OFF"
*MEAS_COND_XG_CURRENT "15.0000000000"
*MEAS_COND_XG_VOLTAGE "40.0000000000"
*MEAS_COND_XG_WAVE_TYPE "Ka"
*MEAS_DATA_COUNT "3001.0000000000"
*MEAS_SCAN_AXIS_X "Theta/2-Theta"
*MEAS_SCAN_AXIS_X_INTERNAL "TwoThetaTheta"
*MEAS_SCAN_END_TIME "07/29/25 01:50:38"
*MEAS_SCAN_MODE "STEP"
*MEAS_SCAN_MONITOR "0"
*MEAS_SCAN_RESOLUTION_X "0.0025"
*MEAS_SCAN_SPEED "2.00"
*MEAS_SCAN_SPEED_UNIT "sec."
*MEAS_SCAN_SPEED_USER "2.00"
*MEAS_SCAN_START "5.0000000000"
*MEAS_SCAN_START_TIME "07/29/25 00:05:22"
*MEAS_SCAN_STEP "0.0200000000"
*MEAS_SCAN_STOP "65.0000000000"
*MEAS_SCAN_UNIT_X "deg"
*MEAS_SCAN_UNIT_Y "counts"
*SLIT_SYSTEM "0"
*RAS_HEADER_END
*RAS_INT_START
5.0000 1027.0000 1.0000
5.0200 978.0000 1.0000
5.0400 1100.0000 1.0000
5.0600 1063.0000 1.0000
5.0800 992.0000 1.0000
5.1000 967.0000 1.0000
5.1200 930.0000 1.0000
5.1400 945.0000 1.0000
5.1600 1002.0000 1.0000
5.1800 1035.0000 1.0000
5.2000 977.0000 1.0000
5.2200 980.0000 1.0000
5.2400 934.0000 1.0000
5.2600 930.0000 1.0000
5.2800 1033.0000 1.0000
5.3000 1022.0000 1.0000
5.3200 1028.0000 1.0000
5.3400 1018.0000 1.0000
5.3600 937.0000 1.0000
5.3800 1014.0000 1.0000
5.4000 996.0000 1.0000
5.4200 930.0000 1.0000
5.4400 951.0000 1.0000
5.4600 934.0000 1.0000
5.4800 1043.0000 1.0000
5.5000 900.0000 1.0000
5.5200 947.0000 1.0000
5.5400 1058.0000 1.0000
5.5600 977.0000 1.0000
5.5800 987.0000 1.0000
5.6000 897.0000 1.0000
5.6200 930.0000 1.0000
5.6400 990.0000 1.0000
5.6600 1043.0000 1.0000
5.6800 993.0000 1.0000
5.7000 957.0000 1.0000
5.7200 1064.0000 1.0000
5.7400 1012.0000 1.0000
5.7600 979.0000 1.0000
5.7800 969.0000 1.0000
5.8000 1014.0000 1.0000
5.8200 1001.0000 1.0000
5.8400 1007.0000 1.0000
5.8600 1090.0000 1.0000
5.8800 1054.0000 1.0000
5.9000 1045.0000 1.0000
5.9200 1057.0000 1.0000
5.9400 1044.0000 1.0000
5.9600 1006.0000 1.0000
5.9800 1052.0000 1.0000
6.0000 1043.0000 1.0000
6.0200 1080.0000 1.0000
6.0400 1079.0000 1.0000
6.0600 1002.0000 1.0000
6.0800 1023.0000 1.0000
6.1000 940.0000 1.0000
6.1200 952.0000 1.0000
6.1400 995.0000 1.0000
6.1600 955.0000 1.0000
6.1800 961.0000 1.0000
6.2000 919.0000 1.0000
6.2200 979.0000 1.0000
6.2400 883.0000 1.0000
6.2600 749.0000 1.0000
6.2800 749.0000 1.0000
6.3000 809.0000 1.0000
6.3200 810.0000 1.0000
6.3400 869.0000 1.0000
6.3600 840.0000 1.0000
6.3800 828.0000 1.0000
6.4000 875.0000 1.0000
6.4200 803.0000 1.0000
6.4400 786.0000 1.0000
6.4600 763.0000 1.0000
6.4800 770.0000 1.0000
6.5000 770.0000 1.0000
6.5200 771.0000 1.0000
6.5400 743.0000 1.0000
6.5600 726.0000 1.0000
6.5800 707.0000 1.0000
6.6000 688.0000 1.0000
6.6200 736.0000 1.0000
6.6400 757.0000 1.0000
6.6600 735.0000 1.0000
6.6800 719.0000 1.0000
6.7000 708.0000 1.0000
6.7200 698.0000 1.0000
6.7400 682.0000 1.0000
6.7600 669.0000 1.0000
6.7800 680.0000 1.0000
6.8000 667.0000 1.0000
6.8200 616.0000 1.0000
6.8400 623.0000 1.0000
6.8600 662.0000 1.0000
6.8800 668.0000 1.0000
6.9000 639.0000 1.0000
6.9200 640.0000 1.0000
6.9400 649.0000 1.0000
6.9600 631.0000 1.0000
6.9800 607.0000 1.0000
7.0000 606.0000 1.0000
7.0200 620.0000 1.0000
7.0400 602.0000 1.0000
7.0600 587.0000 1.0000
7.0800 578.0000 1.0000
7.1000 568.0000 1.0000
7.1200 575.0000 1.0000
7.1400 549.0000 1.0000
7.1600 540.0000 1.0000
7.1800 541.0000 1.0000
7.2000 545.0000 1.0000
7.2200 572.0000 1.0000
7.2400 593.0000 1.0000
7.2600 602.0000 1.0000
7.2800 536.0000 1.0000
7.3000 499.0000 1.0000
7.3200 495.0000 1.0000
7.3400 504.0000 1.0000
7.3600 548.0000 1.0000
7.3800 539.0000 1.0000
7.4000 482.0000 1.0000
7.4200 463.0000 1.0000
7.4400 477.0000 1.0000
7.4600 478.0000 1.0000
7.4800 504.0000 1.0000
7.5000 518.0000 1.0000
7.5200 519.0000 1.0000
7.5400 493.0000 1.0000
7.5600 484.0000 1.0000
7.5800 493.0000 1.0000
7.6000 462.0000 1.0000
7.6200 463.0000 1.0000
7.6400 504.0000 1.0000
7.6600 463.0000 1.0000
7.6800 428.0000 1.0000
7.7000 476.0000 1.0000
7.7200 501.0000 1.0000
7.7400 459.0000 1.0000
7.7600 407.0000 1.0000
7.7800 425.0000 1.0000
7.8000 445.0000 1.0000
7.8200 406.0000 1.0000
7.8400 434.0000 1.0000
7.8600 428.0000 1.0000
7.8800 429.0000 1.0000
7.9000 449.0000 1.0000
7.9200 460.0000 1.0000
7.9400 475.0000 1.0000
7.9600 425.0000 1.0000
7.9800 403.0000 1.0000
8.0000 388.0000 1.0000
8.0200 394.0000 1.0000
8.0400 393.0000 1.0000
8.0600 452.0000 1.0000
8.0800 435.0000 1.0000
8.1000 406.0000 1.0000
8.1200 396.0000 1.0000
8.1400 411.0000 1.0000
8.1600 398.0000 1.0000
8.1800 388.0000 1.0000
8.2000 355.0000 1.0000
8.2200 384.0000 1.0000
8.2400 363.0000 1.0000
8.2600 373.0000 1.0000
8.2800 375.0000 1.0000
8.3000 356.0000 1.0000
8.3200 371.0000 1.0000
8.3400 365.0000 1.0000
8.3600 367.0000 1.0000
8.3800 390.0000 1.0000
8.4000 367.0000 1.0000
8.4200 348.0000 1.0000
8.4400 392.0000 1.0000
8.4600 380.0000 1.0000
8.4800 379.0000 1.0000
8.5000 332.0000 1.0000
8.5200 331.0000 1.0000
8.5400 368.0000 1.0000
8.5600 354.0000 1.0000
8.5800 322.0000 1.0000
8.6000 385.0000 1.0000
8.6200 408.0000 1.0000
8.6400 365.0000 1.0000
8.6600 341.0000 1.0000
8.6800 370.0000 1.0000
8.7000 335.0000 1.0000
8.7200 360.0000 1.0000
8.7400 351.0000 1.0000
8.7600 343.0000 1.0000
8.7800 347.0000 1.0000
8.8000 329.0000 1.0000
8.8200 322.0000 1.0000
8.8400 364.0000 1.0000
8.8600 306.0000 1.0000
8.8800 309.0000 1.0000
8.9000 321.0000 1.0000
8.9200 356.0000 1.0000
8.9400 364.0000 1.0000
8.9600 340.0000 1.0000
8.9800 337.0000 1.0000
9.0000 357.0000 1.0000
9.0200 329.0000 1.0000
9.0400 347.0000 1.0000
9.0600 338.0000 1.0000
9.0800 348.0000 1.0000
9.1000 388.0000 1.0000
9.1200 367.0000 1.0000
9.1400 382.0000 1.0000
9.1600 406.0000 1.0000
9.1800 387.0000 1.0000
9.2000 404.0000 1.0000
9.2200 369.0000 1.0000
9.2400 398.0000 1.0000
9.2600 375.0000 1.0000
9.2800 318.0000 1.0000
9.3000 346.0000 1.0000
9.3200 343.0000 1.0000
9.3400 354.0000 1.0000
9.3600 333.0000 1.0000
9.3800 271.0000 1.0000
9.4000 302.0000 1.0000
9.4200 308.0000 1.0000
9.4400 337.0000 1.0000
9.4600 314.0000 1.0000
9.4800 315.0000 1.0000
9.5000 334.0000 1.0000
9.5200 340.0000 1.0000
9.5400 319.0000 1.0000
9.5600 293.0000 1.0000
9.5800 310.0000 1.0000
9.6000 319.0000 1.0000
9.6200 303.0000 1.0000
9.6400 302.0000 1.0000
9.6600 269.0000 1.0000
9.6800 266.0000 1.0000
9.7000 276.0000 1.0000
9.7200 269.0000 1.0000
9.7400 257.0000 1.0000
9.7600 243.0000 1.0000
9.7800 252.0000 1.0000
9.8000 216.0000 1.0000
9.8200 268.0000 1.0000
9.8400 262.0000 1.0000
9.8600 267.0000 1.0000
9.8800 259.0000 1.0000
9.9000 257.0000 1.0000
9.9200 230.0000 1.0000
9.9400 243.0000 1.0000
9.9600 223.0000 1.0000
9.9800 245.0000 1.0000
10.0000 254.0000 1.0000
10.0200 256.0000 1.0000
10.0400 242.0000 1.0000
10.0600 210.0000 1.0000
10.0800 237.0000 1.0000
10.1000 229.0000 1.0000
10.1200 262.0000 1.0000
10.1400 251.0000 1.0000
10.1600 213.0000 1.0000
10.1800 219.0000 1.0000
10.2000 203.0000 1.0000
10.2200 241.0000 1.0000
10.2400 234.0000 1.0000
10.2600 255.0000 1.0000
10.2800 231.0000 1.0000
10.3000 252.0000 1.0000
10.3200 190.0000 1.0000
10.3400 231.0000 1.0000
10.3600 236.0000 1.0000
10.3800 227.0000 1.0000
10.4000 259.0000 1.0000
10.4200 210.0000 1.0000
10.4400 231.0000 1.0000
10.4600 234.0000 1.0000
10.4800 227.0000 1.0000
10.5000 217.0000 1.0000
10.5200 181.0000 1.0000
10.5400 209.0000 1.0000
10.5600 188.0000 1.0000
10.5800 205.0000 1.0000
10.6000 210.0000 1.0000
10.6200 231.0000 1.0000
10.6400 207.0000 1.0000
10.6600 226.0000 1.0000
10.6800 191.0000 1.0000
10.7000 185.0000 1.0000
10.7200 188.0000 1.0000
10.7400 198.0000 1.0000
10.7600 222.0000 1.0000
10.7800 198.0000 1.0000
10.8000 164.0000 1.0000
10.8200 216.0000 1.0000
10.8400 178.0000 1.0000
10.8600 186.0000 1.0000
10.8800 175.0000 1.0000
10.9000 187.0000 1.0000
10.9200 204.0000 1.0000
10.9400 173.0000 1.0000
10.9600 174.0000 1.0000
10.9800 196.0000 1.0000
11.0000 180.0000 1.0000
11.0200 200.0000 1.0000
11.0400 188.0000 1.0000
11.0600 152.0000 1.0000
11.0800 182.0000 1.0000
11.1000 179.0000 1.0000
11.1200 177.0000 1.0000
11.1400 201.0000 1.0000
11.1600 189.0000 1.0000
11.1800 177.0000 1.0000
11.2000 179.0000 1.0000
11.2200 180.0000 1.0000
11.2400 178.0000 1.0000
11.2600 149.0000 1.0000
11.2800 191.0000 1.0000
11.3000 220.0000 1.0000
11.3200 193.0000 1.0000
11.3400 196.0000 1.0000
11.3600 179.0000 1.0000
11.3800 179.0000 1.0000
11.4000 208.0000 1.0000
11.4200 187.0000 1.0000
11.4400 193.0000 1.0000
11.4600 170.0000 1.0000
11.4800 156.0000 1.0000
11.5000 159.0000 1.0000
11.5200 185.0000 1.0000
11.5400 185.0000 1.0000
11.5600 165.0000 1.0000
11.5800 165.0000 1.0000
11.6000 161.0000 1.0000
11.6200 167.0000 1.0000
11.6400 190.0000 1.0000
11.6600 170.0000 1.0000
11.6800 160.0000 1.0000
11.7000 166.0000 1.0000
11.7200 180.0000 1.0000
11.7400 194.0000 1.0000
11.7600 148.0000 1.0000
11.7800 167.0000 1.0000
11.8000 143.0000 1.0000
11.8200 153.0000 1.0000
11.8400 153.0000 1.0000
11.8600 169.0000 1.0000
11.8800 190.0000 1.0000
11.9000 190.0000 1.0000
11.9200 165.0000 1.0000
11.9400 163.0000 1.0000
11.9600 175.0000 1.0000
11.9800 186.0000 1.0000
12.0000 175.0000 1.0000
12.0200 184.0000 1.0000
12.0400 210.0000 1.0000
12.0600 185.0000 1.0000
12.0800 161.0000 1.0000
12.1000 173.0000 1.0000
12.1200 153.0000 1.0000
12.1400 182.0000 1.0000
12.1600 172.0000 1.0000
12.1800 158.0000 1.0000
12.2000 199.0000 1.0000
12.2200 187.0000 1.0000
12.2400 173.0000 1.0000
12.2600 160.0000 1.0000
12.2800 168.0000 1.0000
12.3000 154.0000 1.0000
12.3200 124.0000 1.0000
12.3400 155.0000 1.0000
12.3600 174.0000 1.0000
12.3800 147.0000 1.0000
12.4000 164.0000 1.0000
12.4200 158.0000 1.0000
12.4400 168.0000 1.0000
12.4600 152.0000 1.0000
12.4800 157.0000 1.0000
12.5000 157.0000 1.0000
12.5200 169.0000 1.0000
12.5400 178.0000 1.0000
12.5600 186.0000 1.0000
12.5800 177.0000 1.0000
12.6000 147.0000 1.0000
12.6200 141.0000 1.0000
12.6400 158.0000 1.0000
12.6600 167.0000 1.0000
12.6800 171.0000 1.0000
12.7000 140.0000 1.0000
12.7200 149.0000 1.0000
12.7400 157.0000 1.0000
12.7600 139.0000 1.0000
12.7800 138.0000 1.0000
12.8000 145.0000 1.0000
12.8200 150.0000 1.0000
12.8400 153.0000 1.0000
12.8600 150.0000 1.0000
12.8800 137.0000 1.0000
12.9000 131.0000 1.0000
12.9200 139.0000 1.0000
12.9400 156.0000 1.0000
12.9600 154.0000 1.0000
12.9800 143.0000 1.0000
13.0000 157.0000 1.0000
13.0200 152.0000 1.0000
13.0400 149.0000 1.0000
13.0600 146.0000 1.0000
13.0800 153.0000 1.0000
13.1000 150.0000 1.0000
13.1200 148.0000 1.0000
13.1400 144.0000 1.0000
13.1600 178.0000 1.0000
13.1800 177.0000 1.0000
13.2000 160.0000 1.0000
13.2200 175.0000 1.0000
13.2400 161.0000 1.0000
13.2600 165.0000 1.0000
13.2800 175.0000 1.0000
13.3000 151.0000 1.0000
13.3200 159.0000 1.0000
13.3400 196.0000 1.0000
13.3600 220.0000 1.0000
13.3800 243.0000 1.0000
13.4000 230.0000 1.0000
13.4200 223.0000 1.0000
13.4400 237.0000 1.0000
13.4600 240.0000 1.0000
13.4800 271.0000 1.0000
13.5000 255.0000 1.0000
13.5200 239.0000 1.0000
13.5400 217.0000 1.0000
13.5600 201.0000 1.0000
13.5800 176.0000 1.0000
13.6000 186.0000 1.0000
13.6200 190.0000 1.0000
13.6400 176.0000 1.0000
13.6600 171.0000 1.0000
13.6800 175.0000 1.0000
13.7000 178.0000 1.0000
13.7200 170.0000 1.0000
13.7400 184.0000 1.0000
13.7600 173.0000 1.0000
13.7800 153.0000 1.0000
13.8000 151.0000 1.0000
13.8200 148.0000 1.0000
13.8400 127.0000 1.0000
13.8600 139.0000 1.0000
13.8800 140.0000 1.0000
13.9000 120.0000 1.0000
13.9200 121.0000 1.0000
13.9400 132.0000 1.0000
13.9600 143.0000 1.0000
13.9800 127.0000 1.0000
14.0000 131.0000 1.0000
14.0200 124.0000 1.0000
14.0400 129.0000 1.0000
14.0600 132.0000 1.0000
14.0800 130.0000 1.0000
14.1000 122.0000 1.0000
14.1200 122.0000 1.0000
14.1400 136.0000 1.0000
14.1600 140.0000 1.0000
14.1800 143.0000 1.0000
14.2000 136.0000 1.0000
14.2200 124.0000 1.0000
14.2400 129.0000 1.0000
14.2600 125.0000 1.0000
14.2800 115.0000 1.0000
14.3000 120.0000 1.0000
14.3200 125.0000 1.0000
14.3400 121.0000 1.0000
14.3600 142.0000 1.0000
14.3800 150.0000 1.0000
14.4000 140.0000 1.0000
14.4200 135.0000 1.0000
14.4400 139.0000 1.0000
14.4600 127.0000 1.0000
14.4800 116.0000 1.0000
14.5000 121.0000 1.0000
14.5200 120.0000 1.0000
14.5400 125.0000 1.0000
14.5600 127.0000 1.0000
14.5800 127.0000 1.0000
14.6000 124.0000 1.0000
14.6200 128.0000 1.0000
14.6400 138.0000 1.0000
14.6600 152.0000 1.0000
14.6800 142.0000 1.0000
14.7000 130.0000 1.0000
14.7200 136.0000 1.0000
14.7400 127.0000 1.0000
14.7600 136.0000 1.0000
14.7800 136.0000 1.0000
14.8000 135.0000 1.0000
14.8200 138.0000 1.0000
14.8400 131.0000 1.0000
14.8600 142.0000 1.0000
14.8800 143.0000 1.0000
14.9000 137.0000 1.0000
14.9200 129.0000 1.0000
14.9400 125.0000 1.0000
14.9600 115.0000 1.0000
14.9800 120.0000 1.0000
15.0000 141.0000 1.0000
15.0200 136.0000 1.0000
15.0400 144.0000 1.0000
15.0600 150.0000 1.0000
15.0800 145.0000 1.0000
15.1000 145.0000 1.0000
15.1200 129.0000 1.0000
15.1400 117.0000 1.0000
15.1600 114.0000 1.0000
15.1800 116.0000 1.0000
15.2000 124.0000 1.0000
15.2200 113.0000 1.0000
15.2400 122.0000 1.0000
15.2600 120.0000 1.0000
15.2800 115.0000 1.0000
15.3000 127.0000 1.0000
15.3200 126.0000 1.0000
15.3400 128.0000 1.0000
15.3600 127.0000 1.0000
15.3800 113.0000 1.0000
15.4000 117.0000 1.0000
15.4200 123.0000 1.0000
15.4400 121.0000 1.0000
15.4600 124.0000 1.0000
15.4800 128.0000 1.0000
15.5000 133.0000 1.0000
15.5200 132.0000 1.0000
15.5400 125.0000 1.0000
15.5600 126.0000 1.0000
15.5800 131.0000 1.0000
15.6000 132.0000 1.0000
15.6200 123.0000 1.0000
15.6400 117.0000 1.0000
15.6600 118.0000 1.0000
15.6800 113.0000 1.0000
15.7000 126.0000 1.0000
15.7200 123.0000 1.0000
15.7400 120.0000 1.0000
15.7600 127.0000 1.0000
15.7800 127.0000 1.0000
15.8000 117.0000 1.0000
15.8200 127.0000 1.0000
15.8400 128.0000 1.0000
15.8600 118.0000 1.0000
15.8800 116.0000 1.0000
15.9000 107.0000 1.0000
15.9200 125.0000 1.0000
15.9400 120.0000 1.0000
15.9600 109.0000 1.0000
15.9800 109.0000 1.0000
16.0000 104.0000 1.0000
16.0200 117.0000 1.0000
16.0400 106.0000 1.0000
16.0600 107.0000 1.0000
16.0800 114.0000 1.0000
16.1000 109.0000 1.0000
16.1200 112.0000 1.0000
16.1400 113.0000 1.0000
16.1600 108.0000 1.0000
16.1800 110.0000 1.0000
16.2000 114.0000 1.0000
16.2200 107.0000 1.0000
16.2400 112.0000 1.0000
16.2600 114.0000 1.0000
16.2800 112.0000 1.0000
16.3000 115.0000 1.0000
16.3200 104.0000 1.0000
16.3400 124.0000 1.0000
16.3600 123.0000 1.0000
16.3800 117.0000 1.0000
16.4000 114.0000 1.0000
16.4200 120.0000 1.0000
16.4400 119.0000 1.0000
16.4600 127.0000 1.0000
16.4800 116.0000 1.0000
16.5000 118.0000 1.0000
16.5200 121.0000 1.0000
16.5400 112.0000 1.0000
16.5600 107.0000 1.0000
16.5800 110.0000 1.0000
16.6000 117.0000 1.0000
16.6200 121.0000 1.0000
16.6400 132.0000 1.0000
16.6600 129.0000 1.0000
16.6800 108.0000 1.0000
16.7000 109.0000 1.0000
16.7200 109.0000 1.0000
16.7400 104.0000 1.0000
16.7600 96.0000 1.0000
16.7800 108.0000 1.0000
16.8000 113.0000 1.0000
16.8200 111.0000 1.0000
16.8400 118.0000 1.0000
16.8600 116.0000 1.0000
16.8800 118.0000 1.0000
16.9000 110.0000 1.0000
16.9200 127.0000 1.0000
16.9400 117.0000 1.0000
16.9600 113.0000 1.0000
16.9800 116.0000 1.0000
17.0000 127.0000 1.0000
17.0200 126.0000 1.0000
17.0400 122.0000 1.0000
17.0600 119.0000 1.0000
17.0800 115.0000 1.0000
17.1000 103.0000 1.0000
17.1200 99.0000 1.0000
17.1400 116.0000 1.0000
17.1600 110.0000 1.0000
17.1800 101.0000 1.0000
17.2000 107.0000 1.0000
17.2200 124.0000 1.0000
17.2400 121.0000 1.0000
17.2600 110.0000 1.0000
17.2800 107.0000 1.0000
17.3000 122.0000 1.0000
17.3200 122.0000 1.0000
17.3400 117.0000 1.0000
17.3600 105.0000 1.0000
17.3800 111.0000 1.0000
17.4000 102.0000 1.0000
17.4200 119.0000 1.0000
17.4400 121.0000 1.0000
17.4600 127.0000 1.0000
17.4800 125.0000 1.0000
17.5000 118.0000 1.0000
17.5200 122.0000 1.0000
17.5400 118.0000 1.0000
17.5600 123.0000 1.0000
17.5800 113.0000 1.0000
17.6000 117.0000 1.0000
17.6200 112.0000 1.0000
17.6400 104.0000 1.0000
17.6600 118.0000 1.0000
17.6800 112.0000 1.0000
17.7000 103.0000 1.0000
17.7200 93.0000 1.0000
17.7400 102.0000 1.0000
17.7600 120.0000 1.0000
17.7800 128.0000 1.0000
17.8000 123.0000 1.0000
17.8200 117.0000 1.0000
17.8400 111.0000 1.0000
17.8600 107.0000 1.0000
17.8800 107.0000 1.0000
17.9000 109.0000 1.0000
17.9200 123.0000 1.0000
17.9400 120.0000 1.0000
17.9600 127.0000 1.0000
17.9800 121.0000 1.0000
18.0000 131.0000 1.0000
18.0200 111.0000 1.0000
18.0400 101.0000 1.0000
18.0600 112.0000 1.0000
18.0800 116.0000 1.0000
18.1000 110.0000 1.0000
18.1200 101.0000 1.0000
18.1400 101.0000 1.0000
18.1600 118.0000 1.0000
18.1800 132.0000 1.0000
18.2000 93.0000 1.0000
18.2200 125.0000 1.0000
18.2400 125.0000 1.0000
18.2600 120.0000 1.0000
18.2800 137.0000 1.0000
18.3000 128.0000 1.0000
18.3200 130.0000 1.0000
18.3400 119.0000 1.0000
18.3600 124.0000 1.0000
18.3800 118.0000 1.0000
18.4000 120.0000 1.0000
18.4200 129.0000 1.0000
18.4400 127.0000 1.0000
18.4600 131.0000 1.0000
18.4800 144.0000 1.0000
18.5000 153.0000 1.0000
18.5200 133.0000 1.0000
18.5400 147.0000 1.0000
18.5600 152.0000 1.0000
18.5800 157.0000 1.0000
18.6000 175.0000 1.0000
18.6200 191.0000 1.0000
18.6400 217.0000 1.0000
18.6600 221.0000 1.0000
18.6800 255.0000 1.0000
18.7000 257.0000 1.0000
18.7200 257.0000 1.0000
18.7400 271.0000 1.0000
18.7600 256.0000 1.0000
18.7800 252.0000 1.0000
18.8000 228.0000 1.0000
18.8200 177.0000 1.0000
18.8400 162.0000 1.0000
18.8600 172.0000 1.0000
18.8800 146.0000 1.0000
18.9000 156.0000 1.0000
18.9200 163.0000 1.0000
18.9400 162.0000 1.0000
18.9600 157.0000 1.0000
18.9800 189.0000 1.0000
19.0000 189.0000 1.0000
19.0200 184.0000 1.0000
19.0400 189.0000 1.0000
19.0600 159.0000 1.0000
19.0800 192.0000 1.0000
19.1000 205.0000 1.0000
19.1200 211.0000 1.0000
19.1400 242.0000 1.0000
19.1600 234.0000 1.0000
19.1800 238.0000 1.0000
19.2000 245.0000 1.0000
19.2200 212.0000 1.0000
19.2400 207.0000 1.0000
19.2600 204.0000 1.0000
19.2800 190.0000 1.0000
19.3000 169.0000 1.0000
19.3200 167.0000 1.0000
19.3400 150.0000 1.0000
19.3600 160.0000 1.0000
19.3800 181.0000 1.0000
19.4000 177.0000 1.0000
19.4200 163.0000 1.0000
19.4400 170.0000 1.0000
19.4600 178.0000 1.0000
19.4800 158.0000 1.0000
19.5000 156.0000 1.0000
19.5200 171.0000 1.0000
19.5400 176.0000 1.0000
19.5600 177.0000 1.0000
19.5800 173.0000 1.0000
19.6000 184.0000 1.0000
19.6200 187.0000 1.0000
19.6400 190.0000 1.0000
19.6600 193.0000 1.0000
19.6800 185.0000 1.0000
19.7000 200.0000 1.0000
19.7200 186.0000 1.0000
19.7400 215.0000 1.0000
19.7600 188.0000 1.0000
19.7800 175.0000 1.0000
19.8000 183.0000 1.0000
19.8200 152.0000 1.0000
19.8400 168.0000 1.0000
19.8600 172.0000 1.0000
19.8800 176.0000 1.0000
19.9000 183.0000 1.0000
19.9200 172.0000 1.0000
19.9400 187.0000 1.0000
19.9600 179.0000 1.0000
19.9800 169.0000 1.0000
20.0000 175.0000 1.0000
20.0200 151.0000 1.0000
20.0400 146.0000 1.0000
20.0600 156.0000 1.0000
20.0800 156.0000 1.0000
20.1000 162.0000 1.0000
20.1200 162.0000 1.0000
20.1400 160.0000 1.0000
20.1600 177.0000 1.0000
20.1800 164.0000 1.0000
20.2000 165.0000 1.0000
20.2200 160.0000 1.0000
20.2400 168.0000 1.0000
20.2600 165.0000 1.0000
20.2800 179.0000 1.0000
20.3000 188.0000 1.0000
20.3200 182.0000 1.0000
20.3400 182.0000 1.0000
20.3600 182.0000 1.0000
20.3800 192.0000 1.0000
20.4000 185.0000 1.0000
20.4200 194.0000 1.0000
20.4400 192.0000 1.0000
20.4600 191.0000 1.0000
20.4800 199.0000 1.0000
20.5000 221.0000 1.0000
20.5200 190.0000 1.0000
20.5400 214.0000 1.0000
20.5600 263.0000 1.0000
20.5800 302.0000 1.0000
20.6000 327.0000 1.0000
20.6200 377.0000 1.0000
20.6400 423.0000 1.0000
20.6600 468.0000 1.0000
20.6800 473.0000 1.0000
20.7000 429.0000 1.0000
20.7200 447.0000 1.0000
20.7400 362.0000 1.0000
20.7600 292.0000 1.0000
20.7800 218.0000 1.0000
20.8000 223.0000 1.0000
20.8200 205.0000 1.0000
20.8400 188.0000 1.0000
20.8600 168.0000 1.0000
20.8800 193.0000 1.0000
20.9000 187.0000 1.0000
20.9200 177.0000 1.0000
20.9400 169.0000 1.0000
20.9600 175.0000 1.0000
20.9800 175.0000 1.0000
21.0000 181.0000 1.0000
21.0200 145.0000 1.0000
21.0400 132.0000 1.0000
21.0600 137.0000 1.0000
21.0800 147.0000 1.0000
21.1000 143.0000 1.0000
21.1200 140.0000 1.0000
21.1400 150.0000 1.0000
21.1600 166.0000 1.0000
21.1800 134.0000 1.0000
21.2000 130.0000 1.0000
21.2200 138.0000 1.0000
21.2400 150.0000 1.0000
21.2600 137.0000 1.0000
21.2800 164.0000 1.0000
21.3000 140.0000 1.0000
21.3200 158.0000 1.0000
21.3400 167.0000 1.0000
21.3600 146.0000 1.0000
21.3800 164.0000 1.0000
21.4000 172.0000 1.0000
21.4200 172.0000 1.0000
21.4400 170.0000 1.0000
21.4600 166.0000 1.0000
21.4800 186.0000 1.0000
21.5000 185.0000 1.0000
21.5200 213.0000 1.0000
21.5400 170.0000 1.0000
21.5600 234.0000 1.0000
21.5800 219.0000 1.0000
21.6000 248.0000 1.0000
21.6200 281.0000 1.0000
21.6400 317.0000 1.0000
21.6600 354.0000 1.0000
21.6800 424.0000 1.0000
21.7000 462.0000 1.0000
21.7200 552.0000 1.0000
21.7400 598.0000 1.0000
21.7600 671.0000 1.0000
21.7800 718.0000 1.0000
21.8000 710.0000 1.0000
21.8200 649.0000 1.0000
21.8400 537.0000 1.0000
21.8600 464.0000 1.0000
21.8800 387.0000 1.0000
21.9000 327.0000 1.0000
21.9200 273.0000 1.0000
21.9400 210.0000 1.0000
21.9600 183.0000 1.0000
21.9800 185.0000 1.0000
22.0000 163.0000 1.0000
22.0200 160.0000 1.0000
22.0400 179.0000 1.0000
22.0600 135.0000 1.0000
22.0800 155.0000 1.0000
22.1000 153.0000 1.0000
22.1200 156.0000 1.0000
22.1400 138.0000 1.0000
22.1600 148.0000 1.0000
22.1800 129.0000 1.0000
22.2000 148.0000 1.0000
22.2200 140.0000 1.0000
22.2400 144.0000 1.0000
22.2600 137.0000 1.0000
22.2800 149.0000 1.0000
22.3000 164.0000 1.0000
22.3200 148.0000 1.0000
22.3400 141.0000 1.0000
22.3600 157.0000 1.0000
22.3800 177.0000 1.0000
22.4000 166.0000 1.0000
22.4200 177.0000 1.0000
22.4400 196.0000 1.0000
22.4600 188.0000 1.0000
22.4800 202.0000 1.0000
22.5000 205.0000 1.0000
22.5200 227.0000 1.0000
22.5400 250.0000 1.0000
22.5600 263.0000 1.0000
22.5800 262.0000 1.0000
22.6000 260.0000 1.0000
22.6200 249.0000 1.0000
22.6400 231.0000 1.0000
22.6600 212.0000 1.0000
22.6800 199.0000 1.0000
22.7000 200.0000 1.0000
22.7200 185.0000 1.0000
22.7400 151.0000 1.0000
22.7600 139.0000 1.0000
22.7800 136.0000 1.0000
22.8000 157.0000 1.0000
22.8200 161.0000 1.0000
22.8400 135.0000 1.0000
22.8600 140.0000 1.0000
22.8800 143.0000 1.0000
22.9000 126.0000 1.0000
22.9200 137.0000 1.0000
22.9400 154.0000 1.0000
22.9600 141.0000 1.0000
22.9800 140.0000 1.0000
23.0000 157.0000 1.0000
23.0200 156.0000 1.0000
23.0400 144.0000 1.0000
23.0600 139.0000 1.0000
23.0800 158.0000 1.0000
23.1000 160.0000 1.0000
23.1200 158.0000 1.0000
23.1400 164.0000 1.0000
23.1600 164.0000 1.0000
23.1800 177.0000 1.0000
23.2000 173.0000 1.0000
23.2200 200.0000 1.0000
23.2400 225.0000 1.0000
23.2600 234.0000 1.0000
23.2800 261.0000 1.0000
23.3000 283.0000 1.0000
23.3200 324.0000 1.0000
23.3400 378.0000 1.0000
23.3600 480.0000 1.0000
23.3800 507.0000 1.0000
23.4000 562.0000 1.0000
23.4200 615.0000 1.0000
23.4400 648.0000 1.0000
23.4600 667.0000 1.0000
23.4800 632.0000 1.0000
23.5000 598.0000 1.0000
23.5200 569.0000 1.0000
23.5400 494.0000 1.0000
23.5600 442.0000 1.0000
23.5800 366.0000 1.0000
23.6000 293.0000 1.0000
23.6200 273.0000 1.0000
23.6400 244.0000 1.0000
23.6600 213.0000 1.0000
23.6800 195.0000 1.0000
23.7000 175.0000 1.0000
23.7200 172.0000 1.0000
23.7400 178.0000 1.0000
23.7600 176.0000 1.0000
23.7800 162.0000 1.0000
23.8000 163.0000 1.0000
23.8200 146.0000 1.0000
23.8400 149.0000 1.0000
23.8600 154.0000 1.0000
23.8800 182.0000 1.0000
23.9000 176.0000 1.0000
23.9200 159.0000 1.0000
23.9400 151.0000 1.0000
23.9600 152.0000 1.0000
23.9800 169.0000 1.0000
24.0000 184.0000 1.0000
24.0200 190.0000 1.0000
24.0400 187.0000 1.0000
24.0600 193.0000 1.0000
24.0800 215.0000 1.0000
24.1000 243.0000 1.0000
24.1200 233.0000 1.0000
24.1400 245.0000 1.0000
24.1600 274.0000 1.0000
24.1800 319.0000 1.0000
24.2000 353.0000 1.0000
24.2200 397.0000 1.0000
24.2400 441.0000 1.0000
24.2600 477.0000 1.0000
24.2800 484.0000 1.0000
24.3000 466.0000 1.0000
24.3200 487.0000 1.0000
24.3400 447.0000 1.0000
24.3600 431.0000 1.0000
24.3800 394.0000 1.0000
24.4000 348.0000 1.0000
24.4200 307.0000 1.0000
24.4400 265.0000 1.0000
24.4600 241.0000 1.0000
24.4800 200.0000 1.0000
24.5000 186.0000 1.0000
24.5200 175.0000 1.0000
24.5400 168.0000 1.0000
24.5600 176.0000 1.0000
24.5800 161.0000 1.0000
24.6000 156.0000 1.0000
24.6200 148.0000 1.0000
24.6400 153.0000 1.0000
24.6600 151.0000 1.0000
24.6800 138.0000 1.0000
24.7000 150.0000 1.0000
24.7200 158.0000 1.0000
24.7400 159.0000 1.0000
24.7600 183.0000 1.0000
24.7800 158.0000 1.0000
24.8000 146.0000 1.0000
24.8200 147.0000 1.0000
24.8400 133.0000 1.0000
24.8600 143.0000 1.0000
24.8800 146.0000 1.0000
24.9000 155.0000 1.0000
24.9200 153.0000 1.0000
24.9400 153.0000 1.0000
24.9600 161.0000 1.0000
24.9800 159.0000 1.0000
25.0000 160.0000 1.0000
25.0200 160.0000 1.0000
25.0400 178.0000 1.0000
25.0600 163.0000 1.0000
25.0800 182.0000 1.0000
25.1000 201.0000 1.0000
25.1200 194.0000 1.0000
25.1400 196.0000 1.0000
25.1600 210.0000 1.0000
25.1800 235.0000 1.0000
25.2000 265.0000 1.0000
25.2200 290.0000 1.0000
25.2400 311.0000 1.0000
25.2600 365.0000 1.0000
25.2800 460.0000 1.0000
25.3000 505.0000 1.0000
25.3200 632.0000 1.0000
25.3400 805.0000 1.0000
25.3600 955.0000 1.0000
25.3800 1041.0000 1.0000
25.4000 1083.0000 1.0000
25.4200 1081.0000 1.0000
25.4400 997.0000 1.0000
25.4600 863.0000 1.0000
25.4800 728.0000 1.0000
25.5000 595.0000 1.0000
25.5200 519.0000 1.0000
25.5400 404.0000 1.0000
25.5600 331.0000 1.0000
25.5800 291.0000 1.0000
25.6000 258.0000 1.0000
25.6200 252.0000 1.0000
25.6400 238.0000 1.0000
25.6600 204.0000 1.0000
25.6800 186.0000 1.0000
25.7000 193.0000 1.0000
25.7200 222.0000 1.0000
25.7400 204.0000 1.0000
25.7600 206.0000 1.0000
25.7800 210.0000 1.0000
25.8000 205.0000 1.0000
25.8200 200.0000 1.0000
25.8400 204.0000 1.0000
25.8600 193.0000 1.0000
25.8800 188.0000 1.0000
25.9000 191.0000 1.0000
25.9200 191.0000 1.0000
25.9400 184.0000 1.0000
25.9600 189.0000 1.0000
25.9800 195.0000 1.0000
26.0000 202.0000 1.0000
26.0200 205.0000 1.0000
26.0400 213.0000 1.0000
26.0600 221.0000 1.0000
26.0800 214.0000 1.0000
26.1000 229.0000 1.0000
26.1200 246.0000 1.0000
26.1400 271.0000 1.0000
26.1600 316.0000 1.0000
26.1800 360.0000 1.0000
26.2000 379.0000 1.0000
26.2200 438.0000 1.0000
26.2400 500.0000 1.0000
26.2600 563.0000 1.0000
26.2800 642.0000 1.0000
26.3000 733.0000 1.0000
26.3200 797.0000 1.0000
26.3400 894.0000 1.0000
26.3600 1062.0000 1.0000
26.3800 1244.0000 1.0000
26.4000 1524.0000 1.0000
26.4200 1837.0000 1.0000
26.4400 2033.0000 1.0000
26.4600 2104.0000 1.0000
26.4800 2115.0000 1.0000
26.5000 1928.0000 1.0000
26.5200 1555.0000 1.0000
26.5400 1241.0000 1.0000
26.5600 928.0000 1.0000
26.5800 683.0000 1.0000
26.6000 526.0000 1.0000
26.6200 404.0000 1.0000
26.6400 362.0000 1.0000
26.6600 337.0000 1.0000
26.6800 304.0000 1.0000
26.7000 324.0000 1.0000
26.7200 346.0000 1.0000
26.7400 330.0000 1.0000
26.7600 308.0000 1.0000
26.7800 319.0000 1.0000
26.8000 321.0000 1.0000
26.8200 282.0000 1.0000
26.8400 256.0000 1.0000
26.8600 251.0000 1.0000
26.8800 250.0000 1.0000
26.9000 247.0000 1.0000
26.9200 243.0000 1.0000
26.9400 249.0000 1.0000
26.9600 246.0000 1.0000
26.9800 251.0000 1.0000
27.0000 265.0000 1.0000
27.0200 271.0000 1.0000
27.0400 269.0000 1.0000
27.0600 258.0000 1.0000
27.0800 272.0000 1.0000
27.1000 297.0000 1.0000
27.1200 321.0000 1.0000
27.1400 354.0000 1.0000
27.1600 399.0000 1.0000
27.1800 439.0000 1.0000
27.2000 480.0000 1.0000
27.2200 543.0000 1.0000
27.2400 604.0000 1.0000
27.2600 681.0000 1.0000
27.2800 742.0000 1.0000
27.3000 793.0000 1.0000
27.3200 829.0000 1.0000
27.3400 850.0000 1.0000
27.3600 885.0000 1.0000
27.3800 932.0000 1.0000
27.4000 976.0000 1.0000
27.4200 988.0000 1.0000
27.4400 1001.0000 1.0000
27.4600 1027.0000 1.0000
27.4800 1073.0000 1.0000
27.5000 1078.0000 1.0000
27.5200 1130.0000 1.0000
27.5400 1316.0000 1.0000
27.5600 1505.0000 1.0000
27.5800 1660.0000 1.0000
27.6000 1838.0000 1.0000
27.6200 1945.0000 1.0000
27.6400 1947.0000 1.0000
27.6600 1917.0000 1.0000
27.6800 1875.0000 1.0000
27.7000 1800.0000 1.0000
27.7200 1665.0000 1.0000
27.7400 1630.0000 1.0000
27.7600 1642.0000 1.0000
27.7800 1677.0000 1.0000
27.8000 1801.0000 1.0000
27.8200 1939.0000 1.0000
27.8400 2007.0000 1.0000
27.8600 1986.0000 1.0000
27.8800 1927.0000 1.0000
27.9000 1744.0000 1.0000
27.9200 1468.0000 1.0000
27.9400 1182.0000 1.0000
27.9600 946.0000 1.0000
27.9800 752.0000 1.0000
28.0000 575.0000 1.0000
28.0200 438.0000 1.0000
28.0400 381.0000 1.0000
28.0600 349.0000 1.0000
28.0800 337.0000 1.0000
28.1000 325.0000 1.0000
28.1200 317.0000 1.0000
28.1400 330.0000 1.0000
28.1600 342.0000 1.0000
28.1800 377.0000 1.0000
28.2000 396.0000 1.0000
28.2200 431.0000 1.0000
28.2400 456.0000 1.0000
28.2600 494.0000 1.0000
28.2800 516.0000 1.0000
28.3000 484.0000 1.0000
28.3200 472.0000 1.0000
28.3400 450.0000 1.0000
28.3600 396.0000 1.0000
28.3800 344.0000 1.0000
28.4000 306.0000 1.0000
28.4200 267.0000 1.0000
28.4400 251.0000 1.0000
28.4600 229.0000 1.0000
28.4800 198.0000 1.0000
28.5000 192.0000 1.0000
28.5200 186.0000 1.0000
28.5400 179.0000 1.0000
28.5600 166.0000 1.0000
28.5800 165.0000 1.0000
28.6000 172.0000 1.0000
28.6200 171.0000 1.0000
28.6400 160.0000 1.0000
28.6600 162.0000 1.0000
28.6800 151.0000 1.0000
28.7000 152.0000 1.0000
28.7200 150.0000 1.0000
28.7400 148.0000 1.0000
28.7600 163.0000 1.0000
28.7800 153.0000 1.0000
28.8000 151.0000 1.0000
28.8200 151.0000 1.0000
28.8400 151.0000 1.0000
28.8600 175.0000 1.0000
28.8800 173.0000 1.0000
28.9000 175.0000 1.0000
28.9200 174.0000 1.0000
28.9400 174.0000 1.0000
28.9600 160.0000 1.0000
28.9800 174.0000 1.0000
29.0000 190.0000 1.0000
29.0200 199.0000 1.0000
29.0400 190.0000 1.0000
29.0600 196.0000 1.0000
29.0800 225.0000 1.0000
29.1000 229.0000 1.0000
29.1200 251.0000 1.0000
29.1400 252.0000 1.0000
29.1600 265.0000 1.0000
29.1800 298.0000 1.0000
29.2000 335.0000 1.0000
29.2200 377.0000 1.0000
29.2400 398.0000 1.0000
29.2600 409.0000 1.0000
29.2800 434.0000 1.0000
29.3000 454.0000 1.0000
29.3200 439.0000 1.0000
29.3400 474.0000 1.0000
29.3600 537.0000 1.0000
29.3800 536.0000 1.0000
29.4000 558.0000 1.0000
29.4200 572.0000 1.0000
29.4400 628.0000 1.0000
29.4600 706.0000 1.0000
29.4800 754.0000 1.0000
29.5000 821.0000 1.0000
29.5200 910.0000 1.0000
29.5400 1038.0000 1.0000
29.5600 1150.0000 1.0000
29.5800 1226.0000 1.0000
29.6000 1264.0000 1.0000
29.6200 1307.0000 1.0000
29.6400 1338.0000 1.0000
29.6600 1283.0000 1.0000
29.6800 1142.0000 1.0000
29.7000 1024.0000 1.0000
29.7200 915.0000 1.0000
29.7400 792.0000 1.0000
29.7600 671.0000 1.0000
29.7800 585.0000 1.0000
29.8000 535.0000 1.0000
29.8200 503.0000 1.0000
29.8400 472.0000 1.0000
29.8600 454.0000 1.0000
29.8800 437.0000 1.0000
29.9000 441.0000 1.0000
29.9200 495.0000 1.0000
29.9400 530.0000 1.0000
29.9600 567.0000 1.0000
29.9800 641.0000 1.0000
30.0000 720.0000 1.0000
30.0200 801.0000 1.0000
30.0400 862.0000 1.0000
30.0600 969.0000 1.0000
30.0800 976.0000 1.0000
30.1000 1048.0000 1.0000
30.1200 981.0000 1.0000
30.1400 927.0000 1.0000
30.1600 898.0000 1.0000
30.1800 798.0000 1.0000
30.2000 724.0000 1.0000
30.2200 686.0000 1.0000
30.2400 623.0000 1.0000
30.2600 610.0000 1.0000
30.2800 578.0000 1.0000
30.3000 555.0000 1.0000
30.3200 524.0000 1.0000
30.3400 468.0000 1.0000
30.3600 398.0000 1.0000
30.3800 399.0000 1.0000
30.4000 403.0000 1.0000
30.4200 397.0000 1.0000
30.4400 425.0000 1.0000
30.4600 422.0000 1.0000
30.4800 452.0000 1.0000
30.5000 474.0000 1.0000
30.5200 495.0000 1.0000
30.5400 513.0000 1.0000
30.5600 573.0000 1.0000
30.5800 632.0000 1.0000
30.6000 652.0000 1.0000
30.6200 684.0000 1.0000
30.6400 738.0000 1.0000
30.6600 788.0000 1.0000
30.6800 742.0000 1.0000
30.7000 789.0000 1.0000
30.7200 759.0000 1.0000
30.7400 710.0000 1.0000
30.7600 700.0000 1.0000
30.7800 660.0000 1.0000
30.8000 586.0000 1.0000
30.8200 528.0000 1.0000
30.8400 438.0000 1.0000
30.8600 398.0000 1.0000
30.8800 394.0000 1.0000
30.9000 322.0000 1.0000
30.9200 296.0000 1.0000
30.9400 249.0000 1.0000
30.9600 232.0000 1.0000
30.9800 227.0000 1.0000
31.0000 195.0000 1.0000
31.0200 191.0000 1.0000
31.0400 221.0000 1.0000
31.0600 218.0000 1.0000
31.0800 186.0000 1.0000
31.1000 207.0000 1.0000
31.1200 198.0000 1.0000
31.1400 205.0000 1.0000
31.1600 206.0000 1.0000
31.1800 226.0000 1.0000
31.2000 238.0000 1.0000
31.2200 253.0000 1.0000
31.2400 292.0000 1.0000
31.2600 310.0000 1.0000
31.2800 306.0000 1.0000
31.3000 352.0000 1.0000
31.3200 370.0000 1.0000
31.3400 388.0000 1.0000
31.3600 351.0000 1.0000
31.3800 369.0000 1.0000
31.4000 354.0000 1.0000
31.4200 342.0000 1.0000
31.4400 342.0000 1.0000
31.4600 306.0000 1.0000
31.4800 275.0000 1.0000
31.5000 261.0000 1.0000
31.5200 259.0000 1.0000
31.5400 236.0000 1.0000
31.5600 231.0000 1.0000
31.5800 213.0000 1.0000
31.6000 214.0000 1.0000
31.6200 211.0000 1.0000
31.6400 191.0000 1.0000
31.6600 182.0000 1.0000
31.6800 177.0000 1.0000
31.7000 172.0000 1.0000
31.7200 151.0000 1.0000
31.7400 157.0000 1.0000
31.7600 157.0000 1.0000
31.7800 144.0000 1.0000
31.8000 127.0000 1.0000
31.8200 128.0000 1.0000
31.8400 118.0000 1.0000
31.8600 123.0000 1.0000
31.8800 117.0000 1.0000
31.9000 108.0000 1.0000
31.9200 129.0000 1.0000
31.9400 128.0000 1.0000
31.9600 107.0000 1.0000
31.9800 117.0000 1.0000
32.0000 117.0000 1.0000
32.0200 119.0000 1.0000
32.0400 117.0000 1.0000
32.0600 117.0000 1.0000
32.0800 125.0000 1.0000
32.1000 115.0000 1.0000
32.1200 127.0000 1.0000
32.1400 132.0000 1.0000
32.1600 133.0000 1.0000
32.1800 126.0000 1.0000
32.2000 129.0000 1.0000
32.2200 125.0000 1.0000
32.2400 119.0000 1.0000
32.2600 133.0000 1.0000
32.2800 130.0000 1.0000
32.3000 138.0000 1.0000
32.3200 135.0000 1.0000
32.3400 151.0000 1.0000
32.3600 133.0000 1.0000
32.3800 153.0000 1.0000
32.4000 153.0000 1.0000
32.4200 139.0000 1.0000
32.4400 145.0000 1.0000
32.4600 141.0000 1.0000
32.4800 133.0000 1.0000
32.5000 131.0000 1.0000
32.5200 128.0000 1.0000
32.5400 119.0000 1.0000
32.5600 135.0000 1.0000
32.5800 145.0000 1.0000
32.6000 140.0000 1.0000
32.6200 137.0000 1.0000
32.6400 149.0000 1.0000
32.6600 147.0000 1.0000
32.6800 147.0000 1.0000
32.7000 165.0000 1.0000
32.7200 164.0000 1.0000
32.7400 163.0000 1.0000
32.7600 148.0000 1.0000
32.7800 137.0000 1.0000
32.8000 125.0000 1.0000
32.8200 126.0000 1.0000
32.8400 114.0000 1.0000
32.8600 129.0000 1.0000
32.8800 133.0000 1.0000
32.9000 135.0000 1.0000
32.9200 125.0000 1.0000
32.9400 114.0000 1.0000
32.9600 114.0000 1.0000
32.9800 125.0000 1.0000
33.0000 106.0000 1.0000
33.0200 103.0000 1.0000
33.0400 115.0000 1.0000
33.0600 99.0000 1.0000
33.0800 119.0000 1.0000
33.1000 109.0000 1.0000
33.1200 105.0000 1.0000
33.1400 105.0000 1.0000
33.1600 110.0000 1.0000
33.1800 104.0000 1.0000
33.2000 107.0000 1.0000
33.2200 98.0000 1.0000
33.2400 101.0000 1.0000
33.2600 121.0000 1.0000
33.2800 132.0000 1.0000
33.3000 108.0000 1.0000
33.3200 99.0000 1.0000
33.3400 117.0000 1.0000
33.3600 128.0000 1.0000
33.3800 121.0000 1.0000
33.4000 134.0000 1.0000
33.4200 108.0000 1.0000
33.4400 118.0000 1.0000
33.4600 153.0000 1.0000
33.4800 154.0000 1.0000
33.5000 180.0000 1.0000
33.5200 209.0000 1.0000
33.5400 230.0000 1.0000
33.5600 207.0000 1.0000
33.5800 223.0000 1.0000
33.6000 220.0000 1.0000
33.6200 229.0000 1.0000
33.6400 222.0000 1.0000
33.6600 203.0000 1.0000
33.6800 164.0000 1.0000
33.7000 178.0000 1.0000
33.7200 158.0000 1.0000
33.7400 172.0000 1.0000
33.7600 156.0000 1.0000
33.7800 133.0000 1.0000
33.8000 128.0000 1.0000
33.8200 120.0000 1.0000
33.8400 131.0000 1.0000
33.8600 121.0000 1.0000
33.8800 143.0000 1.0000
33.9000 136.0000 1.0000
33.9200 144.0000 1.0000
33.9400 137.0000 1.0000
33.9600 133.0000 1.0000
33.9800 124.0000 1.0000
34.0000 147.0000 1.0000
34.0200 143.0000 1.0000
34.0400 143.0000 1.0000
34.0600 137.0000 1.0000
34.0800 135.0000 1.0000
34.1000 142.0000 1.0000
34.1200 161.0000 1.0000
34.1400 158.0000 1.0000
34.1600 150.0000 1.0000
34.1800 145.0000 1.0000
34.2000 162.0000 1.0000
34.2200 193.0000 1.0000
34.2400 173.0000 1.0000
34.2600 175.0000 1.0000
34.2800 158.0000 1.0000
34.3000 178.0000 1.0000
34.3200 165.0000 1.0000
34.3400 169.0000 1.0000
34.3600 198.0000 1.0000
34.3800 189.0000 1.0000
34.4000 190.0000 1.0000
34.4200 196.0000 1.0000
34.4400 227.0000 1.0000
34.4600 227.0000 1.0000
34.4800 240.0000 1.0000
34.5000 236.0000 1.0000
34.5200 263.0000 1.0000
34.5400 255.0000 1.0000
34.5600 313.0000 1.0000
34.5800 348.0000 1.0000
34.6000 382.0000 1.0000
34.6200 422.0000 1.0000
34.6400 448.0000 1.0000
34.6600 432.0000 1.0000
34.6800 536.0000 1.0000
34.7000 544.0000 1.0000
34.7200 577.0000 1.0000
34.7400 542.0000 1.0000
34.7600 655.0000 1.0000
34.7800 651.0000 1.0000
34.8000 604.0000 1.0000
34.8200 719.0000 1.0000
34.8400 739.0000 1.0000
34.8600 788.0000 1.0000
34.8800 885.0000 1.0000
34.9000 1084.0000 1.0000
34.9200 1241.0000 1.0000
34.9400 1493.0000 1.0000
34.9600 1544.0000 1.0000
34.9800 1538.0000 1.0000
35.0000 1540.0000 1.0000
35.0200 1493.0000 1.0000
35.0400 1336.0000 1.0000
35.0600 1159.0000 1.0000
35.0800 1016.0000 1.0000
35.1000 950.0000 1.0000
35.1200 783.0000 1.0000
35.1400 636.0000 1.0000
35.1600 641.0000 1.0000
35.1800 549.0000 1.0000
35.2000 592.0000 1.0000
35.2200 651.0000 1.0000
35.2400 736.0000 1.0000
35.2600 825.0000 1.0000
35.2800 843.0000 1.0000
35.3000 975.0000 1.0000
35.3200 1077.0000 1.0000
35.3400 1177.0000 1.0000
35.3600 1208.0000 1.0000
35.3800 1250.0000 1.0000
35.4000 1226.0000 1.0000
35.4200 1178.0000 1.0000
35.4400 1187.0000 1.0000
35.4600 1192.0000 1.0000
35.4800 1160.0000 1.0000
35.5000 1051.0000 1.0000
35.5200 1077.0000 1.0000
35.5400 984.0000 1.0000
35.5600 955.0000 1.0000
35.5800 858.0000 1.0000
35.6000 760.0000 1.0000
35.6200 704.0000 1.0000
35.6400 642.0000 1.0000
35.6600 613.0000 1.0000
35.6800 531.0000 1.0000
35.7000 464.0000 1.0000
35.7200 408.0000 1.0000
35.7400 374.0000 1.0000
35.7600 351.0000 1.0000
35.7800 304.0000 1.0000
35.8000 320.0000 1.0000
35.8200 298.0000 1.0000
35.8400 305.0000 1.0000
35.8600 293.0000 1.0000
35.8800 305.0000 1.0000
35.9000 285.0000 1.0000
35.9200 290.0000 1.0000
35.9400 282.0000 1.0000
35.9600 281.0000 1.0000
35.9800 273.0000 1.0000
36.0000 266.0000 1.0000
36.0200 248.0000 1.0000
36.0400 264.0000 1.0000
36.0600 246.0000 1.0000
36.0800 257.0000 1.0000
36.1000 247.0000 1.0000
36.1200 229.0000 1.0000
36.1400 252.0000 1.0000
36.1600 260.0000 1.0000
36.1800 250.0000 1.0000
36.2000 235.0000 1.0000
36.2200 237.0000 1.0000
36.2400 272.0000 1.0000
36.2600 272.0000 1.0000
36.2800 249.0000 1.0000
36.3000 268.0000 1.0000
36.3200 292.0000 1.0000
36.3400 288.0000 1.0000
36.3600 331.0000 1.0000
36.3800 288.0000 1.0000
36.4000 320.0000 1.0000
36.4200 308.0000 1.0000
36.4400 258.0000 1.0000
36.4600 248.0000 1.0000
36.4800 232.0000 1.0000
36.5000 222.0000 1.0000
36.5200 212.0000 1.0000
36.5400 195.0000 1.0000
36.5600 220.0000 1.0000
36.5800 190.0000 1.0000
36.6000 206.0000 1.0000
36.6200 218.0000 1.0000
36.6400 187.0000 1.0000
36.6600 172.0000 1.0000
36.6800 167.0000 1.0000
36.7000 182.0000 1.0000
36.7200 179.0000 1.0000
36.7400 150.0000 1.0000
36.7600 153.0000 1.0000
36.7800 140.0000 1.0000
36.8000 144.0000 1.0000
36.8200 144.0000 1.0000
36.8400 145.0000 1.0000
36.8600 139.0000 1.0000
36.8800 160.0000 1.0000
36.9000 136.0000 1.0000
36.9200 167.0000 1.0000
36.9400 153.0000 1.0000
36.9600 167.0000 1.0000
36.9800 175.0000 1.0000
37.0000 177.0000 1.0000
37.0200 184.0000 1.0000
37.0400 176.0000 1.0000
37.0600 166.0000 1.0000
37.0800 169.0000 1.0000
37.1000 160.0000 1.0000
37.1200 156.0000 1.0000
37.1400 161.0000 1.0000
37.1600 175.0000 1.0000
37.1800 169.0000 1.0000
37.2000 157.0000 1.0000
37.2200 160.0000 1.0000
37.2400 159.0000 1.0000
37.2600 151.0000 1.0000
37.2800 177.0000 1.0000
37.3000 184.0000 1.0000
37.3200 175.0000 1.0000
37.3400 197.0000 1.0000
37.3600 174.0000 1.0000
37.3800 192.0000 1.0000
37.4000 179.0000 1.0000
37.4200 212.0000 1.0000
37.4400 211.0000 1.0000
37.4600 246.0000 1.0000
37.4800 286.0000 1.0000
37.5000 362.0000 1.0000
37.5200 416.0000 1.0000
37.5400 477.0000 1.0000
37.5600 569.0000 1.0000
37.5800 607.0000 1.0000
37.6000 641.0000 1.0000
37.6200 631.0000 1.0000
37.6400 627.0000 1.0000
37.6600 569.0000 1.0000
37.6800 527.0000 1.0000
37.7000 478.0000 1.0000
37.7200 382.0000 1.0000
37.7400 320.0000 1.0000
37.7600 256.0000 1.0000
37.7800 210.0000 1.0000
37.8000 187.0000 1.0000
37.8200 169.0000 1.0000
37.8400 166.0000 1.0000
37.8600 153.0000 1.0000
37.8800 153.0000 1.0000
37.9000 140.0000 1.0000
37.9200 122.0000 1.0000
37.9400 123.0000 1.0000
37.9600 136.0000 1.0000
37.9800 125.0000 1.0000
38.0000 137.0000 1.0000
38.0200 137.0000 1.0000
38.0400 134.0000 1.0000
38.0600 128.0000 1.0000
38.0800 126.0000 1.0000
38.1000 137.0000 1.0000
38.1200 130.0000 1.0000
38.1400 125.0000 1.0000
38.1600 115.0000 1.0000
38.1800 104.0000 1.0000
38.2000 118.0000 1.0000
38.2200 112.0000 1.0000
38.2400 103.0000 1.0000
38.2600 102.0000 1.0000
38.2800 101.0000 1.0000
38.3000 95.0000 1.0000
38.3200 106.0000 1.0000
38.3400 104.0000 1.0000
38.3600 103.0000 1.0000
38.3800 121.0000 1.0000
38.4000 111.0000 1.0000
38.4200 107.0000 1.0000
38.4400 108.0000 1.0000
38.4600 100.0000 1.0000
38.4800 101.0000 1.0000
38.5000 115.0000 1.0000
38.5200 109.0000 1.0000
38.5400 109.0000 1.0000
38.5600 113.0000 1.0000
38.5800 126.0000 1.0000
38.6000 141.0000 1.0000
38.6200 130.0000 1.0000
38.6400 141.0000 1.0000
38.6600 135.0000 1.0000
38.6800 135.0000 1.0000
38.7000 144.0000 1.0000
38.7200 152.0000 1.0000
38.7400 155.0000 1.0000
38.7600 151.0000 1.0000
38.7800 150.0000 1.0000
38.8000 161.0000 1.0000
38.8200 185.0000 1.0000
38.8400 183.0000 1.0000
38.8600 180.0000 1.0000
38.8800 185.0000 1.0000
38.9000 201.0000 1.0000
38.9200 218.0000 1.0000
38.9400 237.0000 1.0000
38.9600 248.0000 1.0000
38.9800 261.0000 1.0000
39.0000 269.0000 1.0000
39.0200 256.0000 1.0000
39.0400 252.0000 1.0000
39.0600 234.0000 1.0000
39.0800 244.0000 1.0000
39.1000 246.0000 1.0000
39.1200 217.0000 1.0000
39.1400 208.0000 1.0000
39.1600 206.0000 1.0000
39.1800 210.0000 1.0000
39.2000 207.0000 1.0000
39.2200 231.0000 1.0000
39.2400 257.0000 1.0000
39.2600 243.0000 1.0000
39.2800 234.0000 1.0000
39.3000 249.0000 1.0000
39.3200 253.0000 1.0000
39.3400 240.0000 1.0000
39.3600 219.0000 1.0000
39.3800 205.0000 1.0000
39.4000 194.0000 1.0000
39.4200 187.0000 1.0000
39.4400 177.0000 1.0000
39.4600 166.0000 1.0000
39.4800 157.0000 1.0000
39.5000 156.0000 1.0000
39.5200 149.0000 1.0000
39.5400 146.0000 1.0000
39.5600 155.0000 1.0000
39.5800 169.0000 1.0000
39.6000 178.0000 1.0000
39.6200 169.0000 1.0000
39.6400 150.0000 1.0000
39.6600 140.0000 1.0000
39.6800 145.0000 1.0000
39.7000 142.0000 1.0000
39.7200 123.0000 1.0000
39.7400 116.0000 1.0000
39.7600 120.0000 1.0000
39.7800 145.0000 1.0000
39.8000 143.0000 1.0000
39.8200 133.0000 1.0000
39.8400 140.0000 1.0000
39.8600 126.0000 1.0000
39.8800 120.0000 1.0000
39.9000 129.0000 1.0000
39.9200 131.0000 1.0000
39.9400 132.0000 1.0000
39.9600 132.0000 1.0000
39.9800 131.0000 1.0000
40.0000 134.0000 1.0000
40.0200 139.0000 1.0000
40.0400 148.0000 1.0000
40.0600 152.0000 1.0000
40.0800 166.0000 1.0000
40.1000 183.0000 1.0000
40.1200 189.0000 1.0000
40.1400 194.0000 1.0000
40.1600 187.0000 1.0000
40.1800 182.0000 1.0000
40.2000 195.0000 1.0000
40.2200 193.0000 1.0000
40.2400 189.0000 1.0000
40.2600 198.0000 1.0000
40.2800 184.0000 1.0000
40.3000 165.0000 1.0000
40.3200 179.0000 1.0000
40.3400 192.0000 1.0000
40.3600 195.0000 1.0000
40.3800 199.0000 1.0000
40.4000 203.0000 1.0000
40.4200 220.0000 1.0000
40.4400 228.0000 1.0000
40.4600 224.0000 1.0000
40.4800 221.0000 1.0000
40.5000 213.0000 1.0000
40.5200 223.0000 1.0000
40.5400 257.0000 1.0000
40.5600 279.0000 1.0000
40.5800 284.0000 1.0000
40.6000 269.0000 1.0000
40.6200 259.0000 1.0000
40.6400 249.0000 1.0000
40.6600 236.0000 1.0000
40.6800 244.0000 1.0000
40.7000 224.0000 1.0000
40.7200 219.0000 1.0000
40.7400 232.0000 1.0000
40.7600 208.0000 1.0000
40.7800 198.0000 1.0000
40.8000 218.0000 1.0000
40.8200 230.0000 1.0000
40.8400 209.0000 1.0000
40.8600 194.0000 1.0000
40.8800 208.0000 1.0000
40.9000 193.0000 1.0000
40.9200 183.0000 1.0000
40.9400 190.0000 1.0000
40.9600 179.0000 1.0000
40.9800 172.0000 1.0000
41.0000 152.0000 1.0000
41.0200 141.0000 1.0000
41.0400 137.0000 1.0000
41.0600 143.0000 1.0000
41.0800 142.0000 1.0000
41.1000 128.0000 1.0000
41.1200 124.0000 1.0000
41.1400 123.0000 1.0000
41.1600 133.0000 1.0000
41.1800 129.0000 1.0000
41.2000 123.0000 1.0000
41.2200 134.0000 1.0000
41.2400 137.0000 1.0000
41.2600 132.0000 1.0000
41.2800 132.0000 1.0000
41.3000 140.0000 1.0000
41.3200 144.0000 1.0000
41.3400 152.0000 1.0000
41.3600 150.0000 1.0000
41.3800 138.0000 1.0000
41.4000 148.0000 1.0000
41.4200 146.0000 1.0000
41.4400 144.0000 1.0000
41.4600 165.0000 1.0000
41.4800 179.0000 1.0000
41.5000 183.0000 1.0000
41.5200 191.0000 1.0000
41.5400 187.0000 1.0000
41.5600 199.0000 1.0000
41.5800 210.0000 1.0000
41.6000 209.0000 1.0000
41.6200 242.0000 1.0000
41.6400 250.0000 1.0000
41.6600 237.0000 1.0000
41.6800 248.0000 1.0000
41.7000 251.0000 1.0000
41.7200 256.0000 1.0000
41.7400 262.0000 1.0000
41.7600 253.0000 1.0000
41.7800 233.0000 1.0000
41.8000 229.0000 1.0000
41.8200 225.0000 1.0000
41.8400 239.0000 1.0000
41.8600 256.0000 1.0000
41.8800 255.0000 1.0000
41.9000 255.0000 1.0000
41.9200 268.0000 1.0000
41.9400 315.0000 1.0000
41.9600 337.0000 1.0000
41.9800 348.0000 1.0000
42.0000 374.0000 1.0000
42.0200 409.0000 1.0000
42.0400 478.0000 1.0000
42.0600 490.0000 1.0000
42.0800 517.0000 1.0000
42.1000 554.0000 1.0000
42.1200 566.0000 1.0000
42.1400 543.0000 1.0000
42.1600 491.0000 1.0000
42.1800 500.0000 1.0000
42.2000 516.0000 1.0000
42.2200 500.0000 1.0000
42.2400 473.0000 1.0000
42.2600 461.0000 1.0000
42.2800 450.0000 1.0000
42.3000 425.0000 1.0000
42.3200 370.0000 1.0000
42.3400 345.0000 1.0000
42.3600 365.0000 1.0000
42.3800 328.0000 1.0000
42.4000 306.0000 1.0000
42.4200 299.0000 1.0000
42.4400 298.0000 1.0000
42.4600 280.0000 1.0000
42.4800 246.0000 1.0000
42.5000 271.0000 1.0000
42.5200 286.0000 1.0000
42.5400 280.0000 1.0000
42.5600 280.0000 1.0000
42.5800 275.0000 1.0000
42.6000 288.0000 1.0000
42.6200 300.0000 1.0000
42.6400 291.0000 1.0000
42.6600 317.0000 1.0000
42.6800 343.0000 1.0000
42.7000 326.0000 1.0000
42.7200 307.0000 1.0000
42.7400 303.0000 1.0000
42.7600 317.0000 1.0000
42.7800 272.0000 1.0000
42.8000 279.0000 1.0000
42.8200 306.0000 1.0000
42.8400 277.0000 1.0000
42.8600 268.0000 1.0000
42.8800 275.0000 1.0000
42.9000 275.0000 1.0000
42.9200 276.0000 1.0000
42.9400 285.0000 1.0000
42.9600 278.0000 1.0000
42.9800 311.0000 1.0000
43.0000 327.0000 1.0000
43.0200 337.0000 1.0000
43.0400 399.0000 1.0000
43.0600 485.0000 1.0000
43.0800 569.0000 1.0000
43.1000 704.0000 1.0000
43.1200 898.0000 1.0000
43.1400 1081.0000 1.0000
43.1600 1260.0000 1.0000
43.1800 1333.0000 1.0000
43.2000 1411.0000 1.0000
43.2200 1322.0000 1.0000
43.2400 1234.0000 1.0000
43.2600 1106.0000 1.0000
43.2800 982.0000 1.0000
43.3000 871.0000 1.0000
43.3200 777.0000 1.0000
43.3400 634.0000 1.0000
43.3600 534.0000 1.0000
43.3800 365.0000 1.0000
43.4000 316.0000 1.0000
43.4200 253.0000 1.0000
43.4400 232.0000 1.0000
43.4600 207.0000 1.0000
43.4800 202.0000 1.0000
43.5000 169.0000 1.0000
43.5200 179.0000 1.0000
43.5400 164.0000 1.0000
43.5600 155.0000 1.0000
43.5800 162.0000 1.0000
43.6000 166.0000 1.0000
43.6200 151.0000 1.0000
43.6400 160.0000 1.0000
43.6600 146.0000 1.0000
43.6800 156.0000 1.0000
43.7000 137.0000 1.0000
43.7200 132.0000 1.0000
43.7400 138.0000 1.0000
43.7600 158.0000 1.0000
43.7800 134.0000 1.0000
43.8000 142.0000 1.0000
43.8200 155.0000 1.0000
43.8400 143.0000 1.0000
43.8600 137.0000 1.0000
43.8800 137.0000 1.0000
43.9000 140.0000 1.0000
43.9200 136.0000 1.0000
43.9400 155.0000 1.0000
43.9600 157.0000 1.0000
43.9800 157.0000 1.0000
44.0000 174.0000 1.0000
44.0200 171.0000 1.0000
44.0400 208.0000 1.0000
44.0600 242.0000 1.0000
44.0800 224.0000 1.0000
44.1000 254.0000 1.0000
44.1200 259.0000 1.0000
44.1400 254.0000 1.0000
44.1600 257.0000 1.0000
44.1800 278.0000 1.0000
44.2000 265.0000 1.0000
44.2200 258.0000 1.0000
44.2400 249.0000 1.0000
44.2600 246.0000 1.0000
44.2800 262.0000 1.0000
44.3000 223.0000 1.0000
44.3200 204.0000 1.0000
44.3400 217.0000 1.0000
44.3600 215.0000 1.0000
44.3800 205.0000 1.0000
44.4000 180.0000 1.0000
44.4200 192.0000 1.0000
44.4400 194.0000 1.0000
44.4600 154.0000 1.0000
44.4800 156.0000 1.0000
44.5000 164.0000 1.0000
44.5200 185.0000 1.0000
44.5400 206.0000 1.0000
44.5600 222.0000 1.0000
44.5800 212.0000 1.0000
44.6000 236.0000 1.0000
44.6200 242.0000 1.0000
44.6400 249.0000 1.0000
44.6600 237.0000 1.0000
44.6800 298.0000 1.0000
44.7000 258.0000 1.0000
44.7200 247.0000 1.0000
44.7400 266.0000 1.0000
44.7600 257.0000 1.0000
44.7800 270.0000 1.0000
44.8000 242.0000 1.0000
44.8200 230.0000 1.0000
44.8400 225.0000 1.0000
44.8600 212.0000 1.0000
44.8800 190.0000 1.0000
44.9000 193.0000 1.0000
44.9200 207.0000 1.0000
44.9400 196.0000 1.0000
44.9600 198.0000 1.0000
44.9800 204.0000 1.0000
45.0000 233.0000 1.0000
45.0200 246.0000 1.0000
45.0400 248.0000 1.0000
45.0600 233.0000 1.0000
45.0800 246.0000 1.0000
45.1000 231.0000 1.0000
45.1200 221.0000 1.0000
45.1400 245.0000 1.0000
45.1600 237.0000 1.0000
45.1800 216.0000 1.0000
45.2000 202.0000 1.0000
45.2200 209.0000 1.0000
45.2400 181.0000 1.0000
45.2600 207.0000 1.0000
45.2800 184.0000 1.0000
45.3000 165.0000 1.0000
45.3200 174.0000 1.0000
45.3400 162.0000 1.0000
45.3600 144.0000 1.0000
45.3800 165.0000 1.0000
45.4000 158.0000 1.0000
45.4200 154.0000 1.0000
45.4400 149.0000 1.0000
45.4600 161.0000 1.0000
45.4800 159.0000 1.0000
45.5000 165.0000 1.0000
45.5200 164.0000 1.0000
45.5400 169.0000 1.0000
45.5600 154.0000 1.0000
45.5800 174.0000 1.0000
45.6000 197.0000 1.0000
45.6200 178.0000 1.0000
45.6400 174.0000 1.0000
45.6600 167.0000 1.0000
45.6800 186.0000 1.0000
45.7000 169.0000 1.0000
45.7200 156.0000 1.0000
45.7400 178.0000 1.0000
45.7600 180.0000 1.0000
45.7800 178.0000 1.0000
45.8000 188.0000 1.0000
45.8200 231.0000 1.0000
45.8400 195.0000 1.0000
45.8600 187.0000 1.0000
45.8800 195.0000 1.0000
45.9000 214.0000 1.0000
45.9200 190.0000 1.0000
45.9400 189.0000 1.0000
45.9600 190.0000 1.0000
45.9800 179.0000 1.0000
46.0000 194.0000 1.0000
46.0200 179.0000 1.0000
46.0400 166.0000 1.0000
46.0600 159.0000 1.0000
46.0800 141.0000 1.0000
46.1000 128.0000 1.0000
46.1200 139.0000 1.0000
46.1400 149.0000 1.0000
46.1600 131.0000 1.0000
46.1800 118.0000 1.0000
46.2000 131.0000 1.0000
46.2200 104.0000 1.0000
46.2400 108.0000 1.0000
46.2600 123.0000 1.0000
46.2800 106.0000 1.0000
46.3000 116.0000 1.0000
46.3200 115.0000 1.0000
46.3400 112.0000 1.0000
46.3600 131.0000 1.0000
46.3800 113.0000 1.0000
46.4000 102.0000 1.0000
46.4200 108.0000 1.0000
46.4400 112.0000 1.0000
46.4600 108.0000 1.0000
46.4800 116.0000 1.0000
46.5000 129.0000 1.0000
46.5200 105.0000 1.0000
46.5400 102.0000 1.0000
46.5600 109.0000 1.0000
46.5800 105.0000 1.0000
46.6000 123.0000 1.0000
46.6200 126.0000 1.0000
46.6400 118.0000 1.0000
46.6600 99.0000 1.0000
46.6800 113.0000 1.0000
46.7000 127.0000 1.0000
46.7200 123.0000 1.0000
46.7400 104.0000 1.0000
46.7600 108.0000 1.0000
46.7800 142.0000 1.0000
46.8000 139.0000 1.0000
46.8200 138.0000 1.0000
46.8400 155.0000 1.0000
46.8600 145.0000 1.0000
46.8800 159.0000 1.0000
46.9000 163.0000 1.0000
46.9200 160.0000 1.0000
46.9400 156.0000 1.0000
46.9600 144.0000 1.0000
46.9800 165.0000 1.0000
47.0000 166.0000 1.0000
47.0200 169.0000 1.0000
47.0400 147.0000 1.0000
47.0600 136.0000 1.0000
47.0800 134.0000 1.0000
47.1000 120.0000 1.0000
47.1200 121.0000 1.0000
47.1400 126.0000 1.0000
47.1600 123.0000 1.0000
47.1800 120.0000 1.0000
47.2000 120.0000 1.0000
47.2200 101.0000 1.0000
47.2400 110.0000 1.0000
47.2600 110.0000 1.0000
47.2800 97.0000 1.0000
47.3000 96.0000 1.0000
47.3200 102.0000 1.0000
47.3400 104.0000 1.0000
47.3600 103.0000 1.0000
47.3800 115.0000 1.0000
47.4000 103.0000 1.0000
47.4200 82.0000 1.0000
47.4400 91.0000 1.0000
47.4600 86.0000 1.0000
47.4800 75.0000 1.0000
47.5000 82.0000 1.0000
47.5200 84.0000 1.0000
47.5400 85.0000 1.0000
47.5600 86.0000 1.0000
47.5800 93.0000 1.0000
47.6000 84.0000 1.0000
47.6200 79.0000 1.0000
47.6400 83.0000 1.0000
47.6600 89.0000 1.0000
47.6800 97.0000 1.0000
47.7000 90.0000 1.0000
47.7200 95.0000 1.0000
47.7400 119.0000 1.0000
47.7600 114.0000 1.0000
47.7800 104.0000 1.0000
47.8000 101.0000 1.0000
47.8200 93.0000 1.0000
47.8400 104.0000 1.0000
47.8600 106.0000 1.0000
47.8800 102.0000 1.0000
47.9000 110.0000 1.0000
47.9200 100.0000 1.0000
47.9400 81.0000 1.0000
47.9600 86.0000 1.0000
47.9800 97.0000 1.0000
48.0000 110.0000 1.0000
48.0200 111.0000 1.0000
48.0400 110.0000 1.0000
48.0600 128.0000 1.0000
48.0800 131.0000 1.0000
48.1000 124.0000 1.0000
48.1200 134.0000 1.0000
48.1400 133.0000 1.0000
48.1600 145.0000 1.0000
48.1800 144.0000 1.0000
48.2000 163.0000 1.0000
48.2200 177.0000 1.0000
48.2400 171.0000 1.0000
48.2600 172.0000 1.0000
48.2800 163.0000 1.0000
48.3000 155.0000 1.0000
48.3200 158.0000 1.0000
48.3400 149.0000 1.0000
48.3600 143.0000 1.0000
48.3800 146.0000 1.0000
48.4000 127.0000 1.0000
48.4200 121.0000 1.0000
48.4400 125.0000 1.0000
48.4600 121.0000 1.0000
48.4800 112.0000 1.0000
48.5000 118.0000 1.0000
48.5200 112.0000 1.0000
48.5400 109.0000 1.0000
48.5600 112.0000 1.0000
48.5800 113.0000 1.0000
48.6000 124.0000 1.0000
48.6200 127.0000 1.0000
48.6400 123.0000 1.0000
48.6600 122.0000 1.0000
48.6800 120.0000 1.0000
48.7000 122.0000 1.0000
48.7200 131.0000 1.0000
48.7400 134.0000 1.0000
48.7600 138.0000 1.0000
48.7800 146.0000 1.0000
48.8000 150.0000 1.0000
48.8200 147.0000 1.0000
48.8400 140.0000 1.0000
48.8600 137.0000 1.0000
48.8800 136.0000 1.0000
48.9000 132.0000 1.0000
48.9200 133.0000 1.0000
48.9400 134.0000 1.0000
48.9600 132.0000 1.0000
48.9800 152.0000 1.0000
49.0000 175.0000 1.0000
49.0200 163.0000 1.0000
49.0400 162.0000 1.0000
49.0600 193.0000 1.0000
49.0800 207.0000 1.0000
49.1000 194.0000 1.0000
49.1200 184.0000 1.0000
49.1400 181.0000 1.0000
49.1600 181.0000 1.0000
49.1800 181.0000 1.0000
49.2000 177.0000 1.0000
49.2200 177.0000 1.0000
49.2400 171.0000 1.0000
49.2600 171.0000 1.0000
49.2800 157.0000 1.0000
49.3000 153.0000 1.0000
49.3200 172.0000 1.0000
49.3400 173.0000 1.0000
49.3600 182.0000 1.0000
49.3800 191.0000 1.0000
49.4000 211.0000 1.0000
49.4200 240.0000 1.0000
49.4400 248.0000 1.0000
49.4600 263.0000 1.0000
49.4800 294.0000 1.0000
49.5000 304.0000 1.0000
49.5200 286.0000 1.0000
49.5400 261.0000 1.0000
49.5600 275.0000 1.0000
49.5800 284.0000 1.0000
49.6000 275.0000 1.0000
49.6200 256.0000 1.0000
49.6400 234.0000 1.0000
49.6600 239.0000 1.0000
49.6800 221.0000 1.0000
49.7000 214.0000 1.0000
49.7200 208.0000 1.0000
49.7400 193.0000 1.0000
49.7600 171.0000 1.0000
49.7800 187.0000 1.0000
49.8000 182.0000 1.0000
49.8200 176.0000 1.0000
49.8400 194.0000 1.0000
49.8600 200.0000 1.0000
49.8800 213.0000 1.0000
49.9000 231.0000 1.0000
49.9200 262.0000 1.0000
49.9400 290.0000 1.0000
49.9600 314.0000 1.0000
49.9800 330.0000 1.0000
50.0000 315.0000 1.0000
50.0200 292.0000 1.0000
50.0400 288.0000 1.0000
50.0600 290.0000 1.0000
50.0800 280.0000 1.0000
50.1000 268.0000 1.0000
50.1200 273.0000 1.0000
50.1400 249.0000 1.0000
50.1600 236.0000 1.0000
50.1800 201.0000 1.0000
50.2000 182.0000 1.0000
50.2200 168.0000 1.0000
50.2400 159.0000 1.0000
50.2600 141.0000 1.0000
50.2800 150.0000 1.0000
50.3000 155.0000 1.0000
50.3200 149.0000 1.0000
50.3400 139.0000 1.0000
50.3600 144.0000 1.0000
50.3800 153.0000 1.0000
50.4000 150.0000 1.0000
50.4200 143.0000 1.0000
50.4400 150.0000 1.0000
50.4600 155.0000 1.0000
50.4800 182.0000 1.0000
50.5000 178.0000 1.0000
50.5200 176.0000 1.0000
50.5400 206.0000 1.0000
50.5600 228.0000 1.0000
50.5800 225.0000 1.0000
50.6000 236.0000 1.0000
50.6200 257.0000 1.0000
50.6400 249.0000 1.0000
50.6600 229.0000 1.0000
50.6800 239.0000 1.0000
50.7000 238.0000 1.0000
50.7200 214.0000 1.0000
50.7400 195.0000 1.0000
50.7600 186.0000 1.0000
50.7800 177.0000 1.0000
50.8000 153.0000 1.0000
50.8200 145.0000 1.0000
50.8400 125.0000 1.0000
50.8600 152.0000 1.0000
50.8800 134.0000 1.0000
50.9000 134.0000 1.0000
50.9200 138.0000 1.0000
50.9400 137.0000 1.0000
50.9600 120.0000 1.0000
50.9800 133.0000 1.0000
51.0000 137.0000 1.0000
51.0200 126.0000 1.0000
51.0400 163.0000 1.0000
51.0600 129.0000 1.0000
51.0800 135.0000 1.0000
51.1000 128.0000 1.0000
51.1200 128.0000 1.0000
51.1400 133.0000 1.0000
51.1600 147.0000 1.0000
51.1800 157.0000 1.0000
51.2000 171.0000 1.0000
51.2200 173.0000 1.0000
51.2400 185.0000 1.0000
51.2600 202.0000 1.0000
51.2800 217.0000 1.0000
51.3000 257.0000 1.0000
51.3200 301.0000 1.0000
51.3400 295.0000 1.0000
51.3600 320.0000 1.0000
51.3800 317.0000 1.0000
51.4000 326.0000 1.0000
51.4200 328.0000 1.0000
51.4400 308.0000 1.0000
51.4600 277.0000 1.0000
51.4800 271.0000 1.0000
51.5000 223.0000 1.0000
51.5200 210.0000 1.0000
51.5400 216.0000 1.0000
51.5600 186.0000 1.0000
51.5800 196.0000 1.0000
51.6000 169.0000 1.0000
51.6200 169.0000 1.0000
51.6400 153.0000 1.0000
51.6600 136.0000 1.0000
51.6800 136.0000 1.0000
51.7000 145.0000 1.0000
51.7200 177.0000 1.0000
51.7400 146.0000 1.0000
51.7600 153.0000 1.0000
51.7800 176.0000 1.0000
51.8000 199.0000 1.0000
51.8200 188.0000 1.0000
51.8400 240.0000 1.0000
51.8600 242.0000 1.0000
51.8800 238.0000 1.0000
51.9000 217.0000 1.0000
51.9200 239.0000 1.0000
51.9400 227.0000 1.0000
51.9600 263.0000 1.0000
51.9800 251.0000 1.0000
52.0000 245.0000 1.0000
52.0200 247.0000 1.0000
52.0400 248.0000 1.0000
52.0600 228.0000 1.0000
52.0800 247.0000 1.0000
52.1000 215.0000 1.0000
52.1200 247.0000 1.0000
52.1400 221.0000 1.0000
52.1600 233.0000 1.0000
52.1800 207.0000 1.0000
52.2000 262.0000 1.0000
52.2200 248.0000 1.0000
52.2400 265.0000 1.0000
52.2600 269.0000 1.0000
52.2800 346.0000 1.0000
52.3000 346.0000 1.0000
52.3200 422.0000 1.0000
52.3400 520.0000 1.0000
52.3600 579.0000 1.0000
52.3800 653.0000 1.0000
52.4000 658.0000 1.0000
52.4200 625.0000 1.0000
52.4400 581.0000 1.0000
52.4600 594.0000 1.0000
52.4800 542.0000 1.0000
52.5000 462.0000 1.0000
52.5200 436.0000 1.0000
52.5400 428.0000 1.0000
52.5600 412.0000 1.0000
52.5800 391.0000 1.0000
52.6000 340.0000 1.0000
52.6200 261.0000 1.0000
52.6400 244.0000 1.0000
52.6600 212.0000 1.0000
52.6800 176.0000 1.0000
52.7000 169.0000 1.0000
52.7200 153.0000 1.0000
52.7400 184.0000 1.0000
52.7600 151.0000 1.0000
52.7800 161.0000 1.0000
52.8000 130.0000 1.0000
52.8200 155.0000 1.0000
52.8400 153.0000 1.0000
52.8600 158.0000 1.0000
52.8800 148.0000 1.0000
52.9000 161.0000 1.0000
52.9200 153.0000 1.0000
52.9400 142.0000 1.0000
52.9600 162.0000 1.0000
52.9800 168.0000 1.0000
53.0000 151.0000 1.0000
53.0200 156.0000 1.0000
53.0400 159.0000 1.0000
53.0600 149.0000 1.0000
53.0800 165.0000 1.0000
53.1000 178.0000 1.0000
53.1200 184.0000 1.0000
53.1400 172.0000 1.0000
53.1600 181.0000 1.0000
53.1800 186.0000 1.0000
53.2000 179.0000 1.0000
53.2200 165.0000 1.0000
53.2400 165.0000 1.0000
53.2600 168.0000 1.0000
53.2800 173.0000 1.0000
53.3000 189.0000 1.0000
53.3200 185.0000 1.0000
53.3400 200.0000 1.0000
53.3600 186.0000 1.0000
53.3800 173.0000 1.0000
53.4000 172.0000 1.0000
53.4200 166.0000 1.0000
53.4400 163.0000 1.0000
53.4600 170.0000 1.0000
53.4800 155.0000 1.0000
53.5000 152.0000 1.0000
53.5200 160.0000 1.0000
53.5400 147.0000 1.0000
53.5600 121.0000 1.0000
53.5800 140.0000 1.0000
53.6000 132.0000 1.0000
53.6200 108.0000 1.0000
53.6400 105.0000 1.0000
53.6600 134.0000 1.0000
53.6800 112.0000 1.0000
53.7000 113.0000 1.0000
53.7200 108.0000 1.0000
53.7400 108.0000 1.0000
53.7600 119.0000 1.0000
53.7800 96.0000 1.0000
53.8000 111.0000 1.0000
53.8200 116.0000 1.0000
53.8400 124.0000 1.0000
53.8600 119.0000 1.0000
53.8800 103.0000 1.0000
53.9000 97.0000 1.0000
53.9200 111.0000 1.0000
53.9400 113.0000 1.0000
53.9600 110.0000 1.0000
53.9800 110.0000 1.0000
54.0000 124.0000 1.0000
54.0200 99.0000 1.0000
54.0400 103.0000 1.0000
54.0600 117.0000 1.0000
54.0800 125.0000 1.0000
54.1000 117.0000 1.0000
54.1200 117.0000 1.0000
54.1400 127.0000 1.0000
54.1600 141.0000 1.0000
54.1800 135.0000 1.0000
54.2000 130.0000 1.0000
54.2200 114.0000 1.0000
54.2400 108.0000 1.0000
54.2600 130.0000 1.0000
54.2800 138.0000 1.0000
54.3000 143.0000 1.0000
54.3200 134.0000 1.0000
54.3400 136.0000 1.0000
54.3600 145.0000 1.0000
54.3800 142.0000 1.0000
54.4000 130.0000 1.0000
54.4200 145.0000 1.0000
54.4400 139.0000 1.0000
54.4600 154.0000 1.0000
54.4800 149.0000 1.0000
54.5000 138.0000 1.0000
54.5200 137.0000 1.0000
54.5400 141.0000 1.0000
54.5600 145.0000 1.0000
54.5800 142.0000 1.0000
54.6000 152.0000 1.0000
54.6200 177.0000 1.0000
54.6400 187.0000 1.0000
54.6600 186.0000 1.0000
54.6800 197.0000 1.0000
54.7000 204.0000 1.0000
54.7200 204.0000 1.0000
54.7400 208.0000 1.0000
54.7600 184.0000 1.0000
54.7800 168.0000 1.0000
54.8000 173.0000 1.0000
54.8200 178.0000 1.0000
54.8400 161.0000 1.0000
54.8600 147.0000 1.0000
54.8800 145.0000 1.0000
54.9000 152.0000 1.0000
54.9200 142.0000 1.0000
54.9400 136.0000 1.0000
54.9600 143.0000 1.0000
54.9800 141.0000 1.0000
55.0000 137.0000 1.0000
55.0200 135.0000 1.0000
55.0400 135.0000 1.0000
55.0600 144.0000 1.0000
55.0800 159.0000 1.0000
55.1000 147.0000 1.0000
55.1200 151.0000 1.0000
55.1400 161.0000 1.0000
55.1600 164.0000 1.0000
55.1800 173.0000 1.0000
55.2000 172.0000 1.0000
55.2200 158.0000 1.0000
55.2400 141.0000 1.0000
55.2600 139.0000 1.0000
55.2800 150.0000 1.0000
55.3000 153.0000 1.0000
55.3200 144.0000 1.0000
55.3400 130.0000 1.0000
55.3600 128.0000 1.0000
55.3800 129.0000 1.0000
55.4000 124.0000 1.0000
55.4200 118.0000 1.0000
55.4400 126.0000 1.0000
55.4600 124.0000 1.0000
55.4800 115.0000 1.0000
55.5000 118.0000 1.0000
55.5200 117.0000 1.0000
55.5400 121.0000 1.0000
55.5600 112.0000 1.0000
55.5800 97.0000 1.0000
55.6000 110.0000 1.0000
55.6200 110.0000 1.0000
55.6400 109.0000 1.0000
55.6600 115.0000 1.0000
55.6800 128.0000 1.0000
55.7000 127.0000 1.0000
55.7200 120.0000 1.0000
55.7400 127.0000 1.0000
55.7600 114.0000 1.0000
55.7800 110.0000 1.0000
55.8000 114.0000 1.0000
55.8200 107.0000 1.0000
55.8400 113.0000 1.0000
55.8600 132.0000 1.0000
55.8800 121.0000 1.0000
55.9000 110.0000 1.0000
55.9200 121.0000 1.0000
55.9400 120.0000 1.0000
55.9600 116.0000 1.0000
55.9800 123.0000 1.0000
56.0000 135.0000 1.0000
56.0200 142.0000 1.0000
56.0400 147.0000 1.0000
56.0600 149.0000 1.0000
56.0800 154.0000 1.0000
56.1000 165.0000 1.0000
56.1200 175.0000 1.0000
56.1400 178.0000 1.0000
56.1600 180.0000 1.0000
56.1800 183.0000 1.0000
56.2000 201.0000 1.0000
56.2200 215.0000 1.0000
56.2400 222.0000 1.0000
56.2600 253.0000 1.0000
56.2800 276.0000 1.0000
56.3000 288.0000 1.0000
56.3200 307.0000 1.0000
56.3400 336.0000 1.0000
56.3600 361.0000 1.0000
56.3800 367.0000 1.0000
56.4000 383.0000 1.0000
56.4200 389.0000 1.0000
56.4400 390.0000 1.0000
56.4600 390.0000 1.0000
56.4800 379.0000 1.0000
56.5000 369.0000 1.0000
56.5200 354.0000 1.0000
56.5400 347.0000 1.0000
56.5600 333.0000 1.0000
56.5800 331.0000 1.0000
56.6000 347.0000 1.0000
56.6200 336.0000 1.0000
56.6400 292.0000 1.0000
56.6600 277.0000 1.0000
56.6800 256.0000 1.0000
56.7000 242.0000 1.0000
56.7200 259.0000 1.0000
56.7400 259.0000 1.0000
56.7600 268.0000 1.0000
56.7800 265.0000 1.0000
56.8000 243.0000 1.0000
56.8200 233.0000 1.0000
56.8400 244.0000 1.0000
56.8600 239.0000 1.0000
56.8800 228.0000 1.0000
56.9000 217.0000 1.0000
56.9200 216.0000 1.0000
56.9400 222.0000 1.0000
56.9600 215.0000 1.0000
56.9800 220.0000 1.0000
57.0000 208.0000 1.0000
57.0200 205.0000 1.0000
57.0400 220.0000 1.0000
57.0600 221.0000 1.0000
57.0800 227.0000 1.0000
57.1000 223.0000 1.0000
57.1200 220.0000 1.0000
57.1400 234.0000 1.0000
57.1600 242.0000 1.0000
57.1800 280.0000 1.0000
57.2000 342.0000 1.0000
57.2200 373.0000 1.0000
57.2400 432.0000 1.0000
57.2600 544.0000 1.0000
57.2800 688.0000 1.0000
57.3000 850.0000 1.0000
57.3200 999.0000 1.0000
57.3400 1107.0000 1.0000
57.3600 1156.0000 1.0000
57.3800 1149.0000 1.0000
57.4000 1045.0000 1.0000
57.4200 893.0000 1.0000
57.4400 787.0000 1.0000
57.4600 772.0000 1.0000
57.4800 771.0000 1.0000
57.5000 697.0000 1.0000
57.5200 662.0000 1.0000
57.5400 631.0000 1.0000
57.5600 541.0000 1.0000
57.5800 415.0000 1.0000
57.6000 333.0000 1.0000
57.6200 272.0000 1.0000
57.6400 245.0000 1.0000
57.6600 207.0000 1.0000
57.6800 183.0000 1.0000
57.7000 178.0000 1.0000
57.7200 135.0000 1.0000
57.7400 142.0000 1.0000
57.7600 145.0000 1.0000
57.7800 123.0000 1.0000
57.8000 137.0000 1.0000
57.8200 130.0000 1.0000
57.8400 151.0000 1.0000
57.8600 153.0000 1.0000
57.8800 126.0000 1.0000
57.9000 132.0000 1.0000
57.9200 135.0000 1.0000
57.9400 144.0000 1.0000
57.9600 121.0000 1.0000
57.9800 147.0000 1.0000
58.0000 146.0000 1.0000
58.0200 131.0000 1.0000
58.0400 125.0000 1.0000
58.0600 123.0000 1.0000
58.0800 123.0000 1.0000
58.1000 127.0000 1.0000
58.1200 122.0000 1.0000
58.1400 110.0000 1.0000
58.1600 116.0000 1.0000
58.1800 112.0000 1.0000
58.2000 106.0000 1.0000
58.2200 119.0000 1.0000
58.2400 124.0000 1.0000
58.2600 121.0000 1.0000
58.2800 97.0000 1.0000
58.3000 88.0000 1.0000
58.3200 113.0000 1.0000
58.3400 108.0000 1.0000
58.3600 92.0000 1.0000
58.3800 103.0000 1.0000
58.4000 105.0000 1.0000
58.4200 105.0000 1.0000
58.4400 100.0000 1.0000
58.4600 93.0000 1.0000
58.4800 103.0000 1.0000
58.5000 107.0000 1.0000
58.5200 122.0000 1.0000
58.5400 111.0000 1.0000
58.5600 100.0000 1.0000
58.5800 109.0000 1.0000
58.6000 127.0000 1.0000
58.6200 124.0000 1.0000
58.6400 135.0000 1.0000
58.6600 129.0000 1.0000
58.6800 139.0000 1.0000
58.7000 142.0000 1.0000
58.7200 127.0000 1.0000
58.7400 120.0000 1.0000
58.7600 129.0000 1.0000
58.7800 129.0000 1.0000
58.8000 143.0000 1.0000
58.8200 129.0000 1.0000
58.8400 135.0000 1.0000
58.8600 142.0000 1.0000
58.8800 125.0000 1.0000
58.9000 135.0000 1.0000
58.9200 133.0000 1.0000
58.9400 147.0000 1.0000
58.9600 134.0000 1.0000
58.9800 163.0000 1.0000
59.0000 132.0000 1.0000
59.0200 129.0000 1.0000
59.0400 140.0000 1.0000
59.0600 113.0000 1.0000
59.0800 116.0000 1.0000
59.1000 136.0000 1.0000
59.1200 130.0000 1.0000
59.1400 128.0000 1.0000
59.1600 125.0000 1.0000
59.1800 124.0000 1.0000
59.2000 127.0000 1.0000
59.2200 137.0000 1.0000
59.2400 125.0000 1.0000
59.2600 138.0000 1.0000
59.2800 118.0000 1.0000
59.3000 128.0000 1.0000
59.3200 154.0000 1.0000
59.3400 136.0000 1.0000
59.3600 148.0000 1.0000
59.3800 135.0000 1.0000
59.4000 130.0000 1.0000
59.4200 149.0000 1.0000
59.4400 133.0000 1.0000
59.4600 149.0000 1.0000
59.4800 124.0000 1.0000
59.5000 169.0000 1.0000
59.5200 162.0000 1.0000
59.5400 158.0000 1.0000
59.5600 154.0000 1.0000
59.5800 176.0000 1.0000
59.6000 162.0000 1.0000
59.6200 169.0000 1.0000
59.6400 151.0000 1.0000
59.6600 188.0000 1.0000
59.6800 185.0000 1.0000
59.7000 195.0000 1.0000
59.7200 205.0000 1.0000
59.7400 226.0000 1.0000
59.7600 250.0000 1.0000
59.7800 268.0000 1.0000
59.8000 282.0000 1.0000
59.8200 310.0000 1.0000
59.8400 287.0000 1.0000
59.8600 264.0000 1.0000
59.8800 265.0000 1.0000
59.9000 257.0000 1.0000
59.9200 258.0000 1.0000
59.9400 247.0000 1.0000
59.9600 228.0000 1.0000
59.9800 245.0000 1.0000
60.0000 264.0000 1.0000
60.0200 214.0000 1.0000
60.0400 211.0000 1.0000
60.0600 224.0000 1.0000
60.0800 183.0000 1.0000
60.1000 204.0000 1.0000
60.1200 205.0000 1.0000
60.1400 198.0000 1.0000
60.1600 189.0000 1.0000
60.1800 194.0000 1.0000
60.2000 201.0000 1.0000
60.2200 204.0000 1.0000
60.2400 208.0000 1.0000
60.2600 190.0000 1.0000
60.2800 167.0000 1.0000
60.3000 202.0000 1.0000
60.3200 187.0000 1.0000
60.3400 195.0000 1.0000
60.3600 210.0000 1.0000
60.3800 192.0000 1.0000
60.4000 205.0000 1.0000
60.4200 214.0000 1.0000
60.4400 189.0000 1.0000
60.4600 182.0000 1.0000
60.4800 205.0000 1.0000
60.5000 199.0000 1.0000
60.5200 198.0000 1.0000
60.5400 188.0000 1.0000
60.5600 183.0000 1.0000
60.5800 198.0000 1.0000
60.6000 204.0000 1.0000
60.6200 202.0000 1.0000
60.6400 191.0000 1.0000
60.6600 195.0000 1.0000
60.6800 166.0000 1.0000
60.7000 146.0000 1.0000
60.7200 177.0000 1.0000
60.7400 177.0000 1.0000
60.7600 166.0000 1.0000
60.7800 192.0000 1.0000
60.8000 204.0000 1.0000
60.8200 161.0000 1.0000
60.8400 210.0000 1.0000
60.8600 180.0000 1.0000
60.8800 160.0000 1.0000
60.9000 167.0000 1.0000
60.9200 174.0000 1.0000
60.9400 164.0000 1.0000
60.9600 185.0000 1.0000
60.9800 201.0000 1.0000
61.0000 208.0000 1.0000
61.0200 191.0000 1.0000
61.0400 212.0000 1.0000
61.0600 205.0000 1.0000
61.0800 207.0000 1.0000
61.1000 219.0000 1.0000
61.1200 229.0000 1.0000
61.1400 261.0000 1.0000
61.1600 271.0000 1.0000
61.1800 252.0000 1.0000
61.2000 220.0000 1.0000
61.2200 236.0000 1.0000
61.2400 239.0000 1.0000
61.2600 209.0000 1.0000
61.2800 200.0000 1.0000
61.3000 226.0000 1.0000
61.3200 211.0000 1.0000
61.3400 261.0000 1.0000
61.3600 213.0000 1.0000
61.3800 238.0000 1.0000
61.4000 230.0000 1.0000
61.4200 224.0000 1.0000
61.4400 221.0000 1.0000
61.4600 223.0000 1.0000
61.4800 223.0000 1.0000
61.5000 222.0000 1.0000
61.5200 222.0000 1.0000
61.5400 175.0000 1.0000
61.5600 228.0000 1.0000
61.5800 218.0000 1.0000
61.6000 211.0000 1.0000
61.6200 218.0000 1.0000
61.6400 186.0000 1.0000
61.6600 211.0000 1.0000
61.6800 204.0000 1.0000
61.7000 210.0000 1.0000
61.7200 199.0000 1.0000
61.7400 203.0000 1.0000
61.7600 212.0000 1.0000
61.7800 218.0000 1.0000
61.8000 224.0000 1.0000
61.8200 223.0000 1.0000
61.8400 224.0000 1.0000
61.8600 230.0000 1.0000
61.8800 217.0000 1.0000
61.9000 226.0000 1.0000
61.9200 239.0000 1.0000
61.9400 258.0000 1.0000
61.9600 229.0000 1.0000
61.9800 241.0000 1.0000
62.0000 272.0000 1.0000
62.0200 229.0000 1.0000
62.0400 262.0000 1.0000
62.0600 272.0000 1.0000
62.0800 256.0000 1.0000
62.1000 252.0000 1.0000
62.1200 255.0000 1.0000
62.1400 305.0000 1.0000
62.1600 286.0000 1.0000
62.1800 262.0000 1.0000
62.2000 253.0000 1.0000
62.2200 253.0000 1.0000
62.2400 282.0000 1.0000
62.2600 290.0000 1.0000
62.2800 248.0000 1.0000
62.3000 279.0000 1.0000
62.3200 266.0000 1.0000
62.3400 224.0000 1.0000
62.3600 238.0000 1.0000
62.3800 208.0000 1.0000
62.4000 205.0000 1.0000
62.4200 230.0000 1.0000
62.4400 220.0000 1.0000
62.4600 201.0000 1.0000
62.4800 202.0000 1.0000
62.5000 188.0000 1.0000
62.5200 196.0000 1.0000
62.5400 197.0000 1.0000
62.5600 176.0000 1.0000
62.5800 153.0000 1.0000
62.6000 170.0000 1.0000
62.6200 174.0000 1.0000
62.6400 177.0000 1.0000
62.6600 158.0000 1.0000
62.6800 162.0000 1.0000
62.7000 201.0000 1.0000
62.7200 146.0000 1.0000
62.7400 155.0000 1.0000
62.7600 168.0000 1.0000
62.7800 156.0000 1.0000
62.8000 160.0000 1.0000
62.8200 158.0000 1.0000
62.8400 159.0000 1.0000
62.8600 166.0000 1.0000
62.8800 147.0000 1.0000
62.9000 127.0000 1.0000
62.9200 133.0000 1.0000
62.9400 143.0000 1.0000
62.9600 139.0000 1.0000
62.9800 151.0000 1.0000
63.0000 138.0000 1.0000
63.0200 133.0000 1.0000
63.0400 137.0000 1.0000
63.0600 141.0000 1.0000
63.0800 144.0000 1.0000
63.1000 146.0000 1.0000
63.1200 145.0000 1.0000
63.1400 128.0000 1.0000
63.1600 128.0000 1.0000
63.1800 148.0000 1.0000
63.2000 135.0000 1.0000
63.2200 129.0000 1.0000
63.2400 139.0000 1.0000
63.2600 122.0000 1.0000
63.2800 126.0000 1.0000
63.3000 143.0000 1.0000
63.3200 123.0000 1.0000
63.3400 118.0000 1.0000
63.3600 107.0000 1.0000
63.3800 118.0000 1.0000
63.4000 121.0000 1.0000
63.4200 127.0000 1.0000
63.4400 130.0000 1.0000
63.4600 126.0000 1.0000
63.4800 119.0000 1.0000
63.5000 105.0000 1.0000
63.5200 118.0000 1.0000
63.5400 123.0000 1.0000
63.5600 116.0000 1.0000
63.5800 124.0000 1.0000
63.6000 107.0000 1.0000
63.6200 115.0000 1.0000
63.6400 124.0000 1.0000
63.6600 110.0000 1.0000
63.6800 134.0000 1.0000
63.7000 146.0000 1.0000
63.7200 146.0000 1.0000
63.7400 126.0000 1.0000
63.7600 153.0000 1.0000
63.7800 150.0000 1.0000
63.8000 167.0000 1.0000
63.8200 154.0000 1.0000
63.8400 159.0000 1.0000
63.8600 166.0000 1.0000
63.8800 147.0000 1.0000
63.9000 171.0000 1.0000
63.9200 154.0000 1.0000
63.9400 157.0000 1.0000
63.9600 130.0000 1.0000
63.9800 151.0000 1.0000
64.0000 156.0000 1.0000
64.0200 153.0000 1.0000
64.0400 141.0000 1.0000
64.0600 139.0000 1.0000
64.0800 137.0000 1.0000
64.1000 139.0000 1.0000
64.1200 152.0000 1.0000
64.1400 140.0000 1.0000
64.1600 132.0000 1.0000
64.1800 126.0000 1.0000
64.2000 115.0000 1.0000
64.2200 134.0000 1.0000
64.2400 116.0000 1.0000
64.2600 134.0000 1.0000
64.2800 110.0000 1.0000
64.3000 108.0000 1.0000
64.3200 113.0000 1.0000
64.3400 121.0000 1.0000
64.3600 133.0000 1.0000
64.3800 109.0000 1.0000
64.4000 98.0000 1.0000
64.4200 103.0000 1.0000
64.4400 115.0000 1.0000
64.4600 100.0000 1.0000
64.4800 113.0000 1.0000
64.5000 118.0000 1.0000
64.5200 103.0000 1.0000
64.5400 102.0000 1.0000
64.5600 107.0000 1.0000
64.5800 110.0000 1.0000
64.6000 95.0000 1.0000
64.6200 115.0000 1.0000
64.6400 116.0000 1.0000
64.6600 109.0000 1.0000
64.6800 128.0000 1.0000
64.7000 122.0000 1.0000
64.7200 116.0000 1.0000
64.7400 97.0000 1.0000
64.7600 102.0000 1.0000
64.7800 110.0000 1.0000
64.8000 126.0000 1.0000
64.8200 110.0000 1.0000
64.8400 131.0000 1.0000
64.8600 119.0000 1.0000
64.8800 106.0000 1.0000
64.9000 122.0000 1.0000
64.9200 121.0000 1.0000
64.9400 115.0000 1.0000
64.9600 114.0000 1.0000
64.9800 114.0000 1.0000
65.0000 114.0000 1.0000
*RAS_INT_END
*RAS_DATA_END
