*RAS_DATA_START
*RAS_HEADER_START
*CORR_POS_DB_NAME "Angle Correction ASC6 SC WITH Mono_04082019"
*CORR_POS_GONIO_RADIUS ""
*CORR_POS_NODE_INDEX01 ""
*CORR_POS_NODE_INDEX02 ""
*CORR_POS_NODE_INDEX03 ""
*CORR_POS_NODE_INDEX04 ""
*CORR_POS_NODE_INDEX05 ""
*CORR_POS_NODE_INDEX06 ""
*CORR_POS_NODE_INDEX07 ""
*CORR_POS_NODE_INDEX08 ""
*CORR_POS_NODE_INDEX09 ""
*CORR_POS_NODE_INDEX10 ""
*CORR_POS_NODE_INDEX11 ""
*CORR_POS_NODE_LABEL01 "Si(111)"
*CORR_POS_NODE_LABEL02 "Si(220)"
*CORR_POS_NODE_LABEL03 "Si(311)"
*CORR_POS_NODE_LABEL04 "Si(400)"
*CORR_POS_NODE_LABEL05 "Si(331)"
*CORR_POS_NODE_LABEL06 "Si(422)"
*CORR_POS_NODE_LABEL07 "Si(511)"
*CORR_POS_NODE_LABEL08 "Si(440)"
*CORR_POS_NODE_LABEL09 "Si(531)"
*CORR_POS_NODE_LABEL10 "Si(620)"
*CORR_POS_NODE_LABEL11 "Si(533)"
*CORR_POS_NODE_POS_CALC01 "28.377"
*CORR_POS_NODE_POS_CALC02 "47.2506"
*CORR_POS_NODE_POS_CALC03 "56.0725"
*CORR_POS_NODE_POS_CALC04 "69.0822"
*CORR_POS_NODE_POS_CALC05 "76.3294"
*CORR_POS_NODE_POS_CALC06 "87.9853"
*CORR_POS_NODE_POS_CALC07 "94.9091"
*CORR_POS_NODE_POS_CALC08 "106.668"
*CORR_POS_NODE_POS_CALC09 "114.054"
*CORR_POS_NODE_POS_CALC10 "127.511"
*CORR_POS_NODE_POS_CALC11 "136.864"
*CORR_POS_NODE_POS_MEAS01 "28.5058"
*CORR_POS_NODE_POS_MEAS02 "47.345"
*CORR_POS_NODE_POS_MEAS03 "56.1421"
*CORR_POS_NODE_POS_MEAS04 "69.1304"
*CORR_POS_NODE_POS_MEAS05 "76.366"
*CORR_POS_NODE_POS_MEAS06 "88.0213"
*CORR_POS_NODE_POS_MEAS07 "94.9406"
*CORR_POS_NODE_POS_MEAS08 "106.689"
*CORR_POS_NODE_POS_MEAS09 "114.065"
*CORR_POS_NODE_POS_MEAS10 "127.518"
*CORR_POS_NODE_POS_MEAS11 "136.869"
*CORR_POS_OPT_ATTR "集中法"
*CORR_POS_PARAM_MU ""
*CORR_POS_PARAM_PL ""
*CORR_POS_SEMODEL_TYPE "0"
*CORR_POS_STANDARD_TYPE ""
*CORR_POS_VALUE_ANALYZER "None"
*CORR_POS_VALUE_CMONO "None"
*CORR_POS_VALUE_IMONO "None"
*CORR_POS_VALUE_IS "1.250deg"
*CORR_POS_VALUE_ISL "10.0mm"
*CORR_POS_VALUE_ISOLLER "5.0deg"
*CORR_POS_VALUE_RS1 "1.250deg"
*CORR_POS_VALUE_RS2 "0.3mm"
*CORR_POS_VALUE_RSOLLER "5.0deg"
*CORR_POS_XG_FOCUS_L ""
*CORR_POS_XG_WAVE_TYPE ""
*CORR_POS_XG_WAVE_VALUE ""
*DISP_FMT_X "%.2f"
*DISP_FMT_Y "%.0f"
*DISP_FULLSCALE "1039.2000000000"
*DISP_LINE_COLOR "255.0000000000"
*DISP_LINE_STYLE "0.0000000000"
*DISP_LINE_WIDTH "0.2500000000"
*DISP_NOTE "Collected Data-20"
*DISP_OFFSET_Y "0.0000000000"
*DISP_PEAKSEARCH_UNIT_Y "CPS"
*DISP_RANGE_BOTTOM "0.0000000000"
*DISP_RANGE_LEFT "5.0000000000"
*DISP_RANGE_LOGCUTOFF "0.0100000000"
*DISP_RANGE_RIGHT "65.0000000000"
*DISP_RANGE_TOP "1039.2000000000"
*DISP_SCALE_MODE_Y "0.0000000000"
*DISP_TAB_NAME "Theta/2-Theta"
*DISP_TITLE_Y "Intensity"
*DISP_UNIT_Y "CPS"
*DISP_WINDOW_NAME "MSG_MACROENGINE"
*FILE_COMMENT " "
*FILE_MD5 ""
*FILE_MEMO " "
*FILE_OPERATOR "Administrator"
*FILE_PART_ID "MEAS_PBEA_00223"
*FILE_SAMPLE " "
*FILE_TYPE "RAS_RAW"
*FILE_USERGROUP "System Manager"
*FILE_VERSION "1.0000000000"
*HW_ATTACHMENT_ID "ATT1031"
*HW_ATTACHMENT_NAME "6サンプルチェンジャ|ASC-6"
*HW_COUNTER_ID-0 "CUT0021"
*HW_COUNTER_ID-1 "CUT0020"
*HW_COUNTER_ID-2 "CUT0020"
*HW_COUNTER_ID-3 "CMC0021"
*HW_COUNTER_NAME-0 "SC-70|SC-70"
*HW_COUNTER_NAME-1 "None|None"
*HW_COUNTER_NAME-2 "None|None"
*HW_COUNTER_NAME-3 "検出器モノクロメータ|Detector monochromator"
*HW_COUNTER_SELECT_NAME "SC-70|SC-70"
*HW_ECP_HV "671.5000000000"
*HW_ECP_HV_UNIT "V"
*HW_GONIOMETER_ID "GON0070"
*HW_GONIOMETER_NAME "MiniFlex 300/600|MiniFlex 300/600"
*HW_GONIOMETER_RADIUS-0 "79.0"
*HW_GONIOMETER_RADIUS-1 "91.5"
*HW_GONIOMETER_RADIUS-2 "150.0"
*HW_GONIOMETER_RADIUS-3 "0"
*HW_GONIOMETER_RADIUS-4 "103.4"
*HW_GONIOMETER_RADIUS-5 "150.0"
*HW_GONIOMETER_RADIUS-6 "46.6"
*HW_GONIOMETER_RADIUS-7 "160.0"
*HW_I_OPT_ID-0 "ISL0021"
*HW_I_OPT_ID-1 "ISO0021"
*HW_I_OPT_NAME-0 "発散スリット|Divergence slit"
*HW_I_OPT_NAME-1 "入射平行スリット|Incident parallel slit"
*HW_R_ATTENUATER_AUTOMODE "0"
*HW_R_OPT_ID-0 "RSS0021"
*HW_R_OPT_ID-1 "RSO0021"
*HW_R_OPT_ID-2 "RRS0021"
*HW_R_OPT_NAME-0 "散乱スリット|Scattering slit"
*HW_R_OPT_NAME-1 "受光平行スリット|Receiving soller slit"
*HW_R_OPT_NAME-2 "受光スリット|Receiving slit"
*HW_SAMPLE_HOLDER_ID "SMP0000"
*HW_SAMPLE_HOLDER_NAME "無し|None"
*HW_XG_CURRENT_MAX "15"
*HW_XG_CURRENT_MIN "2"
*HW_XG_CURRENT_RESOLUTION "1"
*HW_XG_CURRENT_UNIT "mA"
*HW_XG_FOCUS "1mm x 10mm"
*HW_XG_FOCUS_TYPE "Normal"
*HW_XG_ID "1060"
*HW_XG_NAME "300W/600W 封入管-B|300W/600W Sealed tube-B"
*HW_XG_TARGET_ATOMIC_NUMBER "29.0000000000"
*HW_XG_TARGET_NAME "Cu"
*HW_XG_TYPE "Hermetic"
*HW_XG_VOLTAGE_MAX "40"
*HW_XG_VOLTAGE_MIN "20"
*HW_XG_VOLTAGE_RESOLUTION "1"
*HW_XG_VOLTAGE_UNIT "kV"
*HW_XG_WATT_MAX "0.600"
*HW_XG_WATT_UNIT "kW"
*HW_XG_WAVE_LENGTH_ALPHA1 "1.540593"
*HW_XG_WAVE_LENGTH_ALPHA2 "1.544414"
*HW_XG_WAVE_LENGTH_BETA "1.392250"
*MEAS_COND_AXIS_NAME-0 "Theta/2-Theta"
*MEAS_COND_AXIS_NAME-1 "Spin"
*MEAS_COND_AXIS_NAME-2 "Change"
*MEAS_COND_AXIS_NAME-3 "Soller(inc.)"
*MEAS_COND_AXIS_NAME-4 "IHS"
*MEAS_COND_AXIS_NAME-5 "DS"
*MEAS_COND_AXIS_NAME-6 "SS"
*MEAS_COND_AXIS_NAME-7 "Soller(rec.)"
*MEAS_COND_AXIS_NAME-8 "RS"
*MEAS_COND_AXIS_NAME-9 "Filter"
*MEAS_COND_AXIS_NAME-10 "Monochromator"
*MEAS_COND_AXIS_NAME-11 "HV"
*MEAS_COND_AXIS_NAME-12 "PHA"
*MEAS_COND_AXIS_NAME_INTERNAL-0 "TwoThetaTheta"
*MEAS_COND_AXIS_NAME_INTERNAL-1 "Spin"
*MEAS_COND_AXIS_NAME_INTERNAL-2 "Change"
*MEAS_COND_AXIS_NAME_INTERNAL-3 "IncidentSollerSlit"
*MEAS_COND_AXIS_NAME_INTERNAL-4 "IncidentAxdSlit"
*MEAS_COND_AXIS_NAME_INTERNAL-5 "IncidentSlitBox"
*MEAS_COND_AXIS_NAME_INTERNAL-6 "ReceivingSlitBox1"
*MEAS_COND_AXIS_NAME_INTERNAL-7 "ReceivingSollerSlit"
*MEAS_COND_AXIS_NAME_INTERNAL-8 "ReceivingSlitBox2"
*MEAS_COND_AXIS_NAME_INTERNAL-9 "Filter"
*MEAS_COND_AXIS_NAME_INTERNAL-10 "CounterMonochromator"
*MEAS_COND_AXIS_NAME_INTERNAL-11 "HV"
*MEAS_COND_AXIS_NAME_INTERNAL-12 "PHA"
*MEAS_COND_AXIS_NAME_MAGICNO-0 "268632064.0000000000"
*MEAS_COND_AXIS_NAME_MAGICNO-1 "16842752.0000000000"
*MEAS_COND_AXIS_NAME_MAGICNO-2 "16842752.0000000000"
*MEAS_COND_AXIS_NAME_MAGICNO-3 "20971521.0000000000"
*MEAS_COND_AXIS_NAME_MAGICNO-4 "22020097.0000000000"
*MEAS_COND_AXIS_NAME_MAGICNO-5 "22020097.0000000000"
*MEAS_COND_AXIS_NAME_MAGICNO-6 "23068673.0000000000"
*MEAS_COND_AXIS_NAME_MAGICNO-7 "20971521.0000000000"
*MEAS_COND_AXIS_NAME_MAGICNO-8 "23068673.0000000000"
*MEAS_COND_AXIS_NAME_MAGICNO-9 "20971521.0000000000"
*MEAS_COND_AXIS_NAME_MAGICNO-10 "20971521.0000000000"
*MEAS_COND_AXIS_NAME_MAGICNO-11 "0.0000000000"
*MEAS_COND_AXIS_NAME_MAGICNO-12 "0.0000000000"
*MEAS_COND_AXIS_OFFSET-0 "0.0000000000"
*MEAS_COND_AXIS_OFFSET-1 "-"
*MEAS_COND_AXIS_OFFSET-2 "-"
*MEAS_COND_AXIS_OFFSET-3 "-"
*MEAS_COND_AXIS_OFFSET-4 "-"
*MEAS_COND_AXIS_OFFSET-5 "-"
*MEAS_COND_AXIS_OFFSET-6 "-"
*MEAS_COND_AXIS_OFFSET-7 "-"
*MEAS_COND_AXIS_OFFSET-8 "-"
*MEAS_COND_AXIS_OFFSET-9 "-"
*MEAS_COND_AXIS_OFFSET-10 "-"
*MEAS_COND_AXIS_OFFSET-11 "-"
*MEAS_COND_AXIS_OFFSET-12 "-"
*MEAS_COND_AXIS_POSITION-0 "65.0000000000"
*MEAS_COND_AXIS_POSITION-1 "0.0000000000"
*MEAS_COND_AXIS_POSITION-2 "2.0000000000"
*MEAS_COND_AXIS_POSITION-3 "5.0deg"
*MEAS_COND_AXIS_POSITION-4 "10.0mm"
*MEAS_COND_AXIS_POSITION-5 "1.250deg"
*MEAS_COND_AXIS_POSITION-6 "1.250deg"
*MEAS_COND_AXIS_POSITION-7 "5.0deg"
*MEAS_COND_AXIS_POSITION-8 "0.3mm"
*MEAS_COND_AXIS_POSITION-9 "None"
*MEAS_COND_AXIS_POSITION-10 "Bent"
*MEAS_COND_AXIS_POSITION-11 "671.5000000000"
*MEAS_COND_AXIS_POSITION-12 "551.2500000000"
*MEAS_COND_AXIS_UNIT-0 "deg"
*MEAS_COND_AXIS_UNIT-1 ""
*MEAS_COND_AXIS_UNIT-2 ""
*MEAS_COND_AXIS_UNIT-3 ""
*MEAS_COND_AXIS_UNIT-4 ""
*MEAS_COND_AXIS_UNIT-5 ""
*MEAS_COND_AXIS_UNIT-6 ""
*MEAS_COND_AXIS_UNIT-7 ""
*MEAS_COND_AXIS_UNIT-8 ""
*MEAS_COND_AXIS_UNIT-9 ""
*MEAS_COND_AXIS_UNIT-10 ""
*MEAS_COND_AXIS_UNIT-11 "V"
*MEAS_COND_AXIS_UNIT-12 "mV"
*MEAS_COND_CORRECTION_SLIT_COUNTERMONO "None"
*MEAS_COND_CORRECTION_SLIT_DS "1.250deg"
*MEAS_COND_CORRECTION_SLIT_FILTER "None"
*MEAS_COND_CORRECTION_SLIT_IHS "10.0mm"
*MEAS_COND_CORRECTION_SLIT_RS "0.3mm"
*MEAS_COND_CORRECTION_SLIT_SOLLER_INC "5.0deg"
*MEAS_COND_CORRECTION_SLIT_SOLLER_REC "5.0deg"
*MEAS_COND_CORRECTION_SLIT_SS "1.250deg"
*MEAS_COND_COUNTER_CNTLOSS_CORR "0.0000000000"
*MEAS_COND_COUNTER_PHABASE "551.2500000000"
*MEAS_COND_COUNTER_PHAWINDOW "926.2500000000"
*MEAS_COND_COUNTER_PHA_UNIT "mV"
*MEAS_COND_COUNTER_TAUDIFF "0.2500000000"
*MEAS_COND_COUNTER_TAUINT "0.7500000000"
*MEAS_COND_IRRADIATION_MODE "OFF"
*MEAS_COND_IRRADIATION_WIDTH ""
*MEAS_COND_OPT_ATTR " "
*MEAS_COND_OPT_NAME ""
*MEAS_COND_UNSYMMETRIC_MODE "OFF"
*MEAS_COND_XG_CURRENT "15.0000000000"
*MEAS_COND_XG_VOLTAGE "40.0000000000"
*MEAS_COND_XG_WAVE_TYPE "Ka"
*MEAS_DATA_COUNT "3001.0000000000"
*MEAS_SCAN_AXIS_X "Theta/2-Theta"
*MEAS_SCAN_AXIS_X_INTERNAL "TwoThetaTheta"
*MEAS_SCAN_END_TIME "08/04/25 21:32:38"
*MEAS_SCAN_MODE "STEP"
*MEAS_SCAN_MONITOR "0"
*MEAS_SCAN_RESOLUTION_X "0.0025"
*MEAS_SCAN_SPEED "2.00"
*MEAS_SCAN_SPEED_UNIT "sec."
*MEAS_SCAN_SPEED_USER "2.00"
*MEAS_SCAN_START "5.0000000000"
*MEAS_SCAN_START_TIME "08/04/25 19:47:21"
*MEAS_SCAN_STEP "0.0200000000"
*MEAS_SCAN_STOP "65.0000000000"
*MEAS_SCAN_UNIT_X "deg"
*MEAS_SCAN_UNIT_Y "counts"
*SLIT_SYSTEM "0"
*RAS_HEADER_END
*RAS_INT_START
5.0000 926.0000 1.0000
5.0200 1030.0000 1.0000
5.0400 945.0000 1.0000
5.0600 985.0000 1.0000
5.0800 981.0000 1.0000
5.1000 978.0000 1.0000
5.1200 941.0000 1.0000
5.1400 999.0000 1.0000
5.1600 948.0000 1.0000
5.1800 970.0000 1.0000
5.2000 1009.0000 1.0000
5.2200 1102.0000 1.0000
5.2400 1016.0000 1.0000
5.2600 966.0000 1.0000
5.2800 948.0000 1.0000
5.3000 937.0000 1.0000
5.3200 1050.0000 1.0000
5.3400 1007.0000 1.0000
5.3600 878.0000 1.0000
5.3800 861.0000 1.0000
5.4000 899.0000 1.0000
5.4200 885.0000 1.0000
5.4400 886.0000 1.0000
5.4600 941.0000 1.0000
5.4800 1005.0000 1.0000
5.5000 991.0000 1.0000
5.5200 998.0000 1.0000
5.5400 944.0000 1.0000
5.5600 961.0000 1.0000
5.5800 960.0000 1.0000
5.6000 917.0000 1.0000
5.6200 954.0000 1.0000
5.6400 970.0000 1.0000
5.6600 977.0000 1.0000
5.6800 960.0000 1.0000
5.7000 950.0000 1.0000
5.7200 881.0000 1.0000
5.7400 940.0000 1.0000
5.7600 956.0000 1.0000
5.7800 1047.0000 1.0000
5.8000 1046.0000 1.0000
5.8200 1043.0000 1.0000
5.8400 969.0000 1.0000
5.8600 962.0000 1.0000
5.8800 1004.0000 1.0000
5.9000 1010.0000 1.0000
5.9200 1028.0000 1.0000
5.9400 981.0000 1.0000
5.9600 965.0000 1.0000
5.9800 999.0000 1.0000
6.0000 1055.0000 1.0000
6.0200 1005.0000 1.0000
6.0400 915.0000 1.0000
6.0600 955.0000 1.0000
6.0800 1026.0000 1.0000
6.1000 974.0000 1.0000
6.1200 952.0000 1.0000
6.1400 937.0000 1.0000
6.1600 903.0000 1.0000
6.1800 907.0000 1.0000
6.2000 949.0000 1.0000
6.2200 934.0000 1.0000
6.2400 847.0000 1.0000
6.2600 823.0000 1.0000
6.2800 827.0000 1.0000
6.3000 774.0000 1.0000
6.3200 754.0000 1.0000
6.3400 792.0000 1.0000
6.3600 831.0000 1.0000
6.3800 764.0000 1.0000
6.4000 735.0000 1.0000
6.4200 716.0000 1.0000
6.4400 780.0000 1.0000
6.4600 755.0000 1.0000
6.4800 735.0000 1.0000
6.5000 787.0000 1.0000
6.5200 756.0000 1.0000
6.5400 748.0000 1.0000
6.5600 732.0000 1.0000
6.5800 656.0000 1.0000
6.6000 657.0000 1.0000
6.6200 694.0000 1.0000
6.6400 714.0000 1.0000
6.6600 662.0000 1.0000
6.6800 671.0000 1.0000
6.7000 714.0000 1.0000
6.7200 695.0000 1.0000
6.7400 640.0000 1.0000
6.7600 624.0000 1.0000
6.7800 628.0000 1.0000
6.8000 588.0000 1.0000
6.8200 581.0000 1.0000
6.8400 612.0000 1.0000
6.8600 588.0000 1.0000
6.8800 633.0000 1.0000
6.9000 606.0000 1.0000
6.9200 572.0000 1.0000
6.9400 579.0000 1.0000
6.9600 558.0000 1.0000
6.9800 578.0000 1.0000
7.0000 544.0000 1.0000
7.0200 508.0000 1.0000
7.0400 531.0000 1.0000
7.0600 587.0000 1.0000
7.0800 575.0000 1.0000
7.1000 489.0000 1.0000
7.1200 485.0000 1.0000
7.1400 526.0000 1.0000
7.1600 545.0000 1.0000
7.1800 549.0000 1.0000
7.2000 542.0000 1.0000
7.2200 541.0000 1.0000
7.2400 495.0000 1.0000
7.2600 484.0000 1.0000
7.2800 523.0000 1.0000
7.3000 527.0000 1.0000
7.3200 498.0000 1.0000
7.3400 519.0000 1.0000
7.3600 528.0000 1.0000
7.3800 489.0000 1.0000
7.4000 495.0000 1.0000
7.4200 501.0000 1.0000
7.4400 477.0000 1.0000
7.4600 473.0000 1.0000
7.4800 499.0000 1.0000
7.5000 463.0000 1.0000
7.5200 457.0000 1.0000
7.5400 463.0000 1.0000
7.5600 455.0000 1.0000
7.5800 483.0000 1.0000
7.6000 462.0000 1.0000
7.6200 446.0000 1.0000
7.6400 435.0000 1.0000
7.6600 439.0000 1.0000
7.6800 457.0000 1.0000
7.7000 461.0000 1.0000
7.7200 448.0000 1.0000
7.7400 410.0000 1.0000
7.7600 380.0000 1.0000
7.7800 387.0000 1.0000
7.8000 400.0000 1.0000
7.8200 437.0000 1.0000
7.8400 388.0000 1.0000
7.8600 376.0000 1.0000
7.8800 405.0000 1.0000
7.9000 402.0000 1.0000
7.9200 377.0000 1.0000
7.9400 386.0000 1.0000
7.9600 401.0000 1.0000
7.9800 398.0000 1.0000
8.0000 402.0000 1.0000
8.0200 401.0000 1.0000
8.0400 397.0000 1.0000
8.0600 378.0000 1.0000
8.0800 382.0000 1.0000
8.1000 397.0000 1.0000
8.1200 396.0000 1.0000
8.1400 356.0000 1.0000
8.1600 375.0000 1.0000
8.1800 356.0000 1.0000
8.2000 346.0000 1.0000
8.2200 352.0000 1.0000
8.2400 358.0000 1.0000
8.2600 360.0000 1.0000
8.2800 393.0000 1.0000
8.3000 385.0000 1.0000
8.3200 382.0000 1.0000
8.3400 399.0000 1.0000
8.3600 405.0000 1.0000
8.3800 395.0000 1.0000
8.4000 409.0000 1.0000
8.4200 397.0000 1.0000
8.4400 372.0000 1.0000
8.4600 362.0000 1.0000
8.4800 335.0000 1.0000
8.5000 352.0000 1.0000
8.5200 349.0000 1.0000
8.5400 372.0000 1.0000
8.5600 349.0000 1.0000
8.5800 368.0000 1.0000
8.6000 350.0000 1.0000
8.6200 379.0000 1.0000
8.6400 365.0000 1.0000
8.6600 354.0000 1.0000
8.6800 349.0000 1.0000
8.7000 369.0000 1.0000
8.7200 364.0000 1.0000
8.7400 348.0000 1.0000
8.7600 356.0000 1.0000
8.7800 345.0000 1.0000
8.8000 329.0000 1.0000
8.8200 343.0000 1.0000
8.8400 332.0000 1.0000
8.8600 304.0000 1.0000
8.8800 311.0000 1.0000
8.9000 330.0000 1.0000
8.9200 362.0000 1.0000
8.9400 339.0000 1.0000
8.9600 384.0000 1.0000
8.9800 352.0000 1.0000
9.0000 311.0000 1.0000
9.0200 350.0000 1.0000
9.0400 335.0000 1.0000
9.0600 330.0000 1.0000
9.0800 362.0000 1.0000
9.1000 368.0000 1.0000
9.1200 385.0000 1.0000
9.1400 341.0000 1.0000
9.1600 390.0000 1.0000
9.1800 383.0000 1.0000
9.2000 370.0000 1.0000
9.2200 375.0000 1.0000
9.2400 392.0000 1.0000
9.2600 301.0000 1.0000
9.2800 298.0000 1.0000
9.3000 350.0000 1.0000
9.3200 365.0000 1.0000
9.3400 366.0000 1.0000
9.3600 349.0000 1.0000
9.3800 349.0000 1.0000
9.4000 328.0000 1.0000
9.4200 313.0000 1.0000
9.4400 319.0000 1.0000
9.4600 336.0000 1.0000
9.4800 355.0000 1.0000
9.5000 354.0000 1.0000
9.5200 367.0000 1.0000
9.5400 302.0000 1.0000
9.5600 313.0000 1.0000
9.5800 332.0000 1.0000
9.6000 317.0000 1.0000
9.6200 264.0000 1.0000
9.6400 248.0000 1.0000
9.6600 252.0000 1.0000
9.6800 278.0000 1.0000
9.7000 272.0000 1.0000
9.7200 252.0000 1.0000
9.7400 249.0000 1.0000
9.7600 262.0000 1.0000
9.7800 241.0000 1.0000
9.8000 236.0000 1.0000
9.8200 257.0000 1.0000
9.8400 251.0000 1.0000
9.8600 243.0000 1.0000
9.8800 240.0000 1.0000
9.9000 266.0000 1.0000
9.9200 271.0000 1.0000
9.9400 235.0000 1.0000
9.9600 261.0000 1.0000
9.9800 249.0000 1.0000
10.0000 245.0000 1.0000
10.0200 235.0000 1.0000
10.0400 231.0000 1.0000
10.0600 253.0000 1.0000
10.0800 206.0000 1.0000
10.1000 244.0000 1.0000
10.1200 236.0000 1.0000
10.1400 234.0000 1.0000
10.1600 241.0000 1.0000
10.1800 235.0000 1.0000
10.2000 247.0000 1.0000
10.2200 218.0000 1.0000
10.2400 230.0000 1.0000
10.2600 199.0000 1.0000
10.2800 225.0000 1.0000
10.3000 205.0000 1.0000
10.3200 203.0000 1.0000
10.3400 202.0000 1.0000
10.3600 224.0000 1.0000
10.3800 209.0000 1.0000
10.4000 210.0000 1.0000
10.4200 226.0000 1.0000
10.4400 224.0000 1.0000
10.4600 186.0000 1.0000
10.4800 239.0000 1.0000
10.5000 223.0000 1.0000
10.5200 227.0000 1.0000
10.5400 236.0000 1.0000
10.5600 220.0000 1.0000
10.5800 198.0000 1.0000
10.6000 242.0000 1.0000
10.6200 232.0000 1.0000
10.6400 209.0000 1.0000
10.6600 214.0000 1.0000
10.6800 228.0000 1.0000
10.7000 225.0000 1.0000
10.7200 176.0000 1.0000
10.7400 190.0000 1.0000
10.7600 189.0000 1.0000
10.7800 220.0000 1.0000
10.8000 201.0000 1.0000
10.8200 211.0000 1.0000
10.8400 205.0000 1.0000
10.8600 189.0000 1.0000
10.8800 218.0000 1.0000
10.9000 208.0000 1.0000
10.9200 212.0000 1.0000
10.9400 203.0000 1.0000
10.9600 196.0000 1.0000
10.9800 186.0000 1.0000
11.0000 185.0000 1.0000
11.0200 215.0000 1.0000
11.0400 193.0000 1.0000
11.0600 193.0000 1.0000
11.0800 214.0000 1.0000
11.1000 199.0000 1.0000
11.1200 214.0000 1.0000
11.1400 181.0000 1.0000
11.1600 230.0000 1.0000
11.1800 197.0000 1.0000
11.2000 209.0000 1.0000
11.2200 208.0000 1.0000
11.2400 205.0000 1.0000
11.2600 171.0000 1.0000
11.2800 201.0000 1.0000
11.3000 218.0000 1.0000
11.3200 221.0000 1.0000
11.3400 198.0000 1.0000
11.3600 212.0000 1.0000
11.3800 202.0000 1.0000
11.4000 172.0000 1.0000
11.4200 170.0000 1.0000
11.4400 173.0000 1.0000
11.4600 189.0000 1.0000
11.4800 168.0000 1.0000
11.5000 176.0000 1.0000
11.5200 148.0000 1.0000
11.5400 180.0000 1.0000
11.5600 168.0000 1.0000
11.5800 163.0000 1.0000
11.6000 164.0000 1.0000
11.6200 188.0000 1.0000
11.6400 183.0000 1.0000
11.6600 220.0000 1.0000
11.6800 195.0000 1.0000
11.7000 208.0000 1.0000
11.7200 199.0000 1.0000
11.7400 182.0000 1.0000
11.7600 183.0000 1.0000
11.7800 167.0000 1.0000
11.8000 209.0000 1.0000
11.8200 161.0000 1.0000
11.8400 163.0000 1.0000
11.8600 194.0000 1.0000
11.8800 190.0000 1.0000
11.9000 171.0000 1.0000
11.9200 158.0000 1.0000
11.9400 174.0000 1.0000
11.9600 167.0000 1.0000
11.9800 195.0000 1.0000
12.0000 176.0000 1.0000
12.0200 180.0000 1.0000
12.0400 186.0000 1.0000
12.0600 191.0000 1.0000
12.0800 173.0000 1.0000
12.1000 159.0000 1.0000
12.1200 181.0000 1.0000
12.1400 199.0000 1.0000
12.1600 181.0000 1.0000
12.1800 178.0000 1.0000
12.2000 155.0000 1.0000
12.2200 170.0000 1.0000
12.2400 154.0000 1.0000
12.2600 174.0000 1.0000
12.2800 183.0000 1.0000
12.3000 186.0000 1.0000
12.3200 187.0000 1.0000
12.3400 165.0000 1.0000
12.3600 176.0000 1.0000
12.3800 159.0000 1.0000
12.4000 154.0000 1.0000
12.4200 146.0000 1.0000
12.4400 171.0000 1.0000
12.4600 185.0000 1.0000
12.4800 165.0000 1.0000
12.5000 154.0000 1.0000
12.5200 166.0000 1.0000
12.5400 164.0000 1.0000
12.5600 189.0000 1.0000
12.5800 164.0000 1.0000
12.6000 166.0000 1.0000
12.6200 151.0000 1.0000
12.6400 179.0000 1.0000
12.6600 163.0000 1.0000
12.6800 155.0000 1.0000
12.7000 152.0000 1.0000
12.7200 163.0000 1.0000
12.7400 162.0000 1.0000
12.7600 138.0000 1.0000
12.7800 151.0000 1.0000
12.8000 152.0000 1.0000
12.8200 144.0000 1.0000
12.8400 143.0000 1.0000
12.8600 137.0000 1.0000
12.8800 154.0000 1.0000
12.9000 170.0000 1.0000
12.9200 155.0000 1.0000
12.9400 159.0000 1.0000
12.9600 156.0000 1.0000
12.9800 124.0000 1.0000
13.0000 154.0000 1.0000
13.0200 162.0000 1.0000
13.0400 156.0000 1.0000
13.0600 170.0000 1.0000
13.0800 180.0000 1.0000
13.1000 179.0000 1.0000
13.1200 167.0000 1.0000
13.1400 182.0000 1.0000
13.1600 196.0000 1.0000
13.1800 187.0000 1.0000
13.2000 197.0000 1.0000
13.2200 187.0000 1.0000
13.2400 171.0000 1.0000
13.2600 175.0000 1.0000
13.2800 180.0000 1.0000
13.3000 221.0000 1.0000
13.3200 192.0000 1.0000
13.3400 210.0000 1.0000
13.3600 213.0000 1.0000
13.3800 234.0000 1.0000
13.4000 275.0000 1.0000
13.4200 252.0000 1.0000
13.4400 244.0000 1.0000
13.4600 240.0000 1.0000
13.4800 262.0000 1.0000
13.5000 245.0000 1.0000
13.5200 212.0000 1.0000
13.5400 196.0000 1.0000
13.5600 172.0000 1.0000
13.5800 182.0000 1.0000
13.6000 179.0000 1.0000
13.6200 168.0000 1.0000
13.6400 181.0000 1.0000
13.6600 178.0000 1.0000
13.6800 167.0000 1.0000
13.7000 165.0000 1.0000
13.7200 173.0000 1.0000
13.7400 158.0000 1.0000
13.7600 151.0000 1.0000
13.7800 153.0000 1.0000
13.8000 161.0000 1.0000
13.8200 153.0000 1.0000
13.8400 138.0000 1.0000
13.8600 136.0000 1.0000
13.8800 124.0000 1.0000
13.9000 121.0000 1.0000
13.9200 132.0000 1.0000
13.9400 142.0000 1.0000
13.9600 156.0000 1.0000
13.9800 143.0000 1.0000
14.0000 138.0000 1.0000
14.0200 127.0000 1.0000
14.0400 131.0000 1.0000
14.0600 137.0000 1.0000
14.0800 146.0000 1.0000
14.1000 137.0000 1.0000
14.1200 115.0000 1.0000
14.1400 126.0000 1.0000
14.1600 137.0000 1.0000
14.1800 129.0000 1.0000
14.2000 125.0000 1.0000
14.2200 140.0000 1.0000
14.2400 138.0000 1.0000
14.2600 122.0000 1.0000
14.2800 118.0000 1.0000
14.3000 135.0000 1.0000
14.3200 140.0000 1.0000
14.3400 131.0000 1.0000
14.3600 130.0000 1.0000
14.3800 126.0000 1.0000
14.4000 129.0000 1.0000
14.4200 132.0000 1.0000
14.4400 136.0000 1.0000
14.4600 141.0000 1.0000
14.4800 115.0000 1.0000
14.5000 124.0000 1.0000
14.5200 143.0000 1.0000
14.5400 129.0000 1.0000
14.5600 138.0000 1.0000
14.5800 136.0000 1.0000
14.6000 121.0000 1.0000
14.6200 113.0000 1.0000
14.6400 121.0000 1.0000
14.6600 126.0000 1.0000
14.6800 143.0000 1.0000
14.7000 138.0000 1.0000
14.7200 121.0000 1.0000
14.7400 123.0000 1.0000
14.7600 138.0000 1.0000
14.7800 148.0000 1.0000
14.8000 162.0000 1.0000
14.8200 159.0000 1.0000
14.8400 139.0000 1.0000
14.8600 126.0000 1.0000
14.8800 133.0000 1.0000
14.9000 144.0000 1.0000
14.9200 134.0000 1.0000
14.9400 125.0000 1.0000
14.9600 138.0000 1.0000
14.9800 135.0000 1.0000
15.0000 131.0000 1.0000
15.0200 132.0000 1.0000
15.0400 122.0000 1.0000
15.0600 121.0000 1.0000
15.0800 119.0000 1.0000
15.1000 120.0000 1.0000
15.1200 131.0000 1.0000
15.1400 135.0000 1.0000
15.1600 135.0000 1.0000
15.1800 131.0000 1.0000
15.2000 134.0000 1.0000
15.2200 143.0000 1.0000
15.2400 135.0000 1.0000
15.2600 134.0000 1.0000
15.2800 118.0000 1.0000
15.3000 116.0000 1.0000
15.3200 136.0000 1.0000
15.3400 139.0000 1.0000
15.3600 133.0000 1.0000
15.3800 119.0000 1.0000
15.4000 126.0000 1.0000
15.4200 135.0000 1.0000
15.4400 119.0000 1.0000
15.4600 124.0000 1.0000
15.4800 138.0000 1.0000
15.5000 130.0000 1.0000
15.5200 133.0000 1.0000
15.5400 131.0000 1.0000
15.5600 130.0000 1.0000
15.5800 135.0000 1.0000
15.6000 124.0000 1.0000
15.6200 115.0000 1.0000
15.6400 126.0000 1.0000
15.6600 134.0000 1.0000
15.6800 127.0000 1.0000
15.7000 126.0000 1.0000
15.7200 122.0000 1.0000
15.7400 124.0000 1.0000
15.7600 130.0000 1.0000
15.7800 119.0000 1.0000
15.8000 113.0000 1.0000
15.8200 98.0000 1.0000
15.8400 105.0000 1.0000
15.8600 112.0000 1.0000
15.8800 119.0000 1.0000
15.9000 119.0000 1.0000
15.9200 116.0000 1.0000
15.9400 112.0000 1.0000
15.9600 137.0000 1.0000
15.9800 148.0000 1.0000
16.0000 138.0000 1.0000
16.0200 123.0000 1.0000
16.0400 112.0000 1.0000
16.0600 114.0000 1.0000
16.0800 111.0000 1.0000
16.1000 113.0000 1.0000
16.1200 110.0000 1.0000
16.1400 95.0000 1.0000
16.1600 107.0000 1.0000
16.1800 117.0000 1.0000
16.2000 116.0000 1.0000
16.2200 115.0000 1.0000
16.2400 111.0000 1.0000
16.2600 111.0000 1.0000
16.2800 115.0000 1.0000
16.3000 132.0000 1.0000
16.3200 121.0000 1.0000
16.3400 112.0000 1.0000
16.3600 119.0000 1.0000
16.3800 126.0000 1.0000
16.4000 111.0000 1.0000
16.4200 108.0000 1.0000
16.4400 119.0000 1.0000
16.4600 125.0000 1.0000
16.4800 134.0000 1.0000
16.5000 123.0000 1.0000
16.5200 103.0000 1.0000
16.5400 123.0000 1.0000
16.5600 118.0000 1.0000
16.5800 104.0000 1.0000
16.6000 115.0000 1.0000
16.6200 123.0000 1.0000
16.6400 118.0000 1.0000
16.6600 119.0000 1.0000
16.6800 124.0000 1.0000
16.7000 122.0000 1.0000
16.7200 97.0000 1.0000
16.7400 107.0000 1.0000
16.7600 120.0000 1.0000
16.7800 117.0000 1.0000
16.8000 125.0000 1.0000
16.8200 114.0000 1.0000
16.8400 117.0000 1.0000
16.8600 120.0000 1.0000
16.8800 119.0000 1.0000
16.9000 109.0000 1.0000
16.9200 123.0000 1.0000
16.9400 113.0000 1.0000
16.9600 112.0000 1.0000
16.9800 124.0000 1.0000
17.0000 119.0000 1.0000
17.0200 117.0000 1.0000
17.0400 114.0000 1.0000
17.0600 109.0000 1.0000
17.0800 115.0000 1.0000
17.1000 116.0000 1.0000
17.1200 115.0000 1.0000
17.1400 118.0000 1.0000
17.1600 120.0000 1.0000
17.1800 125.0000 1.0000
17.2000 115.0000 1.0000
17.2200 111.0000 1.0000
17.2400 115.0000 1.0000
17.2600 107.0000 1.0000
17.2800 125.0000 1.0000
17.3000 117.0000 1.0000
17.3200 124.0000 1.0000
17.3400 119.0000 1.0000
17.3600 132.0000 1.0000
17.3800 135.0000 1.0000
17.4000 118.0000 1.0000
17.4200 123.0000 1.0000
17.4400 136.0000 1.0000
17.4600 144.0000 1.0000
17.4800 146.0000 1.0000
17.5000 139.0000 1.0000
17.5200 120.0000 1.0000
17.5400 120.0000 1.0000
17.5600 117.0000 1.0000
17.5800 125.0000 1.0000
17.6000 113.0000 1.0000
17.6200 108.0000 1.0000
17.6400 126.0000 1.0000
17.6600 128.0000 1.0000
17.6800 112.0000 1.0000
17.7000 117.0000 1.0000
17.7200 118.0000 1.0000
17.7400 110.0000 1.0000
17.7600 110.0000 1.0000
17.7800 109.0000 1.0000
17.8000 105.0000 1.0000
17.8200 115.0000 1.0000
17.8400 120.0000 1.0000
17.8600 104.0000 1.0000
17.8800 102.0000 1.0000
17.9000 107.0000 1.0000
17.9200 114.0000 1.0000
17.9400 114.0000 1.0000
17.9600 117.0000 1.0000
17.9800 110.0000 1.0000
18.0000 135.0000 1.0000
18.0200 116.0000 1.0000
18.0400 121.0000 1.0000
18.0600 100.0000 1.0000
18.0800 122.0000 1.0000
18.1000 127.0000 1.0000
18.1200 104.0000 1.0000
18.1400 98.0000 1.0000
18.1600 111.0000 1.0000
18.1800 135.0000 1.0000
18.2000 135.0000 1.0000
18.2200 117.0000 1.0000
18.2400 108.0000 1.0000
18.2600 115.0000 1.0000
18.2800 125.0000 1.0000
18.3000 110.0000 1.0000
18.3200 121.0000 1.0000
18.3400 125.0000 1.0000
18.3600 126.0000 1.0000
18.3800 140.0000 1.0000
18.4000 137.0000 1.0000
18.4200 122.0000 1.0000
18.4400 124.0000 1.0000
18.4600 141.0000 1.0000
18.4800 132.0000 1.0000
18.5000 159.0000 1.0000
18.5200 153.0000 1.0000
18.5400 159.0000 1.0000
18.5600 156.0000 1.0000
18.5800 174.0000 1.0000
18.6000 161.0000 1.0000
18.6200 185.0000 1.0000
18.6400 209.0000 1.0000
18.6600 246.0000 1.0000
18.6800 250.0000 1.0000
18.7000 250.0000 1.0000
18.7200 234.0000 1.0000
18.7400 229.0000 1.0000
18.7600 243.0000 1.0000
18.7800 237.0000 1.0000
18.8000 202.0000 1.0000
18.8200 171.0000 1.0000
18.8400 164.0000 1.0000
18.8600 172.0000 1.0000
18.8800 171.0000 1.0000
18.9000 151.0000 1.0000
18.9200 145.0000 1.0000
18.9400 157.0000 1.0000
18.9600 156.0000 1.0000
18.9800 185.0000 1.0000
19.0000 172.0000 1.0000
19.0200 180.0000 1.0000
19.0400 175.0000 1.0000
19.0600 186.0000 1.0000
19.0800 195.0000 1.0000
19.1000 200.0000 1.0000
19.1200 241.0000 1.0000
19.1400 252.0000 1.0000
19.1600 240.0000 1.0000
19.1800 224.0000 1.0000
19.2000 224.0000 1.0000
19.2200 205.0000 1.0000
19.2400 224.0000 1.0000
19.2600 180.0000 1.0000
19.2800 170.0000 1.0000
19.3000 185.0000 1.0000
19.3200 172.0000 1.0000
19.3400 166.0000 1.0000
19.3600 146.0000 1.0000
19.3800 155.0000 1.0000
19.4000 147.0000 1.0000
19.4200 167.0000 1.0000
19.4400 151.0000 1.0000
19.4600 147.0000 1.0000
19.4800 156.0000 1.0000
19.5000 161.0000 1.0000
19.5200 159.0000 1.0000
19.5400 168.0000 1.0000
19.5600 179.0000 1.0000
19.5800 162.0000 1.0000
19.6000 178.0000 1.0000
19.6200 195.0000 1.0000
19.6400 210.0000 1.0000
19.6600 190.0000 1.0000
19.6800 200.0000 1.0000
19.7000 195.0000 1.0000
19.7200 206.0000 1.0000
19.7400 189.0000 1.0000
19.7600 214.0000 1.0000
19.7800 193.0000 1.0000
19.8000 181.0000 1.0000
19.8200 199.0000 1.0000
19.8400 192.0000 1.0000
19.8600 189.0000 1.0000
19.8800 168.0000 1.0000
19.9000 176.0000 1.0000
19.9200 184.0000 1.0000
19.9400 190.0000 1.0000
19.9600 162.0000 1.0000
19.9800 169.0000 1.0000
20.0000 153.0000 1.0000
20.0200 146.0000 1.0000
20.0400 135.0000 1.0000
20.0600 143.0000 1.0000
20.0800 159.0000 1.0000
20.1000 139.0000 1.0000
20.1200 162.0000 1.0000
20.1400 144.0000 1.0000
20.1600 149.0000 1.0000
20.1800 142.0000 1.0000
20.2000 148.0000 1.0000
20.2200 161.0000 1.0000
20.2400 141.0000 1.0000
20.2600 154.0000 1.0000
20.2800 155.0000 1.0000
20.3000 198.0000 1.0000
20.3200 197.0000 1.0000
20.3400 172.0000 1.0000
20.3600 199.0000 1.0000
20.3800 171.0000 1.0000
20.4000 173.0000 1.0000
20.4200 175.0000 1.0000
20.4400 187.0000 1.0000
20.4600 184.0000 1.0000
20.4800 198.0000 1.0000
20.5000 212.0000 1.0000
20.5200 240.0000 1.0000
20.5400 226.0000 1.0000
20.5600 275.0000 1.0000
20.5800 286.0000 1.0000
20.6000 337.0000 1.0000
20.6200 374.0000 1.0000
20.6400 453.0000 1.0000
20.6600 465.0000 1.0000
20.6800 422.0000 1.0000
20.7000 421.0000 1.0000
20.7200 406.0000 1.0000
20.7400 313.0000 1.0000
20.7600 256.0000 1.0000
20.7800 218.0000 1.0000
20.8000 187.0000 1.0000
20.8200 206.0000 1.0000
20.8400 187.0000 1.0000
20.8600 198.0000 1.0000
20.8800 180.0000 1.0000
20.9000 178.0000 1.0000
20.9200 200.0000 1.0000
20.9400 153.0000 1.0000
20.9600 175.0000 1.0000
20.9800 158.0000 1.0000
21.0000 155.0000 1.0000
21.0200 178.0000 1.0000
21.0400 157.0000 1.0000
21.0600 147.0000 1.0000
21.0800 140.0000 1.0000
21.1000 153.0000 1.0000
21.1200 154.0000 1.0000
21.1400 141.0000 1.0000
21.1600 151.0000 1.0000
21.1800 131.0000 1.0000
21.2000 149.0000 1.0000
21.2200 152.0000 1.0000
21.2400 152.0000 1.0000
21.2600 177.0000 1.0000
21.2800 156.0000 1.0000
21.3000 141.0000 1.0000
21.3200 145.0000 1.0000
21.3400 141.0000 1.0000
21.3600 163.0000 1.0000
21.3800 144.0000 1.0000
21.4000 159.0000 1.0000
21.4200 159.0000 1.0000
21.4400 172.0000 1.0000
21.4600 153.0000 1.0000
21.4800 191.0000 1.0000
21.5000 178.0000 1.0000
21.5200 219.0000 1.0000
21.5400 200.0000 1.0000
21.5600 211.0000 1.0000
21.5800 232.0000 1.0000
21.6000 276.0000 1.0000
21.6200 300.0000 1.0000
21.6400 349.0000 1.0000
21.6600 394.0000 1.0000
21.6800 423.0000 1.0000
21.7000 497.0000 1.0000
21.7200 543.0000 1.0000
21.7400 620.0000 1.0000
21.7600 661.0000 1.0000
21.7800 620.0000 1.0000
21.8000 575.0000 1.0000
21.8200 526.0000 1.0000
21.8400 455.0000 1.0000
21.8600 378.0000 1.0000
21.8800 283.0000 1.0000
21.9000 231.0000 1.0000
21.9200 216.0000 1.0000
21.9400 174.0000 1.0000
21.9600 182.0000 1.0000
21.9800 191.0000 1.0000
22.0000 186.0000 1.0000
22.0200 135.0000 1.0000
22.0400 158.0000 1.0000
22.0600 144.0000 1.0000
22.0800 155.0000 1.0000
22.1000 155.0000 1.0000
22.1200 152.0000 1.0000
22.1400 142.0000 1.0000
22.1600 137.0000 1.0000
22.1800 147.0000 1.0000
22.2000 148.0000 1.0000
22.2200 141.0000 1.0000
22.2400 142.0000 1.0000
22.2600 161.0000 1.0000
22.2800 140.0000 1.0000
22.3000 148.0000 1.0000
22.3200 161.0000 1.0000
22.3400 159.0000 1.0000
22.3600 168.0000 1.0000
22.3800 160.0000 1.0000
22.4000 172.0000 1.0000
22.4200 165.0000 1.0000
22.4400 194.0000 1.0000
22.4600 197.0000 1.0000
22.4800 177.0000 1.0000
22.5000 218.0000 1.0000
22.5200 210.0000 1.0000
22.5400 206.0000 1.0000
22.5600 225.0000 1.0000
22.5800 225.0000 1.0000
22.6000 221.0000 1.0000
22.6200 217.0000 1.0000
22.6400 219.0000 1.0000
22.6600 192.0000 1.0000
22.6800 188.0000 1.0000
22.7000 167.0000 1.0000
22.7200 147.0000 1.0000
22.7400 150.0000 1.0000
22.7600 164.0000 1.0000
22.7800 161.0000 1.0000
22.8000 149.0000 1.0000
22.8200 147.0000 1.0000
22.8400 153.0000 1.0000
22.8600 136.0000 1.0000
22.8800 138.0000 1.0000
22.9000 130.0000 1.0000
22.9200 135.0000 1.0000
22.9400 148.0000 1.0000
22.9600 150.0000 1.0000
22.9800 120.0000 1.0000
23.0000 126.0000 1.0000
23.0200 147.0000 1.0000
23.0400 144.0000 1.0000
23.0600 168.0000 1.0000
23.0800 139.0000 1.0000
23.1000 155.0000 1.0000
23.1200 173.0000 1.0000
23.1400 166.0000 1.0000
23.1600 174.0000 1.0000
23.1800 168.0000 1.0000
23.2000 169.0000 1.0000
23.2200 189.0000 1.0000
23.2400 247.0000 1.0000
23.2600 262.0000 1.0000
23.2800 264.0000 1.0000
23.3000 311.0000 1.0000
23.3200 365.0000 1.0000
23.3400 389.0000 1.0000
23.3600 431.0000 1.0000
23.3800 450.0000 1.0000
23.4000 521.0000 1.0000
23.4200 582.0000 1.0000
23.4400 560.0000 1.0000
23.4600 571.0000 1.0000
23.4800 543.0000 1.0000
23.5000 499.0000 1.0000
23.5200 471.0000 1.0000
23.5400 402.0000 1.0000
23.5600 352.0000 1.0000
23.5800 308.0000 1.0000
23.6000 270.0000 1.0000
23.6200 244.0000 1.0000
23.6400 207.0000 1.0000
23.6600 191.0000 1.0000
23.6800 171.0000 1.0000
23.7000 154.0000 1.0000
23.7200 166.0000 1.0000
23.7400 166.0000 1.0000
23.7600 156.0000 1.0000
23.7800 155.0000 1.0000
23.8000 162.0000 1.0000
23.8200 157.0000 1.0000
23.8400 151.0000 1.0000
23.8600 149.0000 1.0000
23.8800 151.0000 1.0000
23.9000 158.0000 1.0000
23.9200 173.0000 1.0000
23.9400 178.0000 1.0000
23.9600 188.0000 1.0000
23.9800 165.0000 1.0000
24.0000 173.0000 1.0000
24.0200 187.0000 1.0000
24.0400 180.0000 1.0000
24.0600 199.0000 1.0000
24.0800 199.0000 1.0000
24.1000 209.0000 1.0000
24.1200 255.0000 1.0000
24.1400 256.0000 1.0000
24.1600 328.0000 1.0000
24.1800 345.0000 1.0000
24.2000 339.0000 1.0000
24.2200 365.0000 1.0000
24.2400 403.0000 1.0000
24.2600 422.0000 1.0000
24.2800 455.0000 1.0000
24.3000 428.0000 1.0000
24.3200 394.0000 1.0000
24.3400 373.0000 1.0000
24.3600 383.0000 1.0000
24.3800 325.0000 1.0000
24.4000 291.0000 1.0000
24.4200 256.0000 1.0000
24.4400 236.0000 1.0000
24.4600 205.0000 1.0000
24.4800 182.0000 1.0000
24.5000 175.0000 1.0000
24.5200 151.0000 1.0000
24.5400 148.0000 1.0000
24.5600 157.0000 1.0000
24.5800 150.0000 1.0000
24.6000 153.0000 1.0000
24.6200 164.0000 1.0000
24.6400 151.0000 1.0000
24.6600 148.0000 1.0000
24.6800 155.0000 1.0000
24.7000 156.0000 1.0000
24.7200 136.0000 1.0000
24.7400 144.0000 1.0000
24.7600 148.0000 1.0000
24.7800 135.0000 1.0000
24.8000 136.0000 1.0000
24.8200 133.0000 1.0000
24.8400 145.0000 1.0000
24.8600 145.0000 1.0000
24.8800 149.0000 1.0000
24.9000 151.0000 1.0000
24.9200 165.0000 1.0000
24.9400 160.0000 1.0000
24.9600 145.0000 1.0000
24.9800 151.0000 1.0000
25.0000 141.0000 1.0000
25.0200 166.0000 1.0000
25.0400 174.0000 1.0000
25.0600 159.0000 1.0000
25.0800 158.0000 1.0000
25.1000 174.0000 1.0000
25.1200 194.0000 1.0000
25.1400 195.0000 1.0000
25.1600 209.0000 1.0000
25.1800 220.0000 1.0000
25.2000 250.0000 1.0000
25.2200 288.0000 1.0000
25.2400 358.0000 1.0000
25.2600 438.0000 1.0000
25.2800 525.0000 1.0000
25.3000 609.0000 1.0000
25.3200 718.0000 1.0000
25.3400 834.0000 1.0000
25.3600 932.0000 1.0000
25.3800 1008.0000 1.0000
25.4000 1024.0000 1.0000
25.4200 925.0000 1.0000
25.4400 822.0000 1.0000
25.4600 693.0000 1.0000
25.4800 568.0000 1.0000
25.5000 461.0000 1.0000
25.5200 367.0000 1.0000
25.5400 310.0000 1.0000
25.5600 268.0000 1.0000
25.5800 244.0000 1.0000
25.6000 228.0000 1.0000
25.6200 217.0000 1.0000
25.6400 195.0000 1.0000
25.6600 179.0000 1.0000
25.6800 191.0000 1.0000
25.7000 188.0000 1.0000
25.7200 202.0000 1.0000
25.7400 189.0000 1.0000
25.7600 182.0000 1.0000
25.7800 196.0000 1.0000
25.8000 185.0000 1.0000
25.8200 176.0000 1.0000
25.8400 171.0000 1.0000
25.8600 172.0000 1.0000
25.8800 176.0000 1.0000
25.9000 178.0000 1.0000
25.9200 159.0000 1.0000
25.9400 157.0000 1.0000
25.9600 173.0000 1.0000
25.9800 187.0000 1.0000
26.0000 183.0000 1.0000
26.0200 176.0000 1.0000
26.0400 201.0000 1.0000
26.0600 215.0000 1.0000
26.0800 216.0000 1.0000
26.1000 232.0000 1.0000
26.1200 246.0000 1.0000
26.1400 268.0000 1.0000
26.1600 315.0000 1.0000
26.1800 350.0000 1.0000
26.2000 389.0000 1.0000
26.2200 424.0000 1.0000
26.2400 494.0000 1.0000
26.2600 558.0000 1.0000
26.2800 600.0000 1.0000
26.3000 658.0000 1.0000
26.3200 743.0000 1.0000
26.3400 877.0000 1.0000
26.3600 1046.0000 1.0000
26.3800 1255.0000 1.0000
26.4000 1448.0000 1.0000
26.4200 1562.0000 1.0000
26.4400 1696.0000 1.0000
26.4600 1732.0000 1.0000
26.4800 1661.0000 1.0000
26.5000 1492.0000 1.0000
26.5200 1214.0000 1.0000
26.5400 911.0000 1.0000
26.5600 695.0000 1.0000
26.5800 547.0000 1.0000
26.6000 415.0000 1.0000
26.6200 353.0000 1.0000
26.6400 329.0000 1.0000
26.6600 333.0000 1.0000
26.6800 336.0000 1.0000
26.7000 320.0000 1.0000
26.7200 332.0000 1.0000
26.7400 306.0000 1.0000
26.7600 272.0000 1.0000
26.7800 273.0000 1.0000
26.8000 281.0000 1.0000
26.8200 271.0000 1.0000
26.8400 254.0000 1.0000
26.8600 254.0000 1.0000
26.8800 247.0000 1.0000
26.9000 215.0000 1.0000
26.9200 216.0000 1.0000
26.9400 231.0000 1.0000
26.9600 228.0000 1.0000
26.9800 225.0000 1.0000
27.0000 230.0000 1.0000
27.0200 244.0000 1.0000
27.0400 262.0000 1.0000
27.0600 263.0000 1.0000
27.0800 286.0000 1.0000
27.1000 312.0000 1.0000
27.1200 319.0000 1.0000
27.1400 362.0000 1.0000
27.1600 405.0000 1.0000
27.1800 415.0000 1.0000
27.2000 478.0000 1.0000
27.2200 531.0000 1.0000
27.2400 604.0000 1.0000
27.2600 685.0000 1.0000
27.2800 710.0000 1.0000
27.3000 756.0000 1.0000
27.3200 787.0000 1.0000
27.3400 836.0000 1.0000
27.3600 894.0000 1.0000
27.3800 912.0000 1.0000
27.4000 940.0000 1.0000
27.4200 960.0000 1.0000
27.4400 963.0000 1.0000
27.4600 941.0000 1.0000
27.4800 951.0000 1.0000
27.5000 1055.0000 1.0000
27.5200 1141.0000 1.0000
27.5400 1200.0000 1.0000
27.5600 1366.0000 1.0000
27.5800 1511.0000 1.0000
27.6000 1596.0000 1.0000
27.6200 1698.0000 1.0000
27.6400 1728.0000 1.0000
27.6600 1671.0000 1.0000
27.6800 1610.0000 1.0000
27.7000 1526.0000 1.0000
27.7200 1452.0000 1.0000
27.7400 1443.0000 1.0000
27.7600 1475.0000 1.0000
27.7800 1527.0000 1.0000
27.8000 1559.0000 1.0000
27.8200 1652.0000 1.0000
27.8400 1729.0000 1.0000
27.8600 1680.0000 1.0000
27.8800 1515.0000 1.0000
27.9000 1296.0000 1.0000
27.9200 1079.0000 1.0000
27.9400 887.0000 1.0000
27.9600 725.0000 1.0000
27.9800 601.0000 1.0000
28.0000 497.0000 1.0000
28.0200 418.0000 1.0000
28.0400 365.0000 1.0000
28.0600 340.0000 1.0000
28.0800 354.0000 1.0000
28.1000 342.0000 1.0000
28.1200 306.0000 1.0000
28.1400 315.0000 1.0000
28.1600 347.0000 1.0000
28.1800 369.0000 1.0000
28.2000 388.0000 1.0000
28.2200 419.0000 1.0000
28.2400 449.0000 1.0000
28.2600 471.0000 1.0000
28.2800 450.0000 1.0000
28.3000 393.0000 1.0000
28.3200 380.0000 1.0000
28.3400 353.0000 1.0000
28.3600 300.0000 1.0000
28.3800 272.0000 1.0000
28.4000 241.0000 1.0000
28.4200 209.0000 1.0000
28.4400 211.0000 1.0000
28.4600 208.0000 1.0000
28.4800 181.0000 1.0000
28.5000 171.0000 1.0000
28.5200 165.0000 1.0000
28.5400 167.0000 1.0000
28.5600 158.0000 1.0000
28.5800 151.0000 1.0000
28.6000 158.0000 1.0000
28.6200 155.0000 1.0000
28.6400 161.0000 1.0000
28.6600 155.0000 1.0000
28.6800 146.0000 1.0000
28.7000 148.0000 1.0000
28.7200 152.0000 1.0000
28.7400 143.0000 1.0000
28.7600 142.0000 1.0000
28.7800 142.0000 1.0000
28.8000 153.0000 1.0000
28.8200 159.0000 1.0000
28.8400 147.0000 1.0000
28.8600 159.0000 1.0000
28.8800 164.0000 1.0000
28.9000 165.0000 1.0000
28.9200 165.0000 1.0000
28.9400 175.0000 1.0000
28.9600 182.0000 1.0000
28.9800 169.0000 1.0000
29.0000 172.0000 1.0000
29.0200 192.0000 1.0000
29.0400 202.0000 1.0000
29.0600 200.0000 1.0000
29.0800 211.0000 1.0000
29.1000 247.0000 1.0000
29.1200 267.0000 1.0000
29.1400 298.0000 1.0000
29.1600 336.0000 1.0000
29.1800 341.0000 1.0000
29.2000 358.0000 1.0000
29.2200 402.0000 1.0000
29.2400 437.0000 1.0000
29.2600 450.0000 1.0000
29.2800 476.0000 1.0000
29.3000 483.0000 1.0000
29.3200 510.0000 1.0000
29.3400 533.0000 1.0000
29.3600 529.0000 1.0000
29.3800 588.0000 1.0000
29.4000 637.0000 1.0000
29.4200 641.0000 1.0000
29.4400 688.0000 1.0000
29.4600 786.0000 1.0000
29.4800 879.0000 1.0000
29.5000 941.0000 1.0000
29.5200 990.0000 1.0000
29.5400 1091.0000 1.0000
29.5600 1190.0000 1.0000
29.5800 1270.0000 1.0000
29.6000 1304.0000 1.0000
29.6200 1265.0000 1.0000
29.6400 1282.0000 1.0000
29.6600 1239.0000 1.0000
29.6800 1071.0000 1.0000
29.7000 928.0000 1.0000
29.7200 800.0000 1.0000
29.7400 684.0000 1.0000
29.7600 624.0000 1.0000
29.7800 553.0000 1.0000
29.8000 507.0000 1.0000
29.8200 493.0000 1.0000
29.8400 486.0000 1.0000
29.8600 464.0000 1.0000
29.8800 497.0000 1.0000
29.9000 523.0000 1.0000
29.9200 557.0000 1.0000
29.9400 590.0000 1.0000
29.9600 633.0000 1.0000
29.9800 688.0000 1.0000
30.0000 726.0000 1.0000
30.0200 818.0000 1.0000
30.0400 903.0000 1.0000
30.0600 958.0000 1.0000
30.0800 968.0000 1.0000
30.1000 986.0000 1.0000
30.1200 935.0000 1.0000
30.1400 865.0000 1.0000
30.1600 823.0000 1.0000
30.1800 749.0000 1.0000
30.2000 684.0000 1.0000
30.2200 648.0000 1.0000
30.2400 629.0000 1.0000
30.2600 549.0000 1.0000
30.2800 495.0000 1.0000
30.3000 484.0000 1.0000
30.3200 470.0000 1.0000
30.3400 448.0000 1.0000
30.3600 427.0000 1.0000
30.3800 400.0000 1.0000
30.4000 394.0000 1.0000
30.4200 403.0000 1.0000
30.4400 428.0000 1.0000
30.4600 452.0000 1.0000
30.4800 471.0000 1.0000
30.5000 498.0000 1.0000
30.5200 542.0000 1.0000
30.5400 593.0000 1.0000
30.5600 604.0000 1.0000
30.5800 704.0000 1.0000
30.6000 736.0000 1.0000
30.6200 742.0000 1.0000
30.6400 785.0000 1.0000
30.6600 855.0000 1.0000
30.6800 835.0000 1.0000
30.7000 764.0000 1.0000
30.7200 767.0000 1.0000
30.7400 772.0000 1.0000
30.7600 692.0000 1.0000
30.7800 658.0000 1.0000
30.8000 606.0000 1.0000
30.8200 537.0000 1.0000
30.8400 475.0000 1.0000
30.8600 424.0000 1.0000
30.8800 356.0000 1.0000
30.9000 325.0000 1.0000
30.9200 275.0000 1.0000
30.9400 250.0000 1.0000
30.9600 264.0000 1.0000
30.9800 257.0000 1.0000
31.0000 200.0000 1.0000
31.0200 203.0000 1.0000
31.0400 207.0000 1.0000
31.0600 191.0000 1.0000
31.0800 197.0000 1.0000
31.1000 198.0000 1.0000
31.1200 185.0000 1.0000
31.1400 202.0000 1.0000
31.1600 227.0000 1.0000
31.1800 239.0000 1.0000
31.2000 242.0000 1.0000
31.2200 249.0000 1.0000
31.2400 293.0000 1.0000
31.2600 272.0000 1.0000
31.2800 308.0000 1.0000
31.3000 356.0000 1.0000
31.3200 353.0000 1.0000
31.3400 356.0000 1.0000
31.3600 352.0000 1.0000
31.3800 361.0000 1.0000
31.4000 326.0000 1.0000
31.4200 271.0000 1.0000
31.4400 280.0000 1.0000
31.4600 265.0000 1.0000
31.4800 222.0000 1.0000
31.5000 221.0000 1.0000
31.5200 208.0000 1.0000
31.5400 200.0000 1.0000
31.5600 208.0000 1.0000
31.5800 185.0000 1.0000
31.6000 179.0000 1.0000
31.6200 175.0000 1.0000
31.6400 165.0000 1.0000
31.6600 150.0000 1.0000
31.6800 163.0000 1.0000
31.7000 136.0000 1.0000
31.7200 136.0000 1.0000
31.7400 136.0000 1.0000
31.7600 140.0000 1.0000
31.7800 123.0000 1.0000
31.8000 125.0000 1.0000
31.8200 119.0000 1.0000
31.8400 113.0000 1.0000
31.8600 114.0000 1.0000
31.8800 121.0000 1.0000
31.9000 115.0000 1.0000
31.9200 116.0000 1.0000
31.9400 110.0000 1.0000
31.9600 114.0000 1.0000
31.9800 104.0000 1.0000
32.0000 129.0000 1.0000
32.0200 118.0000 1.0000
32.0400 124.0000 1.0000
32.0600 130.0000 1.0000
32.0800 110.0000 1.0000
32.1000 124.0000 1.0000
32.1200 136.0000 1.0000
32.1400 121.0000 1.0000
32.1600 133.0000 1.0000
32.1800 114.0000 1.0000
32.2000 119.0000 1.0000
32.2200 113.0000 1.0000
32.2400 131.0000 1.0000
32.2600 124.0000 1.0000
32.2800 136.0000 1.0000
32.3000 163.0000 1.0000
32.3200 147.0000 1.0000
32.3400 163.0000 1.0000
32.3600 156.0000 1.0000
32.3800 152.0000 1.0000
32.4000 144.0000 1.0000
32.4200 161.0000 1.0000
32.4400 151.0000 1.0000
32.4600 139.0000 1.0000
32.4800 148.0000 1.0000
32.5000 155.0000 1.0000
32.5200 141.0000 1.0000
32.5400 139.0000 1.0000
32.5600 150.0000 1.0000
32.5800 164.0000 1.0000
32.6000 165.0000 1.0000
32.6200 169.0000 1.0000
32.6400 139.0000 1.0000
32.6600 135.0000 1.0000
32.6800 165.0000 1.0000
32.7000 176.0000 1.0000
32.7200 163.0000 1.0000
32.7400 160.0000 1.0000
32.7600 150.0000 1.0000
32.7800 142.0000 1.0000
32.8000 150.0000 1.0000
32.8200 129.0000 1.0000
32.8400 139.0000 1.0000
32.8600 112.0000 1.0000
32.8800 117.0000 1.0000
32.9000 129.0000 1.0000
32.9200 126.0000 1.0000
32.9400 122.0000 1.0000
32.9600 122.0000 1.0000
32.9800 116.0000 1.0000
33.0000 110.0000 1.0000
33.0200 106.0000 1.0000
33.0400 110.0000 1.0000
33.0600 120.0000 1.0000
33.0800 105.0000 1.0000
33.1000 108.0000 1.0000
33.1200 102.0000 1.0000
33.1400 117.0000 1.0000
33.1600 110.0000 1.0000
33.1800 110.0000 1.0000
33.2000 104.0000 1.0000
33.2200 107.0000 1.0000
33.2400 99.0000 1.0000
33.2600 99.0000 1.0000
33.2800 114.0000 1.0000
33.3000 95.0000 1.0000
33.3200 102.0000 1.0000
33.3400 101.0000 1.0000
33.3600 104.0000 1.0000
33.3800 130.0000 1.0000
33.4000 116.0000 1.0000
33.4200 132.0000 1.0000
33.4400 129.0000 1.0000
33.4600 135.0000 1.0000
33.4800 182.0000 1.0000
33.5000 190.0000 1.0000
33.5200 195.0000 1.0000
33.5400 202.0000 1.0000
33.5600 210.0000 1.0000
33.5800 210.0000 1.0000
33.6000 212.0000 1.0000
33.6200 193.0000 1.0000
33.6400 177.0000 1.0000
33.6600 187.0000 1.0000
33.6800 166.0000 1.0000
33.7000 151.0000 1.0000
33.7200 144.0000 1.0000
33.7400 157.0000 1.0000
33.7600 149.0000 1.0000
33.7800 145.0000 1.0000
33.8000 138.0000 1.0000
33.8200 109.0000 1.0000
33.8400 147.0000 1.0000
33.8600 126.0000 1.0000
33.8800 126.0000 1.0000
33.9000 119.0000 1.0000
33.9200 135.0000 1.0000
33.9400 130.0000 1.0000
33.9600 140.0000 1.0000
33.9800 128.0000 1.0000
34.0000 150.0000 1.0000
34.0200 116.0000 1.0000
34.0400 143.0000 1.0000
34.0600 135.0000 1.0000
34.0800 153.0000 1.0000
34.1000 155.0000 1.0000
34.1200 133.0000 1.0000
34.1400 139.0000 1.0000
34.1600 159.0000 1.0000
34.1800 153.0000 1.0000
34.2000 172.0000 1.0000
34.2200 160.0000 1.0000
34.2400 174.0000 1.0000
34.2600 186.0000 1.0000
34.2800 167.0000 1.0000
34.3000 188.0000 1.0000
34.3200 179.0000 1.0000
34.3400 190.0000 1.0000
34.3600 198.0000 1.0000
34.3800 199.0000 1.0000
34.4000 180.0000 1.0000
34.4200 239.0000 1.0000
34.4400 233.0000 1.0000
34.4600 246.0000 1.0000
34.4800 259.0000 1.0000
34.5000 279.0000 1.0000
34.5200 240.0000 1.0000
34.5400 347.0000 1.0000
34.5600 299.0000 1.0000
34.5800 371.0000 1.0000
34.6000 376.0000 1.0000
34.6200 449.0000 1.0000
34.6400 445.0000 1.0000
34.6600 487.0000 1.0000
34.6800 629.0000 1.0000
34.7000 621.0000 1.0000
34.7200 599.0000 1.0000
34.7400 646.0000 1.0000
34.7600 648.0000 1.0000
34.7800 674.0000 1.0000
34.8000 687.0000 1.0000
34.8200 680.0000 1.0000
34.8400 802.0000 1.0000
34.8600 909.0000 1.0000
34.8800 977.0000 1.0000
34.9000 1186.0000 1.0000
34.9200 1404.0000 1.0000
34.9400 1502.0000 1.0000
34.9600 1580.0000 1.0000
34.9800 1573.0000 1.0000
35.0000 1523.0000 1.0000
35.0200 1428.0000 1.0000
35.0400 1181.0000 1.0000
35.0600 1035.0000 1.0000
35.0800 958.0000 1.0000
35.1000 864.0000 1.0000
35.1200 719.0000 1.0000
35.1400 584.0000 1.0000
35.1600 622.0000 1.0000
35.1800 636.0000 1.0000
35.2000 656.0000 1.0000
35.2200 748.0000 1.0000
35.2400 810.0000 1.0000
35.2600 830.0000 1.0000
35.2800 1003.0000 1.0000
35.3000 1033.0000 1.0000
35.3200 1225.0000 1.0000
35.3400 1186.0000 1.0000
35.3600 1253.0000 1.0000
35.3800 1239.0000 1.0000
35.4000 1247.0000 1.0000
35.4200 1232.0000 1.0000
35.4400 1198.0000 1.0000
35.4600 1172.0000 1.0000
35.4800 1143.0000 1.0000
35.5000 1095.0000 1.0000
35.5200 1047.0000 1.0000
35.5400 969.0000 1.0000
35.5600 916.0000 1.0000
35.5800 872.0000 1.0000
35.6000 802.0000 1.0000
35.6200 726.0000 1.0000
35.6400 647.0000 1.0000
35.6600 538.0000 1.0000
35.6800 532.0000 1.0000
35.7000 425.0000 1.0000
35.7200 401.0000 1.0000
35.7400 379.0000 1.0000
35.7600 328.0000 1.0000
35.7800 356.0000 1.0000
35.8000 298.0000 1.0000
35.8200 313.0000 1.0000
35.8400 292.0000 1.0000
35.8600 281.0000 1.0000
35.8800 284.0000 1.0000
35.9000 288.0000 1.0000
35.9200 278.0000 1.0000
35.9400 275.0000 1.0000
35.9600 238.0000 1.0000
35.9800 276.0000 1.0000
36.0000 267.0000 1.0000
36.0200 297.0000 1.0000
36.0400 266.0000 1.0000
36.0600 277.0000 1.0000
36.0800 249.0000 1.0000
36.1000 252.0000 1.0000
36.1200 272.0000 1.0000
36.1400 272.0000 1.0000
36.1600 255.0000 1.0000
36.1800 253.0000 1.0000
36.2000 272.0000 1.0000
36.2200 269.0000 1.0000
36.2400 285.0000 1.0000
36.2600 258.0000 1.0000
36.2800 264.0000 1.0000
36.3000 295.0000 1.0000
36.3200 272.0000 1.0000
36.3400 259.0000 1.0000
36.3600 286.0000 1.0000
36.3800 267.0000 1.0000
36.4000 267.0000 1.0000
36.4200 245.0000 1.0000
36.4400 241.0000 1.0000
36.4600 227.0000 1.0000
36.4800 221.0000 1.0000
36.5000 172.0000 1.0000
36.5200 216.0000 1.0000
36.5400 199.0000 1.0000
36.5600 191.0000 1.0000
36.5800 198.0000 1.0000
36.6000 187.0000 1.0000
36.6200 198.0000 1.0000
36.6400 182.0000 1.0000
36.6600 181.0000 1.0000
36.6800 184.0000 1.0000
36.7000 160.0000 1.0000
36.7200 155.0000 1.0000
36.7400 152.0000 1.0000
36.7600 137.0000 1.0000
36.7800 136.0000 1.0000
36.8000 130.0000 1.0000
36.8200 131.0000 1.0000
36.8400 147.0000 1.0000
36.8600 154.0000 1.0000
36.8800 141.0000 1.0000
36.9000 150.0000 1.0000
36.9200 154.0000 1.0000
36.9400 156.0000 1.0000
36.9600 152.0000 1.0000
36.9800 183.0000 1.0000
37.0000 163.0000 1.0000
37.0200 154.0000 1.0000
37.0400 151.0000 1.0000
37.0600 166.0000 1.0000
37.0800 148.0000 1.0000
37.1000 146.0000 1.0000
37.1200 155.0000 1.0000
37.1400 152.0000 1.0000
37.1600 141.0000 1.0000
37.1800 148.0000 1.0000
37.2000 172.0000 1.0000
37.2200 144.0000 1.0000
37.2400 158.0000 1.0000
37.2600 161.0000 1.0000
37.2800 158.0000 1.0000
37.3000 153.0000 1.0000
37.3200 163.0000 1.0000
37.3400 157.0000 1.0000
37.3600 164.0000 1.0000
37.3800 172.0000 1.0000
37.4000 199.0000 1.0000
37.4200 231.0000 1.0000
37.4400 243.0000 1.0000
37.4600 267.0000 1.0000
37.4800 309.0000 1.0000
37.5000 369.0000 1.0000
37.5200 437.0000 1.0000
37.5400 517.0000 1.0000
37.5600 534.0000 1.0000
37.5800 604.0000 1.0000
37.6000 612.0000 1.0000
37.6200 573.0000 1.0000
37.6400 514.0000 1.0000
37.6600 456.0000 1.0000
37.6800 447.0000 1.0000
37.7000 383.0000 1.0000
37.7200 330.0000 1.0000
37.7400 284.0000 1.0000
37.7600 230.0000 1.0000
37.7800 199.0000 1.0000
37.8000 164.0000 1.0000
37.8200 130.0000 1.0000
37.8400 135.0000 1.0000
37.8600 135.0000 1.0000
37.8800 129.0000 1.0000
37.9000 125.0000 1.0000
37.9200 126.0000 1.0000
37.9400 135.0000 1.0000
37.9600 134.0000 1.0000
37.9800 124.0000 1.0000
38.0000 126.0000 1.0000
38.0200 114.0000 1.0000
38.0400 102.0000 1.0000
38.0600 121.0000 1.0000
38.0800 127.0000 1.0000
38.1000 117.0000 1.0000
38.1200 120.0000 1.0000
38.1400 116.0000 1.0000
38.1600 118.0000 1.0000
38.1800 127.0000 1.0000
38.2000 114.0000 1.0000
38.2200 104.0000 1.0000
38.2400 98.0000 1.0000
38.2600 93.0000 1.0000
38.2800 106.0000 1.0000
38.3000 112.0000 1.0000
38.3200 104.0000 1.0000
38.3400 92.0000 1.0000
38.3600 98.0000 1.0000
38.3800 83.0000 1.0000
38.4000 98.0000 1.0000
38.4200 104.0000 1.0000
38.4400 102.0000 1.0000
38.4600 112.0000 1.0000
38.4800 104.0000 1.0000
38.5000 103.0000 1.0000
38.5200 109.0000 1.0000
38.5400 117.0000 1.0000
38.5600 121.0000 1.0000
38.5800 126.0000 1.0000
38.6000 127.0000 1.0000
38.6200 113.0000 1.0000
38.6400 116.0000 1.0000
38.6600 152.0000 1.0000
38.6800 161.0000 1.0000
38.7000 148.0000 1.0000
38.7200 135.0000 1.0000
38.7400 135.0000 1.0000
38.7600 140.0000 1.0000
38.7800 143.0000 1.0000
38.8000 164.0000 1.0000
38.8200 187.0000 1.0000
38.8400 212.0000 1.0000
38.8600 210.0000 1.0000
38.8800 192.0000 1.0000
38.9000 193.0000 1.0000
38.9200 205.0000 1.0000
38.9400 241.0000 1.0000
38.9600 271.0000 1.0000
38.9800 269.0000 1.0000
39.0000 274.0000 1.0000
39.0200 254.0000 1.0000
39.0400 240.0000 1.0000
39.0600 243.0000 1.0000
39.0800 235.0000 1.0000
39.1000 241.0000 1.0000
39.1200 227.0000 1.0000
39.1400 215.0000 1.0000
39.1600 219.0000 1.0000
39.1800 206.0000 1.0000
39.2000 215.0000 1.0000
39.2200 222.0000 1.0000
39.2400 215.0000 1.0000
39.2600 206.0000 1.0000
39.2800 226.0000 1.0000
39.3000 228.0000 1.0000
39.3200 216.0000 1.0000
39.3400 201.0000 1.0000
39.3600 189.0000 1.0000
39.3800 184.0000 1.0000
39.4000 176.0000 1.0000
39.4200 168.0000 1.0000
39.4400 155.0000 1.0000
39.4600 149.0000 1.0000
39.4800 149.0000 1.0000
39.5000 130.0000 1.0000
39.5200 135.0000 1.0000
39.5400 153.0000 1.0000
39.5600 164.0000 1.0000
39.5800 149.0000 1.0000
39.6000 150.0000 1.0000
39.6200 149.0000 1.0000
39.6400 139.0000 1.0000
39.6600 151.0000 1.0000
39.6800 147.0000 1.0000
39.7000 130.0000 1.0000
39.7200 128.0000 1.0000
39.7400 131.0000 1.0000
39.7600 129.0000 1.0000
39.7800 147.0000 1.0000
39.8000 133.0000 1.0000
39.8200 112.0000 1.0000
39.8400 121.0000 1.0000
39.8600 127.0000 1.0000
39.8800 123.0000 1.0000
39.9000 123.0000 1.0000
39.9200 127.0000 1.0000
39.9400 127.0000 1.0000
39.9600 123.0000 1.0000
39.9800 133.0000 1.0000
40.0000 139.0000 1.0000
40.0200 134.0000 1.0000
40.0400 145.0000 1.0000
40.0600 149.0000 1.0000
40.0800 163.0000 1.0000
40.1000 179.0000 1.0000
40.1200 176.0000 1.0000
40.1400 173.0000 1.0000
40.1600 180.0000 1.0000
40.1800 177.0000 1.0000
40.2000 184.0000 1.0000
40.2200 182.0000 1.0000
40.2400 171.0000 1.0000
40.2600 174.0000 1.0000
40.2800 169.0000 1.0000
40.3000 177.0000 1.0000
40.3200 186.0000 1.0000
40.3400 192.0000 1.0000
40.3600 185.0000 1.0000
40.3800 184.0000 1.0000
40.4000 188.0000 1.0000
40.4200 194.0000 1.0000
40.4400 203.0000 1.0000
40.4600 211.0000 1.0000
40.4800 228.0000 1.0000
40.5000 230.0000 1.0000
40.5200 252.0000 1.0000
40.5400 278.0000 1.0000
40.5600 256.0000 1.0000
40.5800 233.0000 1.0000
40.6000 252.0000 1.0000
40.6200 260.0000 1.0000
40.6400 257.0000 1.0000
40.6600 250.0000 1.0000
40.6800 230.0000 1.0000
40.7000 226.0000 1.0000
40.7200 223.0000 1.0000
40.7400 218.0000 1.0000
40.7600 206.0000 1.0000
40.7800 199.0000 1.0000
40.8000 197.0000 1.0000
40.8200 198.0000 1.0000
40.8400 202.0000 1.0000
40.8600 204.0000 1.0000
40.8800 207.0000 1.0000
40.9000 198.0000 1.0000
40.9200 173.0000 1.0000
40.9400 158.0000 1.0000
40.9600 156.0000 1.0000
40.9800 157.0000 1.0000
41.0000 154.0000 1.0000
41.0200 136.0000 1.0000
41.0400 137.0000 1.0000
41.0600 128.0000 1.0000
41.0800 129.0000 1.0000
41.1000 137.0000 1.0000
41.1200 133.0000 1.0000
41.1400 130.0000 1.0000
41.1600 128.0000 1.0000
41.1800 125.0000 1.0000
41.2000 136.0000 1.0000
41.2200 139.0000 1.0000
41.2400 129.0000 1.0000
41.2600 116.0000 1.0000
41.2800 117.0000 1.0000
41.3000 132.0000 1.0000
41.3200 133.0000 1.0000
41.3400 133.0000 1.0000
41.3600 124.0000 1.0000
41.3800 121.0000 1.0000
41.4000 136.0000 1.0000
41.4200 144.0000 1.0000
41.4400 148.0000 1.0000
41.4600 165.0000 1.0000
41.4800 166.0000 1.0000
41.5000 177.0000 1.0000
41.5200 180.0000 1.0000
41.5400 190.0000 1.0000
41.5600 197.0000 1.0000
41.5800 207.0000 1.0000
41.6000 222.0000 1.0000
41.6200 219.0000 1.0000
41.6400 242.0000 1.0000
41.6600 259.0000 1.0000
41.6800 255.0000 1.0000
41.7000 238.0000 1.0000
41.7200 258.0000 1.0000
41.7400 254.0000 1.0000
41.7600 251.0000 1.0000
41.7800 242.0000 1.0000
41.8000 236.0000 1.0000
41.8200 255.0000 1.0000
41.8400 266.0000 1.0000
41.8600 268.0000 1.0000
41.8800 258.0000 1.0000
41.9000 277.0000 1.0000
41.9200 295.0000 1.0000
41.9400 313.0000 1.0000
41.9600 337.0000 1.0000
41.9800 364.0000 1.0000
42.0000 423.0000 1.0000
42.0200 434.0000 1.0000
42.0400 433.0000 1.0000
42.0600 476.0000 1.0000
42.0800 458.0000 1.0000
42.1000 490.0000 1.0000
42.1200 470.0000 1.0000
42.1400 480.0000 1.0000
42.1600 480.0000 1.0000
42.1800 453.0000 1.0000
42.2000 477.0000 1.0000
42.2200 471.0000 1.0000
42.2400 449.0000 1.0000
42.2600 420.0000 1.0000
42.2800 416.0000 1.0000
42.3000 383.0000 1.0000
42.3200 359.0000 1.0000
42.3400 352.0000 1.0000
42.3600 327.0000 1.0000
42.3800 292.0000 1.0000
42.4000 293.0000 1.0000
42.4200 284.0000 1.0000
42.4400 288.0000 1.0000
42.4600 272.0000 1.0000
42.4800 277.0000 1.0000
42.5000 234.0000 1.0000
42.5200 260.0000 1.0000
42.5400 283.0000 1.0000
42.5600 291.0000 1.0000
42.5800 319.0000 1.0000
42.6000 326.0000 1.0000
42.6200 312.0000 1.0000
42.6400 316.0000 1.0000
42.6600 330.0000 1.0000
42.6800 317.0000 1.0000
42.7000 328.0000 1.0000
42.7200 316.0000 1.0000
42.7400 330.0000 1.0000
42.7600 318.0000 1.0000
42.7800 313.0000 1.0000
42.8000 280.0000 1.0000
42.8200 297.0000 1.0000
42.8400 288.0000 1.0000
42.8600 315.0000 1.0000
42.8800 302.0000 1.0000
42.9000 304.0000 1.0000
42.9200 285.0000 1.0000
42.9400 312.0000 1.0000
42.9600 309.0000 1.0000
42.9800 296.0000 1.0000
43.0000 329.0000 1.0000
43.0200 361.0000 1.0000
43.0400 431.0000 1.0000
43.0600 548.0000 1.0000
43.0800 691.0000 1.0000
43.1000 865.0000 1.0000
43.1200 1013.0000 1.0000
43.1400 1168.0000 1.0000
43.1600 1341.0000 1.0000
43.1800 1317.0000 1.0000
43.2000 1337.0000 1.0000
43.2200 1275.0000 1.0000
43.2400 1146.0000 1.0000
43.2600 888.0000 1.0000
43.2800 812.0000 1.0000
43.3000 733.0000 1.0000
43.3200 654.0000 1.0000
43.3400 526.0000 1.0000
43.3600 461.0000 1.0000
43.3800 325.0000 1.0000
43.4000 277.0000 1.0000
43.4200 229.0000 1.0000
43.4400 226.0000 1.0000
43.4600 188.0000 1.0000
43.4800 199.0000 1.0000
43.5000 190.0000 1.0000
43.5200 177.0000 1.0000
43.5400 167.0000 1.0000
43.5600 163.0000 1.0000
43.5800 160.0000 1.0000
43.6000 156.0000 1.0000
43.6200 156.0000 1.0000
43.6400 138.0000 1.0000
43.6600 136.0000 1.0000
43.6800 158.0000 1.0000
43.7000 152.0000 1.0000
43.7200 148.0000 1.0000
43.7400 142.0000 1.0000
43.7600 157.0000 1.0000
43.7800 134.0000 1.0000
43.8000 147.0000 1.0000
43.8200 147.0000 1.0000
43.8400 141.0000 1.0000
43.8600 150.0000 1.0000
43.8800 146.0000 1.0000
43.9000 153.0000 1.0000
43.9200 159.0000 1.0000
43.9400 183.0000 1.0000
43.9600 186.0000 1.0000
43.9800 149.0000 1.0000
44.0000 187.0000 1.0000
44.0200 197.0000 1.0000
44.0400 222.0000 1.0000
44.0600 227.0000 1.0000
44.0800 234.0000 1.0000
44.1000 239.0000 1.0000
44.1200 228.0000 1.0000
44.1400 249.0000 1.0000
44.1600 276.0000 1.0000
44.1800 234.0000 1.0000
44.2000 249.0000 1.0000
44.2200 276.0000 1.0000
44.2400 258.0000 1.0000
44.2600 242.0000 1.0000
44.2800 237.0000 1.0000
44.3000 220.0000 1.0000
44.3200 235.0000 1.0000
44.3400 240.0000 1.0000
44.3600 208.0000 1.0000
44.3800 176.0000 1.0000
44.4000 213.0000 1.0000
44.4200 190.0000 1.0000
44.4400 193.0000 1.0000
44.4600 200.0000 1.0000
44.4800 188.0000 1.0000
44.5000 180.0000 1.0000
44.5200 193.0000 1.0000
44.5400 190.0000 1.0000
44.5600 196.0000 1.0000
44.5800 226.0000 1.0000
44.6000 227.0000 1.0000
44.6200 252.0000 1.0000
44.6400 256.0000 1.0000
44.6600 248.0000 1.0000
44.6800 270.0000 1.0000
44.7000 259.0000 1.0000
44.7200 252.0000 1.0000
44.7400 281.0000 1.0000
44.7600 249.0000 1.0000
44.7800 249.0000 1.0000
44.8000 219.0000 1.0000
44.8200 212.0000 1.0000
44.8400 236.0000 1.0000
44.8600 207.0000 1.0000
44.8800 231.0000 1.0000
44.9000 219.0000 1.0000
44.9200 221.0000 1.0000
44.9400 228.0000 1.0000
44.9600 226.0000 1.0000
44.9800 244.0000 1.0000
45.0000 221.0000 1.0000
45.0200 249.0000 1.0000
45.0400 251.0000 1.0000
45.0600 241.0000 1.0000
45.0800 279.0000 1.0000
45.1000 255.0000 1.0000
45.1200 239.0000 1.0000
45.1400 234.0000 1.0000
45.1600 237.0000 1.0000
45.1800 203.0000 1.0000
45.2000 211.0000 1.0000
45.2200 211.0000 1.0000
45.2400 195.0000 1.0000
45.2600 176.0000 1.0000
45.2800 174.0000 1.0000
45.3000 165.0000 1.0000
45.3200 158.0000 1.0000
45.3400 168.0000 1.0000
45.3600 160.0000 1.0000
45.3800 161.0000 1.0000
45.4000 168.0000 1.0000
45.4200 154.0000 1.0000
45.4400 152.0000 1.0000
45.4600 158.0000 1.0000
45.4800 151.0000 1.0000
45.5000 146.0000 1.0000
45.5200 175.0000 1.0000
45.5400 167.0000 1.0000
45.5600 151.0000 1.0000
45.5800 157.0000 1.0000
45.6000 172.0000 1.0000
45.6200 186.0000 1.0000
45.6400 174.0000 1.0000
45.6600 177.0000 1.0000
45.6800 180.0000 1.0000
45.7000 176.0000 1.0000
45.7200 172.0000 1.0000
45.7400 173.0000 1.0000
45.7600 172.0000 1.0000
45.7800 187.0000 1.0000
45.8000 191.0000 1.0000
45.8200 214.0000 1.0000
45.8400 215.0000 1.0000
45.8600 195.0000 1.0000
45.8800 188.0000 1.0000
45.9000 180.0000 1.0000
45.9200 168.0000 1.0000
45.9400 194.0000 1.0000
45.9600 183.0000 1.0000
45.9800 168.0000 1.0000
46.0000 166.0000 1.0000
46.0200 152.0000 1.0000
46.0400 168.0000 1.0000
46.0600 159.0000 1.0000
46.0800 138.0000 1.0000
46.1000 126.0000 1.0000
46.1200 127.0000 1.0000
46.1400 130.0000 1.0000
46.1600 138.0000 1.0000
46.1800 131.0000 1.0000
46.2000 124.0000 1.0000
46.2200 110.0000 1.0000
46.2400 105.0000 1.0000
46.2600 105.0000 1.0000
46.2800 100.0000 1.0000
46.3000 102.0000 1.0000
46.3200 112.0000 1.0000
46.3400 105.0000 1.0000
46.3600 116.0000 1.0000
46.3800 107.0000 1.0000
46.4000 122.0000 1.0000
46.4200 114.0000 1.0000
46.4400 119.0000 1.0000
46.4600 98.0000 1.0000
46.4800 98.0000 1.0000
46.5000 80.0000 1.0000
46.5200 92.0000 1.0000
46.5400 111.0000 1.0000
46.5600 96.0000 1.0000
46.5800 98.0000 1.0000
46.6000 100.0000 1.0000
46.6200 98.0000 1.0000
46.6400 108.0000 1.0000
46.6600 107.0000 1.0000
46.6800 112.0000 1.0000
46.7000 108.0000 1.0000
46.7200 104.0000 1.0000
46.7400 108.0000 1.0000
46.7600 115.0000 1.0000
46.7800 136.0000 1.0000
46.8000 137.0000 1.0000
46.8200 131.0000 1.0000
46.8400 147.0000 1.0000
46.8600 150.0000 1.0000
46.8800 162.0000 1.0000
46.9000 159.0000 1.0000
46.9200 155.0000 1.0000
46.9400 166.0000 1.0000
46.9600 172.0000 1.0000
46.9800 162.0000 1.0000
47.0000 143.0000 1.0000
47.0200 137.0000 1.0000
47.0400 142.0000 1.0000
47.0600 134.0000 1.0000
47.0800 126.0000 1.0000
47.1000 115.0000 1.0000
47.1200 117.0000 1.0000
47.1400 106.0000 1.0000
47.1600 106.0000 1.0000
47.1800 99.0000 1.0000
47.2000 98.0000 1.0000
47.2200 113.0000 1.0000
47.2400 99.0000 1.0000
47.2600 94.0000 1.0000
47.2800 96.0000 1.0000
47.3000 100.0000 1.0000
47.3200 106.0000 1.0000
47.3400 96.0000 1.0000
47.3600 101.0000 1.0000
47.3800 95.0000 1.0000
47.4000 83.0000 1.0000
47.4200 90.0000 1.0000
47.4400 93.0000 1.0000
47.4600 93.0000 1.0000
47.4800 90.0000 1.0000
47.5000 82.0000 1.0000
47.5200 87.0000 1.0000
47.5400 90.0000 1.0000
47.5600 86.0000 1.0000
47.5800 99.0000 1.0000
47.6000 97.0000 1.0000
47.6200 95.0000 1.0000
47.6400 105.0000 1.0000
47.6600 95.0000 1.0000
47.6800 83.0000 1.0000
47.7000 89.0000 1.0000
47.7200 102.0000 1.0000
47.7400 108.0000 1.0000
47.7600 109.0000 1.0000
47.7800 100.0000 1.0000
47.8000 92.0000 1.0000
47.8200 103.0000 1.0000
47.8400 102.0000 1.0000
47.8600 91.0000 1.0000
47.8800 80.0000 1.0000
47.9000 80.0000 1.0000
47.9200 80.0000 1.0000
47.9400 86.0000 1.0000
47.9600 95.0000 1.0000
47.9800 94.0000 1.0000
48.0000 109.0000 1.0000
48.0200 120.0000 1.0000
48.0400 118.0000 1.0000
48.0600 111.0000 1.0000
48.0800 117.0000 1.0000
48.1000 117.0000 1.0000
48.1200 121.0000 1.0000
48.1400 133.0000 1.0000
48.1600 138.0000 1.0000
48.1800 136.0000 1.0000
48.2000 149.0000 1.0000
48.2200 156.0000 1.0000
48.2400 161.0000 1.0000
48.2600 152.0000 1.0000
48.2800 162.0000 1.0000
48.3000 161.0000 1.0000
48.3200 160.0000 1.0000
48.3400 151.0000 1.0000
48.3600 137.0000 1.0000
48.3800 135.0000 1.0000
48.4000 130.0000 1.0000
48.4200 133.0000 1.0000
48.4400 129.0000 1.0000
48.4600 115.0000 1.0000
48.4800 103.0000 1.0000
48.5000 100.0000 1.0000
48.5200 105.0000 1.0000
48.5400 111.0000 1.0000
48.5600 116.0000 1.0000
48.5800 119.0000 1.0000
48.6000 114.0000 1.0000
48.6200 105.0000 1.0000
48.6400 121.0000 1.0000
48.6600 124.0000 1.0000
48.6800 109.0000 1.0000
48.7000 113.0000 1.0000
48.7200 121.0000 1.0000
48.7400 130.0000 1.0000
48.7600 138.0000 1.0000
48.7800 135.0000 1.0000
48.8000 124.0000 1.0000
48.8200 134.0000 1.0000
48.8400 145.0000 1.0000
48.8600 131.0000 1.0000
48.8800 132.0000 1.0000
48.9000 135.0000 1.0000
48.9200 143.0000 1.0000
48.9400 152.0000 1.0000
48.9600 146.0000 1.0000
48.9800 149.0000 1.0000
49.0000 153.0000 1.0000
49.0200 152.0000 1.0000
49.0400 156.0000 1.0000
49.0600 170.0000 1.0000
49.0800 185.0000 1.0000
49.1000 184.0000 1.0000
49.1200 168.0000 1.0000
49.1400 165.0000 1.0000
49.1600 159.0000 1.0000
49.1800 153.0000 1.0000
49.2000 158.0000 1.0000
49.2200 151.0000 1.0000
49.2400 145.0000 1.0000
49.2600 151.0000 1.0000
49.2800 163.0000 1.0000
49.3000 160.0000 1.0000
49.3200 155.0000 1.0000
49.3400 163.0000 1.0000
49.3600 186.0000 1.0000
49.3800 188.0000 1.0000
49.4000 200.0000 1.0000
49.4200 232.0000 1.0000
49.4400 241.0000 1.0000
49.4600 262.0000 1.0000
49.4800 274.0000 1.0000
49.5000 258.0000 1.0000
49.5200 270.0000 1.0000
49.5400 273.0000 1.0000
49.5600 250.0000 1.0000
49.5800 232.0000 1.0000
49.6000 221.0000 1.0000
49.6200 228.0000 1.0000
49.6400 219.0000 1.0000
49.6600 210.0000 1.0000
49.6800 192.0000 1.0000
49.7000 186.0000 1.0000
49.7200 197.0000 1.0000
49.7400 191.0000 1.0000
49.7600 192.0000 1.0000
49.7800 184.0000 1.0000
49.8000 180.0000 1.0000
49.8200 181.0000 1.0000
49.8400 192.0000 1.0000
49.8600 209.0000 1.0000
49.8800 210.0000 1.0000
49.9000 221.0000 1.0000
49.9200 251.0000 1.0000
49.9400 261.0000 1.0000
49.9600 269.0000 1.0000
49.9800 276.0000 1.0000
50.0000 291.0000 1.0000
50.0200 267.0000 1.0000
50.0400 244.0000 1.0000
50.0600 238.0000 1.0000
50.0800 252.0000 1.0000
50.1000 252.0000 1.0000
50.1200 235.0000 1.0000
50.1400 206.0000 1.0000
50.1600 197.0000 1.0000
50.1800 173.0000 1.0000
50.2000 176.0000 1.0000
50.2200 163.0000 1.0000
50.2400 161.0000 1.0000
50.2600 151.0000 1.0000
50.2800 130.0000 1.0000
50.3000 135.0000 1.0000
50.3200 136.0000 1.0000
50.3400 128.0000 1.0000
50.3600 129.0000 1.0000
50.3800 147.0000 1.0000
50.4000 152.0000 1.0000
50.4200 154.0000 1.0000
50.4400 132.0000 1.0000
50.4600 145.0000 1.0000
50.4800 165.0000 1.0000
50.5000 175.0000 1.0000
50.5200 172.0000 1.0000
50.5400 190.0000 1.0000
50.5600 210.0000 1.0000
50.5800 221.0000 1.0000
50.6000 220.0000 1.0000
50.6200 226.0000 1.0000
50.6400 214.0000 1.0000
50.6600 203.0000 1.0000
50.6800 233.0000 1.0000
50.7000 212.0000 1.0000
50.7200 208.0000 1.0000
50.7400 186.0000 1.0000
50.7600 173.0000 1.0000
50.7800 144.0000 1.0000
50.8000 142.0000 1.0000
50.8200 147.0000 1.0000
50.8400 156.0000 1.0000
50.8600 131.0000 1.0000
50.8800 128.0000 1.0000
50.9000 122.0000 1.0000
50.9200 130.0000 1.0000
50.9400 109.0000 1.0000
50.9600 146.0000 1.0000
50.9800 109.0000 1.0000
51.0000 112.0000 1.0000
51.0200 118.0000 1.0000
51.0400 126.0000 1.0000
51.0600 128.0000 1.0000
51.0800 129.0000 1.0000
51.1000 141.0000 1.0000
51.1200 128.0000 1.0000
51.1400 138.0000 1.0000
51.1600 132.0000 1.0000
51.1800 146.0000 1.0000
51.2000 161.0000 1.0000
51.2200 162.0000 1.0000
51.2400 185.0000 1.0000
51.2600 183.0000 1.0000
51.2800 212.0000 1.0000
51.3000 217.0000 1.0000
51.3200 227.0000 1.0000
51.3400 263.0000 1.0000
51.3600 266.0000 1.0000
51.3800 273.0000 1.0000
51.4000 268.0000 1.0000
51.4200 258.0000 1.0000
51.4400 219.0000 1.0000
51.4600 235.0000 1.0000
51.4800 199.0000 1.0000
51.5000 202.0000 1.0000
51.5200 194.0000 1.0000
51.5400 200.0000 1.0000
51.5600 183.0000 1.0000
51.5800 161.0000 1.0000
51.6000 156.0000 1.0000
51.6200 144.0000 1.0000
51.6400 158.0000 1.0000
51.6600 143.0000 1.0000
51.6800 160.0000 1.0000
51.7000 147.0000 1.0000
51.7200 175.0000 1.0000
51.7400 160.0000 1.0000
51.7600 184.0000 1.0000
51.7800 170.0000 1.0000
51.8000 187.0000 1.0000
51.8200 197.0000 1.0000
51.8400 203.0000 1.0000
51.8600 223.0000 1.0000
51.8800 248.0000 1.0000
51.9000 243.0000 1.0000
51.9200 233.0000 1.0000
51.9400 243.0000 1.0000
51.9600 251.0000 1.0000
51.9800 234.0000 1.0000
52.0000 228.0000 1.0000
52.0200 244.0000 1.0000
52.0400 231.0000 1.0000
52.0600 230.0000 1.0000
52.0800 225.0000 1.0000
52.1000 226.0000 1.0000
52.1200 222.0000 1.0000
52.1400 222.0000 1.0000
52.1600 234.0000 1.0000
52.1800 243.0000 1.0000
52.2000 231.0000 1.0000
52.2200 261.0000 1.0000
52.2400 270.0000 1.0000
52.2600 289.0000 1.0000
52.2800 344.0000 1.0000
52.3000 398.0000 1.0000
52.3200 456.0000 1.0000
52.3400 537.0000 1.0000
52.3600 567.0000 1.0000
52.3800 606.0000 1.0000
52.4000 652.0000 1.0000
52.4200 588.0000 1.0000
52.4400 498.0000 1.0000
52.4600 517.0000 1.0000
52.4800 442.0000 1.0000
52.5000 435.0000 1.0000
52.5200 421.0000 1.0000
52.5400 394.0000 1.0000
52.5600 384.0000 1.0000
52.5800 302.0000 1.0000
52.6000 264.0000 1.0000
52.6200 240.0000 1.0000
52.6400 184.0000 1.0000
52.6600 181.0000 1.0000
52.6800 150.0000 1.0000
52.7000 167.0000 1.0000
52.7200 139.0000 1.0000
52.7400 156.0000 1.0000
52.7600 136.0000 1.0000
52.7800 143.0000 1.0000
52.8000 133.0000 1.0000
52.8200 155.0000 1.0000
52.8400 140.0000 1.0000
52.8600 137.0000 1.0000
52.8800 160.0000 1.0000
52.9000 140.0000 1.0000
52.9200 136.0000 1.0000
52.9400 151.0000 1.0000
52.9600 155.0000 1.0000
52.9800 161.0000 1.0000
53.0000 169.0000 1.0000
53.0200 167.0000 1.0000
53.0400 147.0000 1.0000
53.0600 187.0000 1.0000
53.0800 153.0000 1.0000
53.1000 157.0000 1.0000
53.1200 175.0000 1.0000
53.1400 166.0000 1.0000
53.1600 175.0000 1.0000
53.1800 174.0000 1.0000
53.2000 140.0000 1.0000
53.2200 169.0000 1.0000
53.2400 181.0000 1.0000
53.2600 158.0000 1.0000
53.2800 164.0000 1.0000
53.3000 173.0000 1.0000
53.3200 177.0000 1.0000
53.3400 147.0000 1.0000
53.3600 156.0000 1.0000
53.3800 147.0000 1.0000
53.4000 150.0000 1.0000
53.4200 155.0000 1.0000
53.4400 167.0000 1.0000
53.4600 163.0000 1.0000
53.4800 146.0000 1.0000
53.5000 141.0000 1.0000
53.5200 127.0000 1.0000
53.5400 118.0000 1.0000
53.5600 142.0000 1.0000
53.5800 117.0000 1.0000
53.6000 120.0000 1.0000
53.6200 117.0000 1.0000
53.6400 126.0000 1.0000
53.6600 120.0000 1.0000
53.6800 101.0000 1.0000
53.7000 109.0000 1.0000
53.7200 114.0000 1.0000
53.7400 130.0000 1.0000
53.7600 111.0000 1.0000
53.7800 96.0000 1.0000
53.8000 102.0000 1.0000
53.8200 129.0000 1.0000
53.8400 107.0000 1.0000
53.8600 93.0000 1.0000
53.8800 107.0000 1.0000
53.9000 117.0000 1.0000
53.9200 111.0000 1.0000
53.9400 113.0000 1.0000
53.9600 121.0000 1.0000
53.9800 103.0000 1.0000
54.0000 119.0000 1.0000
54.0200 120.0000 1.0000
54.0400 127.0000 1.0000
54.0600 126.0000 1.0000
54.0800 108.0000 1.0000
54.1000 109.0000 1.0000
54.1200 110.0000 1.0000
54.1400 123.0000 1.0000
54.1600 131.0000 1.0000
54.1800 133.0000 1.0000
54.2000 123.0000 1.0000
54.2200 129.0000 1.0000
54.2400 130.0000 1.0000
54.2600 121.0000 1.0000
54.2800 126.0000 1.0000
54.3000 146.0000 1.0000
54.3200 156.0000 1.0000
54.3400 145.0000 1.0000
54.3600 126.0000 1.0000
54.3800 126.0000 1.0000
54.4000 122.0000 1.0000
54.4200 136.0000 1.0000
54.4400 147.0000 1.0000
54.4600 168.0000 1.0000
54.4800 155.0000 1.0000
54.5000 139.0000 1.0000
54.5200 132.0000 1.0000
54.5400 144.0000 1.0000
54.5600 158.0000 1.0000
54.5800 147.0000 1.0000
54.6000 152.0000 1.0000
54.6200 167.0000 1.0000
54.6400 171.0000 1.0000
54.6600 177.0000 1.0000
54.6800 204.0000 1.0000
54.7000 211.0000 1.0000
54.7200 197.0000 1.0000
54.7400 187.0000 1.0000
54.7600 182.0000 1.0000
54.7800 171.0000 1.0000
54.8000 174.0000 1.0000
54.8200 176.0000 1.0000
54.8400 166.0000 1.0000
54.8600 162.0000 1.0000
54.8800 149.0000 1.0000
54.9000 152.0000 1.0000
54.9200 133.0000 1.0000
54.9400 129.0000 1.0000
54.9600 135.0000 1.0000
54.9800 134.0000 1.0000
55.0000 125.0000 1.0000
55.0200 138.0000 1.0000
55.0400 144.0000 1.0000
55.0600 142.0000 1.0000
55.0800 136.0000 1.0000
55.1000 136.0000 1.0000
55.1200 148.0000 1.0000
55.1400 154.0000 1.0000
55.1600 133.0000 1.0000
55.1800 139.0000 1.0000
55.2000 149.0000 1.0000
55.2200 154.0000 1.0000
55.2400 161.0000 1.0000
55.2600 152.0000 1.0000
55.2800 138.0000 1.0000
55.3000 124.0000 1.0000
55.3200 131.0000 1.0000
55.3400 136.0000 1.0000
55.3600 131.0000 1.0000
55.3800 116.0000 1.0000
55.4000 119.0000 1.0000
55.4200 128.0000 1.0000
55.4400 117.0000 1.0000
55.4600 106.0000 1.0000
55.4800 116.0000 1.0000
55.5000 119.0000 1.0000
55.5200 109.0000 1.0000
55.5400 104.0000 1.0000
55.5600 101.0000 1.0000
55.5800 114.0000 1.0000
55.6000 114.0000 1.0000
55.6200 109.0000 1.0000
55.6400 109.0000 1.0000
55.6600 110.0000 1.0000
55.6800 109.0000 1.0000
55.7000 104.0000 1.0000
55.7200 109.0000 1.0000
55.7400 122.0000 1.0000
55.7600 120.0000 1.0000
55.7800 104.0000 1.0000
55.8000 109.0000 1.0000
55.8200 116.0000 1.0000
55.8400 107.0000 1.0000
55.8600 105.0000 1.0000
55.8800 118.0000 1.0000
55.9000 124.0000 1.0000
55.9200 125.0000 1.0000
55.9400 120.0000 1.0000
55.9600 110.0000 1.0000
55.9800 132.0000 1.0000
56.0000 140.0000 1.0000
56.0200 134.0000 1.0000
56.0400 146.0000 1.0000
56.0600 156.0000 1.0000
56.0800 165.0000 1.0000
56.1000 169.0000 1.0000
56.1200 176.0000 1.0000
56.1400 176.0000 1.0000
56.1600 180.0000 1.0000
56.1800 210.0000 1.0000
56.2000 235.0000 1.0000
56.2200 237.0000 1.0000
56.2400 252.0000 1.0000
56.2600 269.0000 1.0000
56.2800 293.0000 1.0000
56.3000 339.0000 1.0000
56.3200 359.0000 1.0000
56.3400 361.0000 1.0000
56.3600 382.0000 1.0000
56.3800 396.0000 1.0000
56.4000 389.0000 1.0000
56.4200 415.0000 1.0000
56.4400 406.0000 1.0000
56.4600 382.0000 1.0000
56.4800 372.0000 1.0000
56.5000 392.0000 1.0000
56.5200 381.0000 1.0000
56.5400 347.0000 1.0000
56.5600 335.0000 1.0000
56.5800 310.0000 1.0000
56.6000 315.0000 1.0000
56.6200 320.0000 1.0000
56.6400 278.0000 1.0000
56.6600 267.0000 1.0000
56.6800 276.0000 1.0000
56.7000 251.0000 1.0000
56.7200 259.0000 1.0000
56.7400 269.0000 1.0000
56.7600 259.0000 1.0000
56.7800 254.0000 1.0000
56.8000 258.0000 1.0000
56.8200 260.0000 1.0000
56.8400 248.0000 1.0000
56.8600 235.0000 1.0000
56.8800 230.0000 1.0000
56.9000 229.0000 1.0000
56.9200 219.0000 1.0000
56.9400 214.0000 1.0000
56.9600 231.0000 1.0000
56.9800 220.0000 1.0000
57.0000 203.0000 1.0000
57.0200 202.0000 1.0000
57.0400 204.0000 1.0000
57.0600 197.0000 1.0000
57.0800 210.0000 1.0000
57.1000 225.0000 1.0000
57.1200 235.0000 1.0000
57.1400 252.0000 1.0000
57.1600 274.0000 1.0000
57.1800 312.0000 1.0000
57.2000 368.0000 1.0000
57.2200 435.0000 1.0000
57.2400 536.0000 1.0000
57.2600 673.0000 1.0000
57.2800 796.0000 1.0000
57.3000 960.0000 1.0000
57.3200 1115.0000 1.0000
57.3400 1154.0000 1.0000
57.3600 1122.0000 1.0000
57.3800 1032.0000 1.0000
57.4000 894.0000 1.0000
57.4200 799.0000 1.0000
57.4400 771.0000 1.0000
57.4600 757.0000 1.0000
57.4800 728.0000 1.0000
57.5000 672.0000 1.0000
57.5200 626.0000 1.0000
57.5400 529.0000 1.0000
57.5600 424.0000 1.0000
57.5800 360.0000 1.0000
57.6000 301.0000 1.0000
57.6200 240.0000 1.0000
57.6400 201.0000 1.0000
57.6600 185.0000 1.0000
57.6800 168.0000 1.0000
57.7000 156.0000 1.0000
57.7200 150.0000 1.0000
57.7400 164.0000 1.0000
57.7600 166.0000 1.0000
57.7800 141.0000 1.0000
57.8000 133.0000 1.0000
57.8200 152.0000 1.0000
57.8400 135.0000 1.0000
57.8600 119.0000 1.0000
57.8800 128.0000 1.0000
57.9000 129.0000 1.0000
57.9200 131.0000 1.0000
57.9400 144.0000 1.0000
57.9600 127.0000 1.0000
57.9800 124.0000 1.0000
58.0000 130.0000 1.0000
58.0200 127.0000 1.0000
58.0400 118.0000 1.0000
58.0600 116.0000 1.0000
58.0800 131.0000 1.0000
58.1000 114.0000 1.0000
58.1200 106.0000 1.0000
58.1400 107.0000 1.0000
58.1600 120.0000 1.0000
58.1800 120.0000 1.0000
58.2000 111.0000 1.0000
58.2200 114.0000 1.0000
58.2400 110.0000 1.0000
58.2600 114.0000 1.0000
58.2800 116.0000 1.0000
58.3000 105.0000 1.0000
58.3200 103.0000 1.0000
58.3400 93.0000 1.0000
58.3600 100.0000 1.0000
58.3800 90.0000 1.0000
58.4000 103.0000 1.0000
58.4200 107.0000 1.0000
58.4400 107.0000 1.0000
58.4600 114.0000 1.0000
58.4800 123.0000 1.0000
58.5000 110.0000 1.0000
58.5200 99.0000 1.0000
58.5400 106.0000 1.0000
58.5600 113.0000 1.0000
58.5800 121.0000 1.0000
58.6000 132.0000 1.0000
58.6200 119.0000 1.0000
58.6400 120.0000 1.0000
58.6600 107.0000 1.0000
58.6800 115.0000 1.0000
58.7000 117.0000 1.0000
58.7200 110.0000 1.0000
58.7400 113.0000 1.0000
58.7600 132.0000 1.0000
58.7800 131.0000 1.0000
58.8000 119.0000 1.0000
58.8200 123.0000 1.0000
58.8400 112.0000 1.0000
58.8600 141.0000 1.0000
58.8800 137.0000 1.0000
58.9000 146.0000 1.0000
58.9200 147.0000 1.0000
58.9400 129.0000 1.0000
58.9600 136.0000 1.0000
58.9800 148.0000 1.0000
59.0000 134.0000 1.0000
59.0200 153.0000 1.0000
59.0400 137.0000 1.0000
59.0600 139.0000 1.0000
59.0800 143.0000 1.0000
59.1000 146.0000 1.0000
59.1200 110.0000 1.0000
59.1400 141.0000 1.0000
59.1600 129.0000 1.0000
59.1800 127.0000 1.0000
59.2000 129.0000 1.0000
59.2200 110.0000 1.0000
59.2400 139.0000 1.0000
59.2600 134.0000 1.0000
59.2800 145.0000 1.0000
59.3000 142.0000 1.0000
59.3200 135.0000 1.0000
59.3400 135.0000 1.0000
59.3600 150.0000 1.0000
59.3800 132.0000 1.0000
59.4000 138.0000 1.0000
59.4200 158.0000 1.0000
59.4400 156.0000 1.0000
59.4600 147.0000 1.0000
59.4800 133.0000 1.0000
59.5000 142.0000 1.0000
59.5200 140.0000 1.0000
59.5400 161.0000 1.0000
59.5600 161.0000 1.0000
59.5800 154.0000 1.0000
59.6000 189.0000 1.0000
59.6200 168.0000 1.0000
59.6400 175.0000 1.0000
59.6600 144.0000 1.0000
59.6800 181.0000 1.0000
59.7000 206.0000 1.0000
59.7200 205.0000 1.0000
59.7400 244.0000 1.0000
59.7600 253.0000 1.0000
59.7800 246.0000 1.0000
59.8000 243.0000 1.0000
59.8200 271.0000 1.0000
59.8400 251.0000 1.0000
59.8600 241.0000 1.0000
59.8800 241.0000 1.0000
59.9000 245.0000 1.0000
59.9200 256.0000 1.0000
59.9400 233.0000 1.0000
59.9600 224.0000 1.0000
59.9800 221.0000 1.0000
60.0000 211.0000 1.0000
60.0200 186.0000 1.0000
60.0400 193.0000 1.0000
60.0600 189.0000 1.0000
60.0800 177.0000 1.0000
60.1000 196.0000 1.0000
60.1200 195.0000 1.0000
60.1400 201.0000 1.0000
60.1600 175.0000 1.0000
60.1800 192.0000 1.0000
60.2000 177.0000 1.0000
60.2200 180.0000 1.0000
60.2400 183.0000 1.0000
60.2600 202.0000 1.0000
60.2800 196.0000 1.0000
60.3000 185.0000 1.0000
60.3200 199.0000 1.0000
60.3400 220.0000 1.0000
60.3600 188.0000 1.0000
60.3800 197.0000 1.0000
60.4000 196.0000 1.0000
60.4200 186.0000 1.0000
60.4400 203.0000 1.0000
60.4600 200.0000 1.0000
60.4800 201.0000 1.0000
60.5000 201.0000 1.0000
60.5200 173.0000 1.0000
60.5400 209.0000 1.0000
60.5600 190.0000 1.0000
60.5800 212.0000 1.0000
60.6000 172.0000 1.0000
60.6200 179.0000 1.0000
60.6400 169.0000 1.0000
60.6600 166.0000 1.0000
60.6800 159.0000 1.0000
60.7000 177.0000 1.0000
60.7200 183.0000 1.0000
60.7400 184.0000 1.0000
60.7600 179.0000 1.0000
60.7800 193.0000 1.0000
60.8000 168.0000 1.0000
60.8200 202.0000 1.0000
60.8400 198.0000 1.0000
60.8600 166.0000 1.0000
60.8800 178.0000 1.0000
60.9000 162.0000 1.0000
60.9200 197.0000 1.0000
60.9400 196.0000 1.0000
60.9600 189.0000 1.0000
60.9800 199.0000 1.0000
61.0000 215.0000 1.0000
61.0200 186.0000 1.0000
61.0400 210.0000 1.0000
61.0600 190.0000 1.0000
61.0800 216.0000 1.0000
61.1000 213.0000 1.0000
61.1200 269.0000 1.0000
61.1400 259.0000 1.0000
61.1600 249.0000 1.0000
61.1800 246.0000 1.0000
61.2000 221.0000 1.0000
61.2200 227.0000 1.0000
61.2400 226.0000 1.0000
61.2600 210.0000 1.0000
61.2800 220.0000 1.0000
61.3000 226.0000 1.0000
61.3200 223.0000 1.0000
61.3400 208.0000 1.0000
61.3600 205.0000 1.0000
61.3800 234.0000 1.0000
61.4000 220.0000 1.0000
61.4200 225.0000 1.0000
61.4400 246.0000 1.0000
61.4600 252.0000 1.0000
61.4800 226.0000 1.0000
61.5000 228.0000 1.0000
61.5200 200.0000 1.0000
61.5400 198.0000 1.0000
61.5600 190.0000 1.0000
61.5800 217.0000 1.0000
61.6000 212.0000 1.0000
61.6200 209.0000 1.0000
61.6400 196.0000 1.0000
61.6600 205.0000 1.0000
61.6800 211.0000 1.0000
61.7000 190.0000 1.0000
61.7200 203.0000 1.0000
61.7400 225.0000 1.0000
61.7600 217.0000 1.0000
61.7800 220.0000 1.0000
61.8000 233.0000 1.0000
61.8200 208.0000 1.0000
61.8400 224.0000 1.0000
61.8600 194.0000 1.0000
61.8800 224.0000 1.0000
61.9000 235.0000 1.0000
61.9200 223.0000 1.0000
61.9400 247.0000 1.0000
61.9600 245.0000 1.0000
61.9800 263.0000 1.0000
62.0000 283.0000 1.0000
62.0200 263.0000 1.0000
62.0400 249.0000 1.0000
62.0600 255.0000 1.0000
62.0800 272.0000 1.0000
62.1000 265.0000 1.0000
62.1200 240.0000 1.0000
62.1400 243.0000 1.0000
62.1600 285.0000 1.0000
62.1800 251.0000 1.0000
62.2000 260.0000 1.0000
62.2200 264.0000 1.0000
62.2400 244.0000 1.0000
62.2600 260.0000 1.0000
62.2800 263.0000 1.0000
62.3000 244.0000 1.0000
62.3200 230.0000 1.0000
62.3400 221.0000 1.0000
62.3600 205.0000 1.0000
62.3800 207.0000 1.0000
62.4000 223.0000 1.0000
62.4200 211.0000 1.0000
62.4400 208.0000 1.0000
62.4600 208.0000 1.0000
62.4800 184.0000 1.0000
62.5000 200.0000 1.0000
62.5200 190.0000 1.0000
62.5400 185.0000 1.0000
62.5600 180.0000 1.0000
62.5800 164.0000 1.0000
62.6000 148.0000 1.0000
62.6200 168.0000 1.0000
62.6400 165.0000 1.0000
62.6600 161.0000 1.0000
62.6800 166.0000 1.0000
62.7000 181.0000 1.0000
62.7200 157.0000 1.0000
62.7400 151.0000 1.0000
62.7600 138.0000 1.0000
62.7800 136.0000 1.0000
62.8000 153.0000 1.0000
62.8200 139.0000 1.0000
62.8400 144.0000 1.0000
62.8600 142.0000 1.0000
62.8800 159.0000 1.0000
62.9000 146.0000 1.0000
62.9200 139.0000 1.0000
62.9400 141.0000 1.0000
62.9600 119.0000 1.0000
62.9800 137.0000 1.0000
63.0000 131.0000 1.0000
63.0200 140.0000 1.0000
63.0400 145.0000 1.0000
63.0600 137.0000 1.0000
63.0800 133.0000 1.0000
63.1000 131.0000 1.0000
63.1200 127.0000 1.0000
63.1400 129.0000 1.0000
63.1600 137.0000 1.0000
63.1800 129.0000 1.0000
63.2000 122.0000 1.0000
63.2200 114.0000 1.0000
63.2400 119.0000 1.0000
63.2600 129.0000 1.0000
63.2800 120.0000 1.0000
63.3000 115.0000 1.0000
63.3200 120.0000 1.0000
63.3400 125.0000 1.0000
63.3600 113.0000 1.0000
63.3800 123.0000 1.0000
63.4000 124.0000 1.0000
63.4200 121.0000 1.0000
63.4400 113.0000 1.0000
63.4600 124.0000 1.0000
63.4800 110.0000 1.0000
63.5000 119.0000 1.0000
63.5200 115.0000 1.0000
63.5400 125.0000 1.0000
63.5600 112.0000 1.0000
63.5800 115.0000 1.0000
63.6000 117.0000 1.0000
63.6200 119.0000 1.0000
63.6400 132.0000 1.0000
63.6600 124.0000 1.0000
63.6800 131.0000 1.0000
63.7000 135.0000 1.0000
63.7200 137.0000 1.0000
63.7400 131.0000 1.0000
63.7600 119.0000 1.0000
63.7800 139.0000 1.0000
63.8000 163.0000 1.0000
63.8200 151.0000 1.0000
63.8400 151.0000 1.0000
63.8600 148.0000 1.0000
63.8800 144.0000 1.0000
63.9000 141.0000 1.0000
63.9200 147.0000 1.0000
63.9400 138.0000 1.0000
63.9600 124.0000 1.0000
63.9800 123.0000 1.0000
64.0000 134.0000 1.0000
64.0200 136.0000 1.0000
64.0400 134.0000 1.0000
64.0600 137.0000 1.0000
64.0800 151.0000 1.0000
64.1000 163.0000 1.0000
64.1200 132.0000 1.0000
64.1400 125.0000 1.0000
64.1600 127.0000 1.0000
64.1800 125.0000 1.0000
64.2000 126.0000 1.0000
64.2200 119.0000 1.0000
64.2400 114.0000 1.0000
64.2600 133.0000 1.0000
64.2800 130.0000 1.0000
64.3000 123.0000 1.0000
64.3200 108.0000 1.0000
64.3400 125.0000 1.0000
64.3600 119.0000 1.0000
64.3800 142.0000 1.0000
64.4000 115.0000 1.0000
64.4200 115.0000 1.0000
64.4400 107.0000 1.0000
64.4600 126.0000 1.0000
64.4800 109.0000 1.0000
64.5000 111.0000 1.0000
64.5200 111.0000 1.0000
64.5400 96.0000 1.0000
64.5600 106.0000 1.0000
64.5800 111.0000 1.0000
64.6000 112.0000 1.0000
64.6200 114.0000 1.0000
64.6400 100.0000 1.0000
64.6600 102.0000 1.0000
64.6800 103.0000 1.0000
64.7000 127.0000 1.0000
64.7200 109.0000 1.0000
64.7400 106.0000 1.0000
64.7600 113.0000 1.0000
64.7800 116.0000 1.0000
64.8000 118.0000 1.0000
64.8200 106.0000 1.0000
64.8400 117.0000 1.0000
64.8600 119.0000 1.0000
64.8800 111.0000 1.0000
64.9000 117.0000 1.0000
64.9200 125.0000 1.0000
64.9400 115.0000 1.0000
64.9600 111.0000 1.0000
64.9800 111.0000 1.0000
65.0000 111.0000 1.0000
*RAS_INT_END
*RAS_DATA_END
