*RAS_DATA_START
*RAS_HEADER_START
*CORR_POS_DB_NAME "Angle Correction ASC6 SC WITH Mono_04082019"
*CORR_POS_GONIO_RADIUS ""
*CORR_POS_NODE_INDEX01 ""
*CORR_POS_NODE_INDEX02 ""
*CORR_POS_NODE_INDEX03 ""
*CORR_POS_NODE_INDEX04 ""
*CORR_POS_NODE_INDEX05 ""
*CORR_POS_NODE_INDEX06 ""
*CORR_POS_NODE_INDEX07 ""
*CORR_POS_NODE_INDEX08 ""
*CORR_POS_NODE_INDEX09 ""
*CORR_POS_NODE_INDEX10 ""
*CORR_POS_NODE_INDEX11 ""
*CORR_POS_NODE_LABEL01 "Si(111)"
*CORR_POS_NODE_LABEL02 "Si(220)"
*CORR_POS_NODE_LABEL03 "Si(311)"
*CORR_POS_NODE_LABEL04 "Si(400)"
*CORR_POS_NODE_LABEL05 "Si(331)"
*CORR_POS_NODE_LABEL06 "Si(422)"
*CORR_POS_NODE_LABEL07 "Si(511)"
*CORR_POS_NODE_LABEL08 "Si(440)"
*CORR_POS_NODE_LABEL09 "Si(531)"
*CORR_POS_NODE_LABEL10 "Si(620)"
*CORR_POS_NODE_LABEL11 "Si(533)"
*CORR_POS_NODE_POS_CALC01 "28.377"
*CORR_POS_NODE_POS_CALC02 "47.2506"
*CORR_POS_NODE_POS_CALC03 "56.0725"
*CORR_POS_NODE_POS_CALC04 "69.0822"
*CORR_POS_NODE_POS_CALC05 "76.3294"
*CORR_POS_NODE_POS_CALC06 "87.9853"
*CORR_POS_NODE_POS_CALC07 "94.9091"
*CORR_POS_NODE_POS_CALC08 "106.668"
*CORR_POS_NODE_POS_CALC09 "114.054"
*CORR_POS_NODE_POS_CALC10 "127.511"
*CORR_POS_NODE_POS_CALC11 "136.864"
*CORR_POS_NODE_POS_MEAS01 "28.5058"
*CORR_POS_NODE_POS_MEAS02 "47.345"
*CORR_POS_NODE_POS_MEAS03 "56.1421"
*CORR_POS_NODE_POS_MEAS04 "69.1304"
*CORR_POS_NODE_POS_MEAS05 "76.366"
*CORR_POS_NODE_POS_MEAS06 "88.0213"
*CORR_POS_NODE_POS_MEAS07 "94.9406"
*CORR_POS_NODE_POS_MEAS08 "106.689"
*CORR_POS_NODE_POS_MEAS09 "114.065"
*CORR_POS_NODE_POS_MEAS10 "127.518"
*CORR_POS_NODE_POS_MEAS11 "136.869"
*CORR_POS_OPT_ATTR "集中法"
*CORR_POS_PARAM_MU ""
*CORR_POS_PARAM_PL ""
*CORR_POS_SEMODEL_TYPE "0"
*CORR_POS_STANDARD_TYPE ""
*CORR_POS_VALUE_ANALYZER "None"
*CORR_POS_VALUE_CMONO "None"
*CORR_POS_VALUE_IMONO "None"
*CORR_POS_VALUE_IS "1.250deg"
*CORR_POS_VALUE_ISL "10.0mm"
*CORR_POS_VALUE_ISOLLER "5.0deg"
*CORR_POS_VALUE_RS1 "1.250deg"
*CORR_POS_VALUE_RS2 "0.3mm"
*CORR_POS_VALUE_RSOLLER "5.0deg"
*CORR_POS_XG_FOCUS_L ""
*CORR_POS_XG_WAVE_TYPE ""
*CORR_POS_XG_WAVE_VALUE ""
*DISP_FMT_X "%.2f"
*DISP_FMT_Y "%.0f"
*DISP_FULLSCALE "4201.8000000000"
*DISP_LINE_COLOR "255.0000000000"
*DISP_LINE_STYLE "0.0000000000"
*DISP_LINE_WIDTH "0.2500000000"
*DISP_NOTE "Collected Data-9"
*DISP_OFFSET_Y "0.0000000000"
*DISP_PEAKSEARCH_UNIT_Y "CPS"
*DISP_RANGE_BOTTOM "0.0000000000"
*DISP_RANGE_LEFT "5.0000000000"
*DISP_RANGE_LOGCUTOFF "0.0100000000"
*DISP_RANGE_RIGHT "65.0000000000"
*DISP_RANGE_TOP "4201.8000000000"
*DISP_SCALE_MODE_Y "0.0000000000"
*DISP_TAB_NAME "Theta/2-Theta"
*DISP_TITLE_Y "Intensity"
*DISP_UNIT_Y "CPS"
*DISP_WINDOW_NAME "MSG_MACROENGINE"
*FILE_COMMENT " "
*FILE_MD5 ""
*FILE_MEMO " "
*FILE_OPERATOR "Administrator"
*FILE_PART_ID "MEAS_PBEA_00223"
*FILE_SAMPLE " "
*FILE_TYPE "RAS_RAW"
*FILE_USERGROUP "System Manager"
*FILE_VERSION "1.0000000000"
*HW_ATTACHMENT_ID "ATT1031"
*HW_ATTACHMENT_NAME "6サンプルチェンジャ|ASC-6"
*HW_COUNTER_ID-0 "CUT0021"
*HW_COUNTER_ID-1 "CUT0020"
*HW_COUNTER_ID-2 "CUT0020"
*HW_COUNTER_ID-3 "CMC0021"
*HW_COUNTER_NAME-0 "SC-70|SC-70"
*HW_COUNTER_NAME-1 "None|None"
*HW_COUNTER_NAME-2 "None|None"
*HW_COUNTER_NAME-3 "検出器モノクロメータ|Detector monochromator"
*HW_COUNTER_SELECT_NAME "SC-70|SC-70"
*HW_ECP_HV "671.5000000000"
*HW_ECP_HV_UNIT "V"
*HW_GONIOMETER_ID "GON0070"
*HW_GONIOMETER_NAME "MiniFlex 300/600|MiniFlex 300/600"
*HW_GONIOMETER_RADIUS-0 "79.0"
*HW_GONIOMETER_RADIUS-1 "91.5"
*HW_GONIOMETER_RADIUS-2 "150.0"
*HW_GONIOMETER_RADIUS-3 "0"
*HW_GONIOMETER_RADIUS-4 "103.4"
*HW_GONIOMETER_RADIUS-5 "150.0"
*HW_GONIOMETER_RADIUS-6 "46.6"
*HW_GONIOMETER_RADIUS-7 "160.0"
*HW_I_OPT_ID-0 "ISL0021"
*HW_I_OPT_ID-1 "ISO0021"
*HW_I_OPT_NAME-0 "発散スリット|Divergence slit"
*HW_I_OPT_NAME-1 "入射平行スリット|Incident parallel slit"
*HW_R_ATTENUATER_AUTOMODE "0"
*HW_R_OPT_ID-0 "RSS0021"
*HW_R_OPT_ID-1 "RSO0021"
*HW_R_OPT_ID-2 "RRS0021"
*HW_R_OPT_NAME-0 "散乱スリット|Scattering slit"
*HW_R_OPT_NAME-1 "受光平行スリット|Receiving soller slit"
*HW_R_OPT_NAME-2 "受光スリット|Receiving slit"
*HW_SAMPLE_HOLDER_ID "SMP0000"
*HW_SAMPLE_HOLDER_NAME "無し|None"
*HW_XG_CURRENT_MAX "15"
*HW_XG_CURRENT_MIN "2"
*HW_XG_CURRENT_RESOLUTION "1"
*HW_XG_CURRENT_UNIT "mA"
*HW_XG_FOCUS "1mm x 10mm"
*HW_XG_FOCUS_TYPE "Normal"
*HW_XG_ID "1060"
*HW_XG_NAME "300W/600W 封入管-B|300W/600W Sealed tube-B"
*HW_XG_TARGET_ATOMIC_NUMBER "29.0000000000"
*HW_XG_TARGET_NAME "Cu"
*HW_XG_TYPE "Hermetic"
*HW_XG_VOLTAGE_MAX "40"
*HW_XG_VOLTAGE_MIN "20"
*HW_XG_VOLTAGE_RESOLUTION "1"
*HW_XG_VOLTAGE_UNIT "kV"
*HW_XG_WATT_MAX "0.600"
*HW_XG_WATT_UNIT "kW"
*HW_XG_WAVE_LENGTH_ALPHA1 "1.540593"
*HW_XG_WAVE_LENGTH_ALPHA2 "1.544414"
*HW_XG_WAVE_LENGTH_BETA "1.392250"
*MEAS_COND_AXIS_NAME-0 "Theta/2-Theta"
*MEAS_COND_AXIS_NAME-1 "Spin"
*MEAS_COND_AXIS_NAME-2 "Change"
*MEAS_COND_AXIS_NAME-3 "Soller(inc.)"
*MEAS_COND_AXIS_NAME-4 "IHS"
*MEAS_COND_AXIS_NAME-5 "DS"
*MEAS_COND_AXIS_NAME-6 "SS"
*MEAS_COND_AXIS_NAME-7 "Soller(rec.)"
*MEAS_COND_AXIS_NAME-8 "RS"
*MEAS_COND_AXIS_NAME-9 "Filter"
*MEAS_COND_AXIS_NAME-10 "Monochromator"
*MEAS_COND_AXIS_NAME-11 "HV"
*MEAS_COND_AXIS_NAME-12 "PHA"
*MEAS_COND_AXIS_NAME_INTERNAL-0 "TwoThetaTheta"
*MEAS_COND_AXIS_NAME_INTERNAL-1 "Spin"
*MEAS_COND_AXIS_NAME_INTERNAL-2 "Change"
*MEAS_COND_AXIS_NAME_INTERNAL-3 "IncidentSollerSlit"
*MEAS_COND_AXIS_NAME_INTERNAL-4 "IncidentAxdSlit"
*MEAS_COND_AXIS_NAME_INTERNAL-5 "IncidentSlitBox"
*MEAS_COND_AXIS_NAME_INTERNAL-6 "ReceivingSlitBox1"
*MEAS_COND_AXIS_NAME_INTERNAL-7 "ReceivingSollerSlit"
*MEAS_COND_AXIS_NAME_INTERNAL-8 "ReceivingSlitBox2"
*MEAS_COND_AXIS_NAME_INTERNAL-9 "Filter"
*MEAS_COND_AXIS_NAME_INTERNAL-10 "CounterMonochromator"
*MEAS_COND_AXIS_NAME_INTERNAL-11 "HV"
*MEAS_COND_AXIS_NAME_INTERNAL-12 "PHA"
*MEAS_COND_AXIS_NAME_MAGICNO-0 "268632064.0000000000"
*MEAS_COND_AXIS_NAME_MAGICNO-1 "16842752.0000000000"
*MEAS_COND_AXIS_NAME_MAGICNO-2 "16842752.0000000000"
*MEAS_COND_AXIS_NAME_MAGICNO-3 "20971521.0000000000"
*MEAS_COND_AXIS_NAME_MAGICNO-4 "22020097.0000000000"
*MEAS_COND_AXIS_NAME_MAGICNO-5 "22020097.0000000000"
*MEAS_COND_AXIS_NAME_MAGICNO-6 "23068673.0000000000"
*MEAS_COND_AXIS_NAME_MAGICNO-7 "20971521.0000000000"
*MEAS_COND_AXIS_NAME_MAGICNO-8 "23068673.0000000000"
*MEAS_COND_AXIS_NAME_MAGICNO-9 "20971521.0000000000"
*MEAS_COND_AXIS_NAME_MAGICNO-10 "20971521.0000000000"
*MEAS_COND_AXIS_NAME_MAGICNO-11 "0.0000000000"
*MEAS_COND_AXIS_NAME_MAGICNO-12 "0.0000000000"
*MEAS_COND_AXIS_OFFSET-0 "0.0000000000"
*MEAS_COND_AXIS_OFFSET-1 "-"
*MEAS_COND_AXIS_OFFSET-2 "-"
*MEAS_COND_AXIS_OFFSET-3 "-"
*MEAS_COND_AXIS_OFFSET-4 "-"
*MEAS_COND_AXIS_OFFSET-5 "-"
*MEAS_COND_AXIS_OFFSET-6 "-"
*MEAS_COND_AXIS_OFFSET-7 "-"
*MEAS_COND_AXIS_OFFSET-8 "-"
*MEAS_COND_AXIS_OFFSET-9 "-"
*MEAS_COND_AXIS_OFFSET-10 "-"
*MEAS_COND_AXIS_OFFSET-11 "-"
*MEAS_COND_AXIS_OFFSET-12 "-"
*MEAS_COND_AXIS_POSITION-0 "65.0000000000"
*MEAS_COND_AXIS_POSITION-1 "0.0000000000"
*MEAS_COND_AXIS_POSITION-2 "1.0000000000"
*MEAS_COND_AXIS_POSITION-3 "5.0deg"
*MEAS_COND_AXIS_POSITION-4 "10.0mm"
*MEAS_COND_AXIS_POSITION-5 "1.250deg"
*MEAS_COND_AXIS_POSITION-6 "1.250deg"
*MEAS_COND_AXIS_POSITION-7 "5.0deg"
*MEAS_COND_AXIS_POSITION-8 "0.3mm"
*MEAS_COND_AXIS_POSITION-9 "None"
*MEAS_COND_AXIS_POSITION-10 "Bent"
*MEAS_COND_AXIS_POSITION-11 "671.5000000000"
*MEAS_COND_AXIS_POSITION-12 "551.2500000000"
*MEAS_COND_AXIS_UNIT-0 "deg"
*MEAS_COND_AXIS_UNIT-1 ""
*MEAS_COND_AXIS_UNIT-2 ""
*MEAS_COND_AXIS_UNIT-3 ""
*MEAS_COND_AXIS_UNIT-4 ""
*MEAS_COND_AXIS_UNIT-5 ""
*MEAS_COND_AXIS_UNIT-6 ""
*MEAS_COND_AXIS_UNIT-7 ""
*MEAS_COND_AXIS_UNIT-8 ""
*MEAS_COND_AXIS_UNIT-9 ""
*MEAS_COND_AXIS_UNIT-10 ""
*MEAS_COND_AXIS_UNIT-11 "V"
*MEAS_COND_AXIS_UNIT-12 "mV"
*MEAS_COND_CORRECTION_SLIT_COUNTERMONO "None"
*MEAS_COND_CORRECTION_SLIT_DS "1.250deg"
*MEAS_COND_CORRECTION_SLIT_FILTER "None"
*MEAS_COND_CORRECTION_SLIT_IHS "10.0mm"
*MEAS_COND_CORRECTION_SLIT_RS "0.3mm"
*MEAS_COND_CORRECTION_SLIT_SOLLER_INC "5.0deg"
*MEAS_COND_CORRECTION_SLIT_SOLLER_REC "5.0deg"
*MEAS_COND_CORRECTION_SLIT_SS "1.250deg"
*MEAS_COND_COUNTER_CNTLOSS_CORR "0.0000000000"
*MEAS_COND_COUNTER_PHABASE "551.2500000000"
*MEAS_COND_COUNTER_PHAWINDOW "926.2500000000"
*MEAS_COND_COUNTER_PHA_UNIT "mV"
*MEAS_COND_COUNTER_TAUDIFF "0.2500000000"
*MEAS_COND_COUNTER_TAUINT "0.7500000000"
*MEAS_COND_IRRADIATION_MODE "OFF"
*MEAS_COND_IRRADIATION_WIDTH ""
*MEAS_COND_OPT_ATTR " "
*MEAS_COND_OPT_NAME ""
*MEAS_COND_UNSYMMETRIC_MODE "OFF"
*MEAS_COND_XG_CURRENT "15.0000000000"
*MEAS_COND_XG_VOLTAGE "40.0000000000"
*MEAS_COND_XG_WAVE_TYPE "Ka"
*MEAS_DATA_COUNT "3001.0000000000"
*MEAS_SCAN_AXIS_X "Theta/2-Theta"
*MEAS_SCAN_AXIS_X_INTERNAL "TwoThetaTheta"
*MEAS_SCAN_END_TIME "07/17/25 00:12:56"
*MEAS_SCAN_MODE "STEP"
*MEAS_SCAN_MONITOR "0"
*MEAS_SCAN_RESOLUTION_X "0.0025"
*MEAS_SCAN_SPEED "2.00"
*MEAS_SCAN_SPEED_UNIT "sec."
*MEAS_SCAN_SPEED_USER "2.00"
*MEAS_SCAN_START "5.0000000000"
*MEAS_SCAN_START_TIME "07/16/25 22:27:40"
*MEAS_SCAN_STEP "0.0200000000"
*MEAS_SCAN_STOP "65.0000000000"
*MEAS_SCAN_UNIT_X "deg"
*MEAS_SCAN_UNIT_Y "counts"
*SLIT_SYSTEM "0"
*RAS_HEADER_END
*RAS_INT_START
5.0000 1277.0000 1.0000
5.0200 1205.0000 1.0000
5.0400 1178.0000 1.0000
5.0600 1203.0000 1.0000
5.0800 1253.0000 1.0000
5.1000 1238.0000 1.0000
5.1200 1284.0000 1.0000
5.1400 1217.0000 1.0000
5.1600 1256.0000 1.0000
5.1800 1226.0000 1.0000
5.2000 1235.0000 1.0000
5.2200 1284.0000 1.0000
5.2400 1190.0000 1.0000
5.2600 1207.0000 1.0000
5.2800 1171.0000 1.0000
5.3000 1219.0000 1.0000
5.3200 1190.0000 1.0000
5.3400 1192.0000 1.0000
5.3600 1167.0000 1.0000
5.3800 1243.0000 1.0000
5.4000 1138.0000 1.0000
5.4200 1168.0000 1.0000
5.4400 1164.0000 1.0000
5.4600 1252.0000 1.0000
5.4800 1186.0000 1.0000
5.5000 1290.0000 1.0000
5.5200 1309.0000 1.0000
5.5400 1176.0000 1.0000
5.5600 1055.0000 1.0000
5.5800 1141.0000 1.0000
5.6000 1154.0000 1.0000
5.6200 1170.0000 1.0000
5.6400 1205.0000 1.0000
5.6600 1138.0000 1.0000
5.6800 1134.0000 1.0000
5.7000 1048.0000 1.0000
5.7200 1123.0000 1.0000
5.7400 1158.0000 1.0000
5.7600 1154.0000 1.0000
5.7800 1166.0000 1.0000
5.8000 1133.0000 1.0000
5.8200 1062.0000 1.0000
5.8400 1058.0000 1.0000
5.8600 1023.0000 1.0000
5.8800 1108.0000 1.0000
5.9000 1067.0000 1.0000
5.9200 1104.0000 1.0000
5.9400 1176.0000 1.0000
5.9600 1172.0000 1.0000
5.9800 1134.0000 1.0000
6.0000 1033.0000 1.0000
6.0200 1045.0000 1.0000
6.0400 1147.0000 1.0000
6.0600 1140.0000 1.0000
6.0800 1106.0000 1.0000
6.1000 1111.0000 1.0000
6.1200 1132.0000 1.0000
6.1400 1153.0000 1.0000
6.1600 1167.0000 1.0000
6.1800 1046.0000 1.0000
6.2000 961.0000 1.0000
6.2200 985.0000 1.0000
6.2400 982.0000 1.0000
6.2600 973.0000 1.0000
6.2800 1038.0000 1.0000
6.3000 1044.0000 1.0000
6.3200 963.0000 1.0000
6.3400 975.0000 1.0000
6.3600 925.0000 1.0000
6.3800 881.0000 1.0000
6.4000 835.0000 1.0000
6.4200 852.0000 1.0000
6.4400 885.0000 1.0000
6.4600 873.0000 1.0000
6.4800 865.0000 1.0000
6.5000 934.0000 1.0000
6.5200 865.0000 1.0000
6.5400 834.0000 1.0000
6.5600 831.0000 1.0000
6.5800 857.0000 1.0000
6.6000 928.0000 1.0000
6.6200 906.0000 1.0000
6.6400 861.0000 1.0000
6.6600 833.0000 1.0000
6.6800 780.0000 1.0000
6.7000 783.0000 1.0000
6.7200 848.0000 1.0000
6.7400 837.0000 1.0000
6.7600 801.0000 1.0000
6.7800 774.0000 1.0000
6.8000 805.0000 1.0000
6.8200 789.0000 1.0000
6.8400 735.0000 1.0000
6.8600 719.0000 1.0000
6.8800 763.0000 1.0000
6.9000 771.0000 1.0000
6.9200 777.0000 1.0000
6.9400 778.0000 1.0000
6.9600 749.0000 1.0000
6.9800 757.0000 1.0000
7.0000 752.0000 1.0000
7.0200 750.0000 1.0000
7.0400 761.0000 1.0000
7.0600 773.0000 1.0000
7.0800 749.0000 1.0000
7.1000 723.0000 1.0000
7.1200 708.0000 1.0000
7.1400 748.0000 1.0000
7.1600 762.0000 1.0000
7.1800 710.0000 1.0000
7.2000 672.0000 1.0000
7.2200 667.0000 1.0000
7.2400 694.0000 1.0000
7.2600 713.0000 1.0000
7.2800 713.0000 1.0000
7.3000 747.0000 1.0000
7.3200 730.0000 1.0000
7.3400 697.0000 1.0000
7.3600 683.0000 1.0000
7.3800 638.0000 1.0000
7.4000 702.0000 1.0000
7.4200 723.0000 1.0000
7.4400 678.0000 1.0000
7.4600 659.0000 1.0000
7.4800 662.0000 1.0000
7.5000 672.0000 1.0000
7.5200 678.0000 1.0000
7.5400 662.0000 1.0000
7.5600 675.0000 1.0000
7.5800 688.0000 1.0000
7.6000 654.0000 1.0000
7.6200 659.0000 1.0000
7.6400 694.0000 1.0000
7.6600 697.0000 1.0000
7.6800 705.0000 1.0000
7.7000 699.0000 1.0000
7.7200 687.0000 1.0000
7.7400 659.0000 1.0000
7.7600 662.0000 1.0000
7.7800 684.0000 1.0000
7.8000 685.0000 1.0000
7.8200 714.0000 1.0000
7.8400 639.0000 1.0000
7.8600 599.0000 1.0000
7.8800 676.0000 1.0000
7.9000 695.0000 1.0000
7.9200 663.0000 1.0000
7.9400 633.0000 1.0000
7.9600 617.0000 1.0000
7.9800 658.0000 1.0000
8.0000 698.0000 1.0000
8.0200 655.0000 1.0000
8.0400 648.0000 1.0000
8.0600 693.0000 1.0000
8.0800 664.0000 1.0000
8.1000 627.0000 1.0000
8.1200 630.0000 1.0000
8.1400 647.0000 1.0000
8.1600 682.0000 1.0000
8.1800 676.0000 1.0000
8.2000 638.0000 1.0000
8.2200 682.0000 1.0000
8.2400 694.0000 1.0000
8.2600 692.0000 1.0000
8.2800 724.0000 1.0000
8.3000 752.0000 1.0000
8.3200 728.0000 1.0000
8.3400 735.0000 1.0000
8.3600 726.0000 1.0000
8.3800 727.0000 1.0000
8.4000 747.0000 1.0000
8.4200 806.0000 1.0000
8.4400 779.0000 1.0000
8.4600 766.0000 1.0000
8.4800 751.0000 1.0000
8.5000 767.0000 1.0000
8.5200 811.0000 1.0000
8.5400 825.0000 1.0000
8.5600 860.0000 1.0000
8.5800 889.0000 1.0000
8.6000 932.0000 1.0000
8.6200 947.0000 1.0000
8.6400 995.0000 1.0000
8.6600 1018.0000 1.0000
8.6800 1010.0000 1.0000
8.7000 1072.0000 1.0000
8.7200 1071.0000 1.0000
8.7400 1065.0000 1.0000
8.7600 1060.0000 1.0000
8.7800 930.0000 1.0000
8.8000 805.0000 1.0000
8.8200 710.0000 1.0000
8.8400 714.0000 1.0000
8.8600 607.0000 1.0000
8.8800 574.0000 1.0000
8.9000 571.0000 1.0000
8.9200 515.0000 1.0000
8.9400 510.0000 1.0000
8.9600 534.0000 1.0000
8.9800 547.0000 1.0000
9.0000 544.0000 1.0000
9.0200 549.0000 1.0000
9.0400 548.0000 1.0000
9.0600 567.0000 1.0000
9.0800 500.0000 1.0000
9.1000 501.0000 1.0000
9.1200 535.0000 1.0000
9.1400 566.0000 1.0000
9.1600 567.0000 1.0000
9.1800 550.0000 1.0000
9.2000 573.0000 1.0000
9.2200 616.0000 1.0000
9.2400 611.0000 1.0000
9.2600 511.0000 1.0000
9.2800 455.0000 1.0000
9.3000 436.0000 1.0000
9.3200 411.0000 1.0000
9.3400 404.0000 1.0000
9.3600 411.0000 1.0000
9.3800 379.0000 1.0000
9.4000 368.0000 1.0000
9.4200 379.0000 1.0000
9.4400 374.0000 1.0000
9.4600 365.0000 1.0000
9.4800 337.0000 1.0000
9.5000 362.0000 1.0000
9.5200 371.0000 1.0000
9.5400 388.0000 1.0000
9.5600 371.0000 1.0000
9.5800 367.0000 1.0000
9.6000 352.0000 1.0000
9.6200 336.0000 1.0000
9.6400 328.0000 1.0000
9.6600 298.0000 1.0000
9.6800 307.0000 1.0000
9.7000 272.0000 1.0000
9.7200 269.0000 1.0000
9.7400 296.0000 1.0000
9.7600 260.0000 1.0000
9.7800 294.0000 1.0000
9.8000 303.0000 1.0000
9.8200 284.0000 1.0000
9.8400 294.0000 1.0000
9.8600 271.0000 1.0000
9.8800 291.0000 1.0000
9.9000 295.0000 1.0000
9.9200 286.0000 1.0000
9.9400 276.0000 1.0000
9.9600 265.0000 1.0000
9.9800 272.0000 1.0000
10.0000 256.0000 1.0000
10.0200 257.0000 1.0000
10.0400 270.0000 1.0000
10.0600 271.0000 1.0000
10.0800 278.0000 1.0000
10.1000 252.0000 1.0000
10.1200 290.0000 1.0000
10.1400 312.0000 1.0000
10.1600 245.0000 1.0000
10.1800 242.0000 1.0000
10.2000 266.0000 1.0000
10.2200 262.0000 1.0000
10.2400 277.0000 1.0000
10.2600 240.0000 1.0000
10.2800 262.0000 1.0000
10.3000 287.0000 1.0000
10.3200 255.0000 1.0000
10.3400 293.0000 1.0000
10.3600 274.0000 1.0000
10.3800 263.0000 1.0000
10.4000 286.0000 1.0000
10.4200 239.0000 1.0000
10.4400 245.0000 1.0000
10.4600 252.0000 1.0000
10.4800 260.0000 1.0000
10.5000 207.0000 1.0000
10.5200 243.0000 1.0000
10.5400 225.0000 1.0000
10.5600 198.0000 1.0000
10.5800 231.0000 1.0000
10.6000 222.0000 1.0000
10.6200 209.0000 1.0000
10.6400 248.0000 1.0000
10.6600 247.0000 1.0000
10.6800 296.0000 1.0000
10.7000 227.0000 1.0000
10.7200 230.0000 1.0000
10.7400 247.0000 1.0000
10.7600 231.0000 1.0000
10.7800 246.0000 1.0000
10.8000 218.0000 1.0000
10.8200 211.0000 1.0000
10.8400 221.0000 1.0000
10.8600 267.0000 1.0000
10.8800 256.0000 1.0000
10.9000 247.0000 1.0000
10.9200 247.0000 1.0000
10.9400 215.0000 1.0000
10.9600 220.0000 1.0000
10.9800 237.0000 1.0000
11.0000 216.0000 1.0000
11.0200 222.0000 1.0000
11.0400 247.0000 1.0000
11.0600 233.0000 1.0000
11.0800 231.0000 1.0000
11.1000 259.0000 1.0000
11.1200 202.0000 1.0000
11.1400 196.0000 1.0000
11.1600 228.0000 1.0000
11.1800 239.0000 1.0000
11.2000 215.0000 1.0000
11.2200 207.0000 1.0000
11.2400 206.0000 1.0000
11.2600 213.0000 1.0000
11.2800 235.0000 1.0000
11.3000 218.0000 1.0000
11.3200 226.0000 1.0000
11.3400 200.0000 1.0000
11.3600 196.0000 1.0000
11.3800 207.0000 1.0000
11.4000 233.0000 1.0000
11.4200 251.0000 1.0000
11.4400 196.0000 1.0000
11.4600 235.0000 1.0000
11.4800 220.0000 1.0000
11.5000 234.0000 1.0000
11.5200 221.0000 1.0000
11.5400 240.0000 1.0000
11.5600 239.0000 1.0000
11.5800 224.0000 1.0000
11.6000 235.0000 1.0000
11.6200 216.0000 1.0000
11.6400 218.0000 1.0000
11.6600 213.0000 1.0000
11.6800 224.0000 1.0000
11.7000 227.0000 1.0000
11.7200 207.0000 1.0000
11.7400 185.0000 1.0000
11.7600 235.0000 1.0000
11.7800 254.0000 1.0000
11.8000 216.0000 1.0000
11.8200 212.0000 1.0000
11.8400 201.0000 1.0000
11.8600 233.0000 1.0000
11.8800 249.0000 1.0000
11.9000 266.0000 1.0000
11.9200 257.0000 1.0000
11.9400 235.0000 1.0000
11.9600 230.0000 1.0000
11.9800 256.0000 1.0000
12.0000 256.0000 1.0000
12.0200 244.0000 1.0000
12.0400 228.0000 1.0000
12.0600 230.0000 1.0000
12.0800 248.0000 1.0000
12.1000 241.0000 1.0000
12.1200 264.0000 1.0000
12.1400 265.0000 1.0000
12.1600 263.0000 1.0000
12.1800 264.0000 1.0000
12.2000 259.0000 1.0000
12.2200 280.0000 1.0000
12.2400 306.0000 1.0000
12.2600 337.0000 1.0000
12.2800 302.0000 1.0000
12.3000 312.0000 1.0000
12.3200 319.0000 1.0000
12.3400 324.0000 1.0000
12.3600 350.0000 1.0000
12.3800 334.0000 1.0000
12.4000 348.0000 1.0000
12.4200 361.0000 1.0000
12.4400 320.0000 1.0000
12.4600 291.0000 1.0000
12.4800 274.0000 1.0000
12.5000 262.0000 1.0000
12.5200 230.0000 1.0000
12.5400 263.0000 1.0000
12.5600 209.0000 1.0000
12.5800 192.0000 1.0000
12.6000 209.0000 1.0000
12.6200 227.0000 1.0000
12.6400 222.0000 1.0000
12.6600 210.0000 1.0000
12.6800 243.0000 1.0000
12.7000 258.0000 1.0000
12.7200 229.0000 1.0000
12.7400 242.0000 1.0000
12.7600 277.0000 1.0000
12.7800 252.0000 1.0000
12.8000 259.0000 1.0000
12.8200 255.0000 1.0000
12.8400 236.0000 1.0000
12.8600 228.0000 1.0000
12.8800 215.0000 1.0000
12.9000 232.0000 1.0000
12.9200 207.0000 1.0000
12.9400 156.0000 1.0000
12.9600 167.0000 1.0000
12.9800 160.0000 1.0000
13.0000 204.0000 1.0000
13.0200 177.0000 1.0000
13.0400 174.0000 1.0000
13.0600 155.0000 1.0000
13.0800 162.0000 1.0000
13.1000 170.0000 1.0000
13.1200 163.0000 1.0000
13.1400 185.0000 1.0000
13.1600 159.0000 1.0000
13.1800 170.0000 1.0000
13.2000 180.0000 1.0000
13.2200 170.0000 1.0000
13.2400 177.0000 1.0000
13.2600 157.0000 1.0000
13.2800 168.0000 1.0000
13.3000 177.0000 1.0000
13.3200 169.0000 1.0000
13.3400 173.0000 1.0000
13.3600 211.0000 1.0000
13.3800 199.0000 1.0000
13.4000 170.0000 1.0000
13.4200 188.0000 1.0000
13.4400 199.0000 1.0000
13.4600 203.0000 1.0000
13.4800 217.0000 1.0000
13.5000 248.0000 1.0000
13.5200 230.0000 1.0000
13.5400 220.0000 1.0000
13.5600 229.0000 1.0000
13.5800 211.0000 1.0000
13.6000 222.0000 1.0000
13.6200 223.0000 1.0000
13.6400 222.0000 1.0000
13.6600 255.0000 1.0000
13.6800 275.0000 1.0000
13.7000 269.0000 1.0000
13.7200 315.0000 1.0000
13.7400 305.0000 1.0000
13.7600 277.0000 1.0000
13.7800 288.0000 1.0000
13.8000 245.0000 1.0000
13.8200 221.0000 1.0000
13.8400 220.0000 1.0000
13.8600 209.0000 1.0000
13.8800 193.0000 1.0000
13.9000 201.0000 1.0000
13.9200 177.0000 1.0000
13.9400 164.0000 1.0000
13.9600 166.0000 1.0000
13.9800 163.0000 1.0000
14.0000 160.0000 1.0000
14.0200 150.0000 1.0000
14.0400 172.0000 1.0000
14.0600 137.0000 1.0000
14.0800 146.0000 1.0000
14.1000 149.0000 1.0000
14.1200 138.0000 1.0000
14.1400 139.0000 1.0000
14.1600 148.0000 1.0000
14.1800 156.0000 1.0000
14.2000 163.0000 1.0000
14.2200 162.0000 1.0000
14.2400 167.0000 1.0000
14.2600 151.0000 1.0000
14.2800 138.0000 1.0000
14.3000 151.0000 1.0000
14.3200 161.0000 1.0000
14.3400 146.0000 1.0000
14.3600 133.0000 1.0000
14.3800 137.0000 1.0000
14.4000 133.0000 1.0000
14.4200 140.0000 1.0000
14.4400 134.0000 1.0000
14.4600 131.0000 1.0000
14.4800 147.0000 1.0000
14.5000 146.0000 1.0000
14.5200 148.0000 1.0000
14.5400 144.0000 1.0000
14.5600 144.0000 1.0000
14.5800 139.0000 1.0000
14.6000 144.0000 1.0000
14.6200 152.0000 1.0000
14.6400 146.0000 1.0000
14.6600 140.0000 1.0000
14.6800 138.0000 1.0000
14.7000 152.0000 1.0000
14.7200 145.0000 1.0000
14.7400 150.0000 1.0000
14.7600 171.0000 1.0000
14.7800 174.0000 1.0000
14.8000 172.0000 1.0000
14.8200 173.0000 1.0000
14.8400 182.0000 1.0000
14.8600 170.0000 1.0000
14.8800 165.0000 1.0000
14.9000 177.0000 1.0000
14.9200 186.0000 1.0000
14.9400 188.0000 1.0000
14.9600 195.0000 1.0000
14.9800 194.0000 1.0000
15.0000 172.0000 1.0000
15.0200 163.0000 1.0000
15.0400 166.0000 1.0000
15.0600 155.0000 1.0000
15.0800 138.0000 1.0000
15.1000 141.0000 1.0000
15.1200 147.0000 1.0000
15.1400 126.0000 1.0000
15.1600 121.0000 1.0000
15.1800 136.0000 1.0000
15.2000 132.0000 1.0000
15.2200 128.0000 1.0000
15.2400 128.0000 1.0000
15.2600 129.0000 1.0000
15.2800 135.0000 1.0000
15.3000 141.0000 1.0000
15.3200 139.0000 1.0000
15.3400 131.0000 1.0000
15.3600 135.0000 1.0000
15.3800 130.0000 1.0000
15.4000 126.0000 1.0000
15.4200 140.0000 1.0000
15.4400 137.0000 1.0000
15.4600 126.0000 1.0000
15.4800 134.0000 1.0000
15.5000 141.0000 1.0000
15.5200 138.0000 1.0000
15.5400 137.0000 1.0000
15.5600 141.0000 1.0000
15.5800 136.0000 1.0000
15.6000 148.0000 1.0000
15.6200 151.0000 1.0000
15.6400 162.0000 1.0000
15.6600 179.0000 1.0000
15.6800 164.0000 1.0000
15.7000 157.0000 1.0000
15.7200 164.0000 1.0000
15.7400 161.0000 1.0000
15.7600 160.0000 1.0000
15.7800 158.0000 1.0000
15.8000 140.0000 1.0000
15.8200 140.0000 1.0000
15.8400 149.0000 1.0000
15.8600 138.0000 1.0000
15.8800 134.0000 1.0000
15.9000 134.0000 1.0000
15.9200 128.0000 1.0000
15.9400 127.0000 1.0000
15.9600 123.0000 1.0000
15.9800 122.0000 1.0000
16.0000 133.0000 1.0000
16.0200 137.0000 1.0000
16.0400 141.0000 1.0000
16.0600 129.0000 1.0000
16.0800 133.0000 1.0000
16.1000 155.0000 1.0000
16.1200 136.0000 1.0000
16.1400 128.0000 1.0000
16.1600 126.0000 1.0000
16.1800 131.0000 1.0000
16.2000 135.0000 1.0000
16.2200 124.0000 1.0000
16.2400 134.0000 1.0000
16.2600 129.0000 1.0000
16.2800 138.0000 1.0000
16.3000 128.0000 1.0000
16.3200 125.0000 1.0000
16.3400 142.0000 1.0000
16.3600 152.0000 1.0000
16.3800 148.0000 1.0000
16.4000 142.0000 1.0000
16.4200 127.0000 1.0000
16.4400 126.0000 1.0000
16.4600 140.0000 1.0000
16.4800 128.0000 1.0000
16.5000 126.0000 1.0000
16.5200 126.0000 1.0000
16.5400 150.0000 1.0000
16.5600 138.0000 1.0000
16.5800 140.0000 1.0000
16.6000 128.0000 1.0000
16.6200 118.0000 1.0000
16.6400 124.0000 1.0000
16.6600 147.0000 1.0000
16.6800 143.0000 1.0000
16.7000 126.0000 1.0000
16.7200 126.0000 1.0000
16.7400 138.0000 1.0000
16.7600 126.0000 1.0000
16.7800 131.0000 1.0000
16.8000 144.0000 1.0000
16.8200 135.0000 1.0000
16.8400 136.0000 1.0000
16.8600 131.0000 1.0000
16.8800 138.0000 1.0000
16.9000 155.0000 1.0000
16.9200 159.0000 1.0000
16.9400 142.0000 1.0000
16.9600 143.0000 1.0000
16.9800 160.0000 1.0000
17.0000 154.0000 1.0000
17.0200 149.0000 1.0000
17.0400 154.0000 1.0000
17.0600 159.0000 1.0000
17.0800 148.0000 1.0000
17.1000 148.0000 1.0000
17.1200 151.0000 1.0000
17.1400 163.0000 1.0000
17.1600 153.0000 1.0000
17.1800 136.0000 1.0000
17.2000 136.0000 1.0000
17.2200 145.0000 1.0000
17.2400 145.0000 1.0000
17.2600 157.0000 1.0000
17.2800 152.0000 1.0000
17.3000 159.0000 1.0000
17.3200 171.0000 1.0000
17.3400 169.0000 1.0000
17.3600 172.0000 1.0000
17.3800 195.0000 1.0000
17.4000 183.0000 1.0000
17.4200 170.0000 1.0000
17.4400 177.0000 1.0000
17.4600 193.0000 1.0000
17.4800 177.0000 1.0000
17.5000 185.0000 1.0000
17.5200 197.0000 1.0000
17.5400 212.0000 1.0000
17.5600 211.0000 1.0000
17.5800 213.0000 1.0000
17.6000 219.0000 1.0000
17.6200 223.0000 1.0000
17.6400 235.0000 1.0000
17.6600 233.0000 1.0000
17.6800 213.0000 1.0000
17.7000 211.0000 1.0000
17.7200 213.0000 1.0000
17.7400 185.0000 1.0000
17.7600 167.0000 1.0000
17.7800 157.0000 1.0000
17.8000 175.0000 1.0000
17.8200 142.0000 1.0000
17.8400 137.0000 1.0000
17.8600 178.0000 1.0000
17.8800 171.0000 1.0000
17.9000 170.0000 1.0000
17.9200 174.0000 1.0000
17.9400 168.0000 1.0000
17.9600 170.0000 1.0000
17.9800 149.0000 1.0000
18.0000 155.0000 1.0000
18.0200 154.0000 1.0000
18.0400 144.0000 1.0000
18.0600 179.0000 1.0000
18.0800 162.0000 1.0000
18.1000 146.0000 1.0000
18.1200 142.0000 1.0000
18.1400 144.0000 1.0000
18.1600 152.0000 1.0000
18.1800 139.0000 1.0000
18.2000 158.0000 1.0000
18.2200 152.0000 1.0000
18.2400 156.0000 1.0000
18.2600 131.0000 1.0000
18.2800 157.0000 1.0000
18.3000 134.0000 1.0000
18.3200 138.0000 1.0000
18.3400 150.0000 1.0000
18.3600 134.0000 1.0000
18.3800 152.0000 1.0000
18.4000 137.0000 1.0000
18.4200 157.0000 1.0000
18.4400 162.0000 1.0000
18.4600 147.0000 1.0000
18.4800 180.0000 1.0000
18.5000 169.0000 1.0000
18.5200 166.0000 1.0000
18.5400 153.0000 1.0000
18.5600 184.0000 1.0000
18.5800 164.0000 1.0000
18.6000 189.0000 1.0000
18.6200 178.0000 1.0000
18.6400 204.0000 1.0000
18.6600 211.0000 1.0000
18.6800 192.0000 1.0000
18.7000 183.0000 1.0000
18.7200 171.0000 1.0000
18.7400 181.0000 1.0000
18.7600 181.0000 1.0000
18.7800 165.0000 1.0000
18.8000 179.0000 1.0000
18.8200 182.0000 1.0000
18.8400 176.0000 1.0000
18.8600 165.0000 1.0000
18.8800 181.0000 1.0000
18.9000 190.0000 1.0000
18.9200 181.0000 1.0000
18.9400 187.0000 1.0000
18.9600 189.0000 1.0000
18.9800 173.0000 1.0000
19.0000 189.0000 1.0000
19.0200 188.0000 1.0000
19.0400 210.0000 1.0000
19.0600 211.0000 1.0000
19.0800 199.0000 1.0000
19.1000 194.0000 1.0000
19.1200 211.0000 1.0000
19.1400 211.0000 1.0000
19.1600 231.0000 1.0000
19.1800 239.0000 1.0000
19.2000 224.0000 1.0000
19.2200 241.0000 1.0000
19.2400 209.0000 1.0000
19.2600 242.0000 1.0000
19.2800 239.0000 1.0000
19.3000 288.0000 1.0000
19.3200 272.0000 1.0000
19.3400 273.0000 1.0000
19.3600 267.0000 1.0000
19.3800 268.0000 1.0000
19.4000 274.0000 1.0000
19.4200 303.0000 1.0000
19.4400 312.0000 1.0000
19.4600 350.0000 1.0000
19.4800 375.0000 1.0000
19.5000 383.0000 1.0000
19.5200 399.0000 1.0000
19.5400 427.0000 1.0000
19.5600 476.0000 1.0000
19.5800 511.0000 1.0000
19.6000 537.0000 1.0000
19.6200 543.0000 1.0000
19.6400 560.0000 1.0000
19.6600 565.0000 1.0000
19.6800 580.0000 1.0000
19.7000 549.0000 1.0000
19.7200 518.0000 1.0000
19.7400 547.0000 1.0000
19.7600 522.0000 1.0000
19.7800 469.0000 1.0000
19.8000 476.0000 1.0000
19.8200 441.0000 1.0000
19.8400 437.0000 1.0000
19.8600 402.0000 1.0000
19.8800 413.0000 1.0000
19.9000 376.0000 1.0000
19.9200 369.0000 1.0000
19.9400 346.0000 1.0000
19.9600 335.0000 1.0000
19.9800 334.0000 1.0000
20.0000 308.0000 1.0000
20.0200 340.0000 1.0000
20.0400 318.0000 1.0000
20.0600 268.0000 1.0000
20.0800 299.0000 1.0000
20.1000 300.0000 1.0000
20.1200 277.0000 1.0000
20.1400 305.0000 1.0000
20.1600 291.0000 1.0000
20.1800 288.0000 1.0000
20.2000 299.0000 1.0000
20.2200 293.0000 1.0000
20.2400 287.0000 1.0000
20.2600 302.0000 1.0000
20.2800 301.0000 1.0000
20.3000 285.0000 1.0000
20.3200 280.0000 1.0000
20.3400 294.0000 1.0000
20.3600 292.0000 1.0000
20.3800 299.0000 1.0000
20.4000 313.0000 1.0000
20.4200 321.0000 1.0000
20.4400 398.0000 1.0000
20.4600 330.0000 1.0000
20.4800 393.0000 1.0000
20.5000 420.0000 1.0000
20.5200 419.0000 1.0000
20.5400 444.0000 1.0000
20.5600 465.0000 1.0000
20.5800 533.0000 1.0000
20.6000 575.0000 1.0000
20.6200 679.0000 1.0000
20.6400 808.0000 1.0000
20.6600 894.0000 1.0000
20.6800 1105.0000 1.0000
20.7000 1262.0000 1.0000
20.7200 1423.0000 1.0000
20.7400 1557.0000 1.0000
20.7600 1554.0000 1.0000
20.7800 1575.0000 1.0000
20.8000 1357.0000 1.0000
20.8200 1113.0000 1.0000
20.8400 884.0000 1.0000
20.8600 763.0000 1.0000
20.8800 557.0000 1.0000
20.9000 452.0000 1.0000
20.9200 396.0000 1.0000
20.9400 405.0000 1.0000
20.9600 375.0000 1.0000
20.9800 323.0000 1.0000
21.0000 349.0000 1.0000
21.0200 319.0000 1.0000
21.0400 324.0000 1.0000
21.0600 308.0000 1.0000
21.0800 333.0000 1.0000
21.1000 286.0000 1.0000
21.1200 330.0000 1.0000
21.1400 287.0000 1.0000
21.1600 273.0000 1.0000
21.1800 317.0000 1.0000
21.2000 289.0000 1.0000
21.2200 298.0000 1.0000
21.2400 291.0000 1.0000
21.2600 330.0000 1.0000
21.2800 312.0000 1.0000
21.3000 281.0000 1.0000
21.3200 310.0000 1.0000
21.3400 276.0000 1.0000
21.3600 260.0000 1.0000
21.3800 249.0000 1.0000
21.4000 221.0000 1.0000
21.4200 233.0000 1.0000
21.4400 262.0000 1.0000
21.4600 256.0000 1.0000
21.4800 251.0000 1.0000
21.5000 246.0000 1.0000
21.5200 234.0000 1.0000
21.5400 229.0000 1.0000
21.5600 224.0000 1.0000
21.5800 228.0000 1.0000
21.6000 260.0000 1.0000
21.6200 258.0000 1.0000
21.6400 251.0000 1.0000
21.6600 280.0000 1.0000
21.6800 305.0000 1.0000
21.7000 310.0000 1.0000
21.7200 365.0000 1.0000
21.7400 375.0000 1.0000
21.7600 409.0000 1.0000
21.7800 416.0000 1.0000
21.8000 470.0000 1.0000
21.8200 593.0000 1.0000
21.8400 589.0000 1.0000
21.8600 622.0000 1.0000
21.8800 695.0000 1.0000
21.9000 691.0000 1.0000
21.9200 706.0000 1.0000
21.9400 686.0000 1.0000
21.9600 627.0000 1.0000
21.9800 559.0000 1.0000
22.0000 478.0000 1.0000
22.0200 428.0000 1.0000
22.0400 362.0000 1.0000
22.0600 333.0000 1.0000
22.0800 266.0000 1.0000
22.1000 249.0000 1.0000
22.1200 236.0000 1.0000
22.1400 204.0000 1.0000
22.1600 221.0000 1.0000
22.1800 231.0000 1.0000
22.2000 242.0000 1.0000
22.2200 235.0000 1.0000
22.2400 233.0000 1.0000
22.2600 217.0000 1.0000
22.2800 238.0000 1.0000
22.3000 244.0000 1.0000
22.3200 222.0000 1.0000
22.3400 243.0000 1.0000
22.3600 241.0000 1.0000
22.3800 229.0000 1.0000
22.4000 249.0000 1.0000
22.4200 223.0000 1.0000
22.4400 249.0000 1.0000
22.4600 211.0000 1.0000
22.4800 233.0000 1.0000
22.5000 224.0000 1.0000
22.5200 244.0000 1.0000
22.5400 257.0000 1.0000
22.5600 244.0000 1.0000
22.5800 229.0000 1.0000
22.6000 258.0000 1.0000
22.6200 248.0000 1.0000
22.6400 260.0000 1.0000
22.6600 245.0000 1.0000
22.6800 274.0000 1.0000
22.7000 246.0000 1.0000
22.7200 251.0000 1.0000
22.7400 272.0000 1.0000
22.7600 302.0000 1.0000
22.7800 285.0000 1.0000
22.8000 275.0000 1.0000
22.8200 292.0000 1.0000
22.8400 310.0000 1.0000
22.8600 346.0000 1.0000
22.8800 338.0000 1.0000
22.9000 344.0000 1.0000
22.9200 341.0000 1.0000
22.9400 317.0000 1.0000
22.9600 314.0000 1.0000
22.9800 308.0000 1.0000
23.0000 299.0000 1.0000
23.0200 298.0000 1.0000
23.0400 294.0000 1.0000
23.0600 269.0000 1.0000
23.0800 243.0000 1.0000
23.1000 254.0000 1.0000
23.1200 277.0000 1.0000
23.1400 258.0000 1.0000
23.1600 271.0000 1.0000
23.1800 260.0000 1.0000
23.2000 247.0000 1.0000
23.2200 247.0000 1.0000
23.2400 247.0000 1.0000
23.2600 310.0000 1.0000
23.2800 321.0000 1.0000
23.3000 357.0000 1.0000
23.3200 380.0000 1.0000
23.3400 396.0000 1.0000
23.3600 444.0000 1.0000
23.3800 545.0000 1.0000
23.4000 563.0000 1.0000
23.4200 558.0000 1.0000
23.4400 561.0000 1.0000
23.4600 580.0000 1.0000
23.4800 572.0000 1.0000
23.5000 565.0000 1.0000
23.5200 573.0000 1.0000
23.5400 518.0000 1.0000
23.5600 493.0000 1.0000
23.5800 474.0000 1.0000
23.6000 406.0000 1.0000
23.6200 387.0000 1.0000
23.6400 385.0000 1.0000
23.6600 360.0000 1.0000
23.6800 353.0000 1.0000
23.7000 323.0000 1.0000
23.7200 303.0000 1.0000
23.7400 277.0000 1.0000
23.7600 276.0000 1.0000
23.7800 280.0000 1.0000
23.8000 310.0000 1.0000
23.8200 309.0000 1.0000
23.8400 297.0000 1.0000
23.8600 272.0000 1.0000
23.8800 269.0000 1.0000
23.9000 305.0000 1.0000
23.9200 314.0000 1.0000
23.9400 339.0000 1.0000
23.9600 391.0000 1.0000
23.9800 417.0000 1.0000
24.0000 421.0000 1.0000
24.0200 458.0000 1.0000
24.0400 507.0000 1.0000
24.0600 532.0000 1.0000
24.0800 558.0000 1.0000
24.1000 555.0000 1.0000
24.1200 587.0000 1.0000
24.1400 590.0000 1.0000
24.1600 631.0000 1.0000
24.1800 635.0000 1.0000
24.2000 583.0000 1.0000
24.2200 518.0000 1.0000
24.2400 496.0000 1.0000
24.2600 494.0000 1.0000
24.2800 424.0000 1.0000
24.3000 394.0000 1.0000
24.3200 361.0000 1.0000
24.3400 336.0000 1.0000
24.3600 350.0000 1.0000
24.3800 344.0000 1.0000
24.4000 329.0000 1.0000
24.4200 327.0000 1.0000
24.4400 298.0000 1.0000
24.4600 285.0000 1.0000
24.4800 303.0000 1.0000
24.5000 291.0000 1.0000
24.5200 284.0000 1.0000
24.5400 281.0000 1.0000
24.5600 246.0000 1.0000
24.5800 246.0000 1.0000
24.6000 265.0000 1.0000
24.6200 255.0000 1.0000
24.6400 259.0000 1.0000
24.6600 258.0000 1.0000
24.6800 256.0000 1.0000
24.7000 243.0000 1.0000
24.7200 242.0000 1.0000
24.7400 256.0000 1.0000
24.7600 260.0000 1.0000
24.7800 245.0000 1.0000
24.8000 238.0000 1.0000
24.8200 246.0000 1.0000
24.8400 264.0000 1.0000
24.8600 272.0000 1.0000
24.8800 265.0000 1.0000
24.9000 280.0000 1.0000
24.9200 299.0000 1.0000
24.9400 286.0000 1.0000
24.9600 306.0000 1.0000
24.9800 319.0000 1.0000
25.0000 310.0000 1.0000
25.0200 317.0000 1.0000
25.0400 338.0000 1.0000
25.0600 317.0000 1.0000
25.0800 358.0000 1.0000
25.1000 380.0000 1.0000
25.1200 386.0000 1.0000
25.1400 402.0000 1.0000
25.1600 411.0000 1.0000
25.1800 418.0000 1.0000
25.2000 447.0000 1.0000
25.2200 471.0000 1.0000
25.2400 503.0000 1.0000
25.2600 541.0000 1.0000
25.2800 586.0000 1.0000
25.3000 638.0000 1.0000
25.3200 710.0000 1.0000
25.3400 806.0000 1.0000
25.3600 895.0000 1.0000
25.3800 992.0000 1.0000
25.4000 1094.0000 1.0000
25.4200 1222.0000 1.0000
25.4400 1313.0000 1.0000
25.4600 1365.0000 1.0000
25.4800 1419.0000 1.0000
25.5000 1340.0000 1.0000
25.5200 1191.0000 1.0000
25.5400 1024.0000 1.0000
25.5600 855.0000 1.0000
25.5800 700.0000 1.0000
25.6000 576.0000 1.0000
25.6200 488.0000 1.0000
25.6400 435.0000 1.0000
25.6600 395.0000 1.0000
25.6800 349.0000 1.0000
25.7000 353.0000 1.0000
25.7200 340.0000 1.0000
25.7400 320.0000 1.0000
25.7600 303.0000 1.0000
25.7800 314.0000 1.0000
25.8000 323.0000 1.0000
25.8200 297.0000 1.0000
25.8400 294.0000 1.0000
25.8600 300.0000 1.0000
25.8800 301.0000 1.0000
25.9000 300.0000 1.0000
25.9200 324.0000 1.0000
25.9400 350.0000 1.0000
25.9600 339.0000 1.0000
25.9800 344.0000 1.0000
26.0000 373.0000 1.0000
26.0200 373.0000 1.0000
26.0400 377.0000 1.0000
26.0600 410.0000 1.0000
26.0800 436.0000 1.0000
26.1000 461.0000 1.0000
26.1200 485.0000 1.0000
26.1400 512.0000 1.0000
26.1600 538.0000 1.0000
26.1800 585.0000 1.0000
26.2000 645.0000 1.0000
26.2200 684.0000 1.0000
26.2400 712.0000 1.0000
26.2600 822.0000 1.0000
26.2800 941.0000 1.0000
26.3000 1059.0000 1.0000
26.3200 1176.0000 1.0000
26.3400 1378.0000 1.0000
26.3600 1669.0000 1.0000
26.3800 1974.0000 1.0000
26.4000 2410.0000 1.0000
26.4200 3030.0000 1.0000
26.4400 3808.0000 1.0000
26.4600 4751.0000 1.0000
26.4800 5629.0000 1.0000
26.5000 6383.0000 1.0000
26.5200 6873.0000 1.0000
26.5400 7003.0000 1.0000
26.5600 6784.0000 1.0000
26.5800 6009.0000 1.0000
26.6000 4907.0000 1.0000
26.6200 3858.0000 1.0000
26.6400 2905.0000 1.0000
26.6600 2151.0000 1.0000
26.6800 1599.0000 1.0000
26.7000 1200.0000 1.0000
26.7200 995.0000 1.0000
26.7400 888.0000 1.0000
26.7600 801.0000 1.0000
26.7800 782.0000 1.0000
26.8000 754.0000 1.0000
26.8200 705.0000 1.0000
26.8400 663.0000 1.0000
26.8600 623.0000 1.0000
26.8800 587.0000 1.0000
26.9000 568.0000 1.0000
26.9200 569.0000 1.0000
26.9400 551.0000 1.0000
26.9600 545.0000 1.0000
26.9800 523.0000 1.0000
27.0000 497.0000 1.0000
27.0200 513.0000 1.0000
27.0400 504.0000 1.0000
27.0600 466.0000 1.0000
27.0800 444.0000 1.0000
27.1000 447.0000 1.0000
27.1200 435.0000 1.0000
27.1400 436.0000 1.0000
27.1600 428.0000 1.0000
27.1800 433.0000 1.0000
27.2000 456.0000 1.0000
27.2200 454.0000 1.0000
27.2400 461.0000 1.0000
27.2600 482.0000 1.0000
27.2800 499.0000 1.0000
27.3000 528.0000 1.0000
27.3200 566.0000 1.0000
27.3400 584.0000 1.0000
27.3600 610.0000 1.0000
27.3800 671.0000 1.0000
27.4000 712.0000 1.0000
27.4200 722.0000 1.0000
27.4400 716.0000 1.0000
27.4600 697.0000 1.0000
27.4800 689.0000 1.0000
27.5000 697.0000 1.0000
27.5200 734.0000 1.0000
27.5400 787.0000 1.0000
27.5600 827.0000 1.0000
27.5800 875.0000 1.0000
27.6000 945.0000 1.0000
27.6200 1023.0000 1.0000
27.6400 1063.0000 1.0000
27.6600 1096.0000 1.0000
27.6800 1142.0000 1.0000
27.7000 1162.0000 1.0000
27.7200 1212.0000 1.0000
27.7400 1266.0000 1.0000
27.7600 1300.0000 1.0000
27.7800 1405.0000 1.0000
27.8000 1525.0000 1.0000
27.8200 1535.0000 1.0000
27.8400 1544.0000 1.0000
27.8600 1523.0000 1.0000
27.8800 1404.0000 1.0000
27.9000 1275.0000 1.0000
27.9200 1176.0000 1.0000
27.9400 1073.0000 1.0000
27.9600 936.0000 1.0000
27.9800 814.0000 1.0000
28.0000 707.0000 1.0000
28.0200 656.0000 1.0000
28.0400 622.0000 1.0000
28.0600 608.0000 1.0000
28.0800 581.0000 1.0000
28.1000 557.0000 1.0000
28.1200 560.0000 1.0000
28.1400 556.0000 1.0000
28.1600 512.0000 1.0000
28.1800 484.0000 1.0000
28.2000 514.0000 1.0000
28.2200 492.0000 1.0000
28.2400 416.0000 1.0000
28.2600 389.0000 1.0000
28.2800 390.0000 1.0000
28.3000 369.0000 1.0000
28.3200 330.0000 1.0000
28.3400 316.0000 1.0000
28.3600 304.0000 1.0000
28.3800 288.0000 1.0000
28.4000 282.0000 1.0000
28.4200 282.0000 1.0000
28.4400 271.0000 1.0000
28.4600 253.0000 1.0000
28.4800 252.0000 1.0000
28.5000 239.0000 1.0000
28.5200 225.0000 1.0000
28.5400 224.0000 1.0000
28.5600 235.0000 1.0000
28.5800 226.0000 1.0000
28.6000 219.0000 1.0000
28.6200 211.0000 1.0000
28.6400 212.0000 1.0000
28.6600 223.0000 1.0000
28.6800 227.0000 1.0000
28.7000 228.0000 1.0000
28.7200 236.0000 1.0000
28.7400 232.0000 1.0000
28.7600 203.0000 1.0000
28.7800 204.0000 1.0000
28.8000 223.0000 1.0000
28.8200 234.0000 1.0000
28.8400 235.0000 1.0000
28.8600 247.0000 1.0000
28.8800 237.0000 1.0000
28.9000 234.0000 1.0000
28.9200 253.0000 1.0000
28.9400 271.0000 1.0000
28.9600 259.0000 1.0000
28.9800 241.0000 1.0000
29.0000 272.0000 1.0000
29.0200 270.0000 1.0000
29.0400 270.0000 1.0000
29.0600 300.0000 1.0000
29.0800 312.0000 1.0000
29.1000 324.0000 1.0000
29.1200 328.0000 1.0000
29.1400 327.0000 1.0000
29.1600 366.0000 1.0000
29.1800 410.0000 1.0000
29.2000 463.0000 1.0000
29.2200 489.0000 1.0000
29.2400 514.0000 1.0000
29.2600 550.0000 1.0000
29.2800 610.0000 1.0000
29.3000 617.0000 1.0000
29.3200 620.0000 1.0000
29.3400 607.0000 1.0000
29.3600 601.0000 1.0000
29.3800 520.0000 1.0000
29.4000 454.0000 1.0000
29.4200 461.0000 1.0000
29.4400 429.0000 1.0000
29.4600 415.0000 1.0000
29.4800 416.0000 1.0000
29.5000 402.0000 1.0000
29.5200 383.0000 1.0000
29.5400 411.0000 1.0000
29.5600 405.0000 1.0000
29.5800 406.0000 1.0000
29.6000 419.0000 1.0000
29.6200 426.0000 1.0000
29.6400 446.0000 1.0000
29.6600 459.0000 1.0000
29.6800 496.0000 1.0000
29.7000 529.0000 1.0000
29.7200 505.0000 1.0000
29.7400 482.0000 1.0000
29.7600 454.0000 1.0000
29.7800 439.0000 1.0000
29.8000 430.0000 1.0000
29.8200 424.0000 1.0000
29.8400 412.0000 1.0000
29.8600 396.0000 1.0000
29.8800 387.0000 1.0000
29.9000 418.0000 1.0000
29.9200 394.0000 1.0000
29.9400 368.0000 1.0000
29.9600 405.0000 1.0000
29.9800 419.0000 1.0000
30.0000 409.0000 1.0000
30.0200 398.0000 1.0000
30.0400 397.0000 1.0000
30.0600 403.0000 1.0000
30.0800 401.0000 1.0000
30.1000 381.0000 1.0000
30.1200 401.0000 1.0000
30.1400 437.0000 1.0000
30.1600 438.0000 1.0000
30.1800 408.0000 1.0000
30.2000 395.0000 1.0000
30.2200 386.0000 1.0000
30.2400 385.0000 1.0000
30.2600 365.0000 1.0000
30.2800 387.0000 1.0000
30.3000 386.0000 1.0000
30.3200 417.0000 1.0000
30.3400 407.0000 1.0000
30.3600 448.0000 1.0000
30.3800 448.0000 1.0000
30.4000 424.0000 1.0000
30.4200 386.0000 1.0000
30.4400 379.0000 1.0000
30.4600 358.0000 1.0000
30.4800 326.0000 1.0000
30.5000 311.0000 1.0000
30.5200 287.0000 1.0000
30.5400 305.0000 1.0000
30.5600 283.0000 1.0000
30.5800 265.0000 1.0000
30.6000 273.0000 1.0000
30.6200 324.0000 1.0000
30.6400 321.0000 1.0000
30.6600 319.0000 1.0000
30.6800 303.0000 1.0000
30.7000 334.0000 1.0000
30.7200 326.0000 1.0000
30.7400 293.0000 1.0000
30.7600 322.0000 1.0000
30.7800 302.0000 1.0000
30.8000 274.0000 1.0000
30.8200 257.0000 1.0000
30.8400 271.0000 1.0000
30.8600 258.0000 1.0000
30.8800 274.0000 1.0000
30.9000 291.0000 1.0000
30.9200 270.0000 1.0000
30.9400 251.0000 1.0000
30.9600 244.0000 1.0000
30.9800 259.0000 1.0000
31.0000 259.0000 1.0000
31.0200 261.0000 1.0000
31.0400 248.0000 1.0000
31.0600 255.0000 1.0000
31.0800 266.0000 1.0000
31.1000 269.0000 1.0000
31.1200 274.0000 1.0000
31.1400 264.0000 1.0000
31.1600 269.0000 1.0000
31.1800 282.0000 1.0000
31.2000 260.0000 1.0000
31.2200 275.0000 1.0000
31.2400 279.0000 1.0000
31.2600 263.0000 1.0000
31.2800 261.0000 1.0000
31.3000 240.0000 1.0000
31.3200 237.0000 1.0000
31.3400 248.0000 1.0000
31.3600 244.0000 1.0000
31.3800 253.0000 1.0000
31.4000 237.0000 1.0000
31.4200 246.0000 1.0000
31.4400 242.0000 1.0000
31.4600 230.0000 1.0000
31.4800 217.0000 1.0000
31.5000 225.0000 1.0000
31.5200 234.0000 1.0000
31.5400 196.0000 1.0000
31.5600 196.0000 1.0000
31.5800 207.0000 1.0000
31.6000 201.0000 1.0000
31.6200 193.0000 1.0000
31.6400 184.0000 1.0000
31.6600 196.0000 1.0000
31.6800 198.0000 1.0000
31.7000 190.0000 1.0000
31.7200 205.0000 1.0000
31.7400 211.0000 1.0000
31.7600 205.0000 1.0000
31.7800 221.0000 1.0000
31.8000 195.0000 1.0000
31.8200 184.0000 1.0000
31.8400 196.0000 1.0000
31.8600 200.0000 1.0000
31.8800 184.0000 1.0000
31.9000 201.0000 1.0000
31.9200 203.0000 1.0000
31.9400 200.0000 1.0000
31.9600 196.0000 1.0000
31.9800 191.0000 1.0000
32.0000 203.0000 1.0000
32.0200 220.0000 1.0000
32.0400 201.0000 1.0000
32.0600 202.0000 1.0000
32.0800 187.0000 1.0000
32.1000 202.0000 1.0000
32.1200 198.0000 1.0000
32.1400 196.0000 1.0000
32.1600 194.0000 1.0000
32.1800 188.0000 1.0000
32.2000 205.0000 1.0000
32.2200 200.0000 1.0000
32.2400 191.0000 1.0000
32.2600 189.0000 1.0000
32.2800 173.0000 1.0000
32.3000 193.0000 1.0000
32.3200 191.0000 1.0000
32.3400 178.0000 1.0000
32.3600 170.0000 1.0000
32.3800 178.0000 1.0000
32.4000 169.0000 1.0000
32.4200 141.0000 1.0000
32.4400 157.0000 1.0000
32.4600 153.0000 1.0000
32.4800 148.0000 1.0000
32.5000 143.0000 1.0000
32.5200 150.0000 1.0000
32.5400 128.0000 1.0000
32.5600 131.0000 1.0000
32.5800 130.0000 1.0000
32.6000 146.0000 1.0000
32.6200 161.0000 1.0000
32.6400 157.0000 1.0000
32.6600 141.0000 1.0000
32.6800 148.0000 1.0000
32.7000 157.0000 1.0000
32.7200 144.0000 1.0000
32.7400 145.0000 1.0000
32.7600 158.0000 1.0000
32.7800 145.0000 1.0000
32.8000 155.0000 1.0000
32.8200 164.0000 1.0000
32.8400 186.0000 1.0000
32.8600 171.0000 1.0000
32.8800 172.0000 1.0000
32.9000 164.0000 1.0000
32.9200 182.0000 1.0000
32.9400 197.0000 1.0000
32.9600 201.0000 1.0000
32.9800 186.0000 1.0000
33.0000 205.0000 1.0000
33.0200 197.0000 1.0000
33.0400 201.0000 1.0000
33.0600 189.0000 1.0000
33.0800 206.0000 1.0000
33.1000 178.0000 1.0000
33.1200 164.0000 1.0000
33.1400 182.0000 1.0000
33.1600 167.0000 1.0000
33.1800 176.0000 1.0000
33.2000 171.0000 1.0000
33.2200 166.0000 1.0000
33.2400 172.0000 1.0000
33.2600 167.0000 1.0000
33.2800 150.0000 1.0000
33.3000 171.0000 1.0000
33.3200 175.0000 1.0000
33.3400 164.0000 1.0000
33.3600 166.0000 1.0000
33.3800 156.0000 1.0000
33.4000 147.0000 1.0000
33.4200 162.0000 1.0000
33.4400 173.0000 1.0000
33.4600 180.0000 1.0000
33.4800 161.0000 1.0000
33.5000 175.0000 1.0000
33.5200 194.0000 1.0000
33.5400 190.0000 1.0000
33.5600 183.0000 1.0000
33.5800 174.0000 1.0000
33.6000 180.0000 1.0000
33.6200 171.0000 1.0000
33.6400 185.0000 1.0000
33.6600 198.0000 1.0000
33.6800 199.0000 1.0000
33.7000 216.0000 1.0000
33.7200 199.0000 1.0000
33.7400 236.0000 1.0000
33.7600 218.0000 1.0000
33.7800 199.0000 1.0000
33.8000 236.0000 1.0000
33.8200 229.0000 1.0000
33.8400 216.0000 1.0000
33.8600 241.0000 1.0000
33.8800 212.0000 1.0000
33.9000 217.0000 1.0000
33.9200 219.0000 1.0000
33.9400 191.0000 1.0000
33.9600 211.0000 1.0000
33.9800 188.0000 1.0000
34.0000 219.0000 1.0000
34.0200 220.0000 1.0000
34.0400 220.0000 1.0000
34.0600 204.0000 1.0000
34.0800 249.0000 1.0000
34.1000 206.0000 1.0000
34.1200 230.0000 1.0000
34.1400 220.0000 1.0000
34.1600 225.0000 1.0000
34.1800 241.0000 1.0000
34.2000 291.0000 1.0000
34.2200 302.0000 1.0000
34.2400 323.0000 1.0000
34.2600 297.0000 1.0000
34.2800 305.0000 1.0000
34.3000 325.0000 1.0000
34.3200 333.0000 1.0000
34.3400 375.0000 1.0000
34.3600 358.0000 1.0000
34.3800 361.0000 1.0000
34.4000 390.0000 1.0000
34.4200 433.0000 1.0000
34.4400 409.0000 1.0000
34.4600 397.0000 1.0000
34.4800 401.0000 1.0000
34.5000 397.0000 1.0000
34.5200 462.0000 1.0000
34.5400 435.0000 1.0000
34.5600 451.0000 1.0000
34.5800 463.0000 1.0000
34.6000 469.0000 1.0000
34.6200 463.0000 1.0000
34.6400 511.0000 1.0000
34.6600 527.0000 1.0000
34.6800 525.0000 1.0000
34.7000 579.0000 1.0000
34.7200 562.0000 1.0000
34.7400 599.0000 1.0000
34.7600 618.0000 1.0000
34.7800 618.0000 1.0000
34.8000 674.0000 1.0000
34.8200 690.0000 1.0000
34.8400 735.0000 1.0000
34.8600 794.0000 1.0000
34.8800 735.0000 1.0000
34.9000 844.0000 1.0000
34.9200 957.0000 1.0000
34.9400 1072.0000 1.0000
34.9600 1191.0000 1.0000
34.9800 1450.0000 1.0000
35.0000 1630.0000 1.0000
35.0200 1868.0000 1.0000
35.0400 1845.0000 1.0000
35.0600 1911.0000 1.0000
35.0800 1854.0000 1.0000
35.1000 1669.0000 1.0000
35.1200 1524.0000 1.0000
35.1400 1280.0000 1.0000
35.1600 1073.0000 1.0000
35.1800 880.0000 1.0000
35.2000 709.0000 1.0000
35.2200 621.0000 1.0000
35.2400 531.0000 1.0000
35.2600 486.0000 1.0000
35.2800 483.0000 1.0000
35.3000 441.0000 1.0000
35.3200 519.0000 1.0000
35.3400 422.0000 1.0000
35.3600 467.0000 1.0000
35.3800 433.0000 1.0000
35.4000 477.0000 1.0000
35.4200 479.0000 1.0000
35.4400 444.0000 1.0000
35.4600 442.0000 1.0000
35.4800 395.0000 1.0000
35.5000 391.0000 1.0000
35.5200 422.0000 1.0000
35.5400 402.0000 1.0000
35.5600 418.0000 1.0000
35.5800 378.0000 1.0000
35.6000 401.0000 1.0000
35.6200 389.0000 1.0000
35.6400 388.0000 1.0000
35.6600 352.0000 1.0000
35.6800 358.0000 1.0000
35.7000 346.0000 1.0000
35.7200 288.0000 1.0000
35.7400 321.0000 1.0000
35.7600 329.0000 1.0000
35.7800 319.0000 1.0000
35.8000 350.0000 1.0000
35.8200 324.0000 1.0000
35.8400 331.0000 1.0000
35.8600 301.0000 1.0000
35.8800 308.0000 1.0000
35.9000 306.0000 1.0000
35.9200 305.0000 1.0000
35.9400 310.0000 1.0000
35.9600 304.0000 1.0000
35.9800 306.0000 1.0000
36.0000 298.0000 1.0000
36.0200 318.0000 1.0000
36.0400 303.0000 1.0000
36.0600 267.0000 1.0000
36.0800 264.0000 1.0000
36.1000 284.0000 1.0000
36.1200 278.0000 1.0000
36.1400 331.0000 1.0000
36.1600 285.0000 1.0000
36.1800 270.0000 1.0000
36.2000 287.0000 1.0000
36.2200 275.0000 1.0000
36.2400 314.0000 1.0000
36.2600 349.0000 1.0000
36.2800 327.0000 1.0000
36.3000 358.0000 1.0000
36.3200 414.0000 1.0000
36.3400 457.0000 1.0000
36.3600 516.0000 1.0000
36.3800 542.0000 1.0000
36.4000 634.0000 1.0000
36.4200 700.0000 1.0000
36.4400 739.0000 1.0000
36.4600 738.0000 1.0000
36.4800 711.0000 1.0000
36.5000 687.0000 1.0000
36.5200 645.0000 1.0000
36.5400 563.0000 1.0000
36.5600 539.0000 1.0000
36.5800 470.0000 1.0000
36.6000 392.0000 1.0000
36.6200 408.0000 1.0000
36.6400 363.0000 1.0000
36.6600 356.0000 1.0000
36.6800 306.0000 1.0000
36.7000 326.0000 1.0000
36.7200 325.0000 1.0000
36.7400 321.0000 1.0000
36.7600 312.0000 1.0000
36.7800 283.0000 1.0000
36.8000 308.0000 1.0000
36.8200 276.0000 1.0000
36.8400 266.0000 1.0000
36.8600 259.0000 1.0000
36.8800 263.0000 1.0000
36.9000 275.0000 1.0000
36.9200 284.0000 1.0000
36.9400 251.0000 1.0000
36.9600 254.0000 1.0000
36.9800 249.0000 1.0000
37.0000 265.0000 1.0000
37.0200 268.0000 1.0000
37.0400 253.0000 1.0000
37.0600 263.0000 1.0000
37.0800 252.0000 1.0000
37.1000 258.0000 1.0000
37.1200 271.0000 1.0000
37.1400 250.0000 1.0000
37.1600 250.0000 1.0000
37.1800 255.0000 1.0000
37.2000 243.0000 1.0000
37.2200 252.0000 1.0000
37.2400 267.0000 1.0000
37.2600 269.0000 1.0000
37.2800 296.0000 1.0000
37.3000 278.0000 1.0000
37.3200 291.0000 1.0000
37.3400 289.0000 1.0000
37.3600 271.0000 1.0000
37.3800 290.0000 1.0000
37.4000 295.0000 1.0000
37.4200 303.0000 1.0000
37.4400 320.0000 1.0000
37.4600 292.0000 1.0000
37.4800 341.0000 1.0000
37.5000 373.0000 1.0000
37.5200 424.0000 1.0000
37.5400 452.0000 1.0000
37.5600 470.0000 1.0000
37.5800 530.0000 1.0000
37.6000 659.0000 1.0000
37.6200 770.0000 1.0000
37.6400 813.0000 1.0000
37.6600 859.0000 1.0000
37.6800 840.0000 1.0000
37.7000 810.0000 1.0000
37.7200 793.0000 1.0000
37.7400 731.0000 1.0000
37.7600 625.0000 1.0000
37.7800 527.0000 1.0000
37.8000 436.0000 1.0000
37.8200 406.0000 1.0000
37.8400 356.0000 1.0000
37.8600 282.0000 1.0000
37.8800 253.0000 1.0000
37.9000 243.0000 1.0000
37.9200 218.0000 1.0000
37.9400 228.0000 1.0000
37.9600 211.0000 1.0000
37.9800 199.0000 1.0000
38.0000 201.0000 1.0000
38.0200 181.0000 1.0000
38.0400 187.0000 1.0000
38.0600 187.0000 1.0000
38.0800 166.0000 1.0000
38.1000 170.0000 1.0000
38.1200 162.0000 1.0000
38.1400 167.0000 1.0000
38.1600 163.0000 1.0000
38.1800 161.0000 1.0000
38.2000 149.0000 1.0000
38.2200 147.0000 1.0000
38.2400 153.0000 1.0000
38.2600 168.0000 1.0000
38.2800 176.0000 1.0000
38.3000 154.0000 1.0000
38.3200 150.0000 1.0000
38.3400 147.0000 1.0000
38.3600 148.0000 1.0000
38.3800 158.0000 1.0000
38.4000 164.0000 1.0000
38.4200 160.0000 1.0000
38.4400 165.0000 1.0000
38.4600 153.0000 1.0000
38.4800 157.0000 1.0000
38.5000 165.0000 1.0000
38.5200 154.0000 1.0000
38.5400 160.0000 1.0000
38.5600 152.0000 1.0000
38.5800 150.0000 1.0000
38.6000 150.0000 1.0000
38.6200 168.0000 1.0000
38.6400 170.0000 1.0000
38.6600 164.0000 1.0000
38.6800 156.0000 1.0000
38.7000 164.0000 1.0000
38.7200 182.0000 1.0000
38.7400 192.0000 1.0000
38.7600 183.0000 1.0000
38.7800 179.0000 1.0000
38.8000 181.0000 1.0000
38.8200 176.0000 1.0000
38.8400 172.0000 1.0000
38.8600 177.0000 1.0000
38.8800 177.0000 1.0000
38.9000 174.0000 1.0000
38.9200 169.0000 1.0000
38.9400 171.0000 1.0000
38.9600 170.0000 1.0000
38.9800 173.0000 1.0000
39.0000 181.0000 1.0000
39.0200 176.0000 1.0000
39.0400 176.0000 1.0000
39.0600 187.0000 1.0000
39.0800 189.0000 1.0000
39.1000 189.0000 1.0000
39.1200 198.0000 1.0000
39.1400 211.0000 1.0000
39.1600 216.0000 1.0000
39.1800 215.0000 1.0000
39.2000 229.0000 1.0000
39.2200 246.0000 1.0000
39.2400 307.0000 1.0000
39.2600 343.0000 1.0000
39.2800 396.0000 1.0000
39.3000 455.0000 1.0000
39.3200 524.0000 1.0000
39.3400 577.0000 1.0000
39.3600 583.0000 1.0000
39.3800 584.0000 1.0000
39.4000 580.0000 1.0000
39.4200 568.0000 1.0000
39.4400 521.0000 1.0000
39.4600 460.0000 1.0000
39.4800 426.0000 1.0000
39.5000 364.0000 1.0000
39.5200 315.0000 1.0000
39.5400 276.0000 1.0000
39.5600 230.0000 1.0000
39.5800 222.0000 1.0000
39.6000 219.0000 1.0000
39.6200 210.0000 1.0000
39.6400 219.0000 1.0000
39.6600 199.0000 1.0000
39.6800 185.0000 1.0000
39.7000 187.0000 1.0000
39.7200 183.0000 1.0000
39.7400 182.0000 1.0000
39.7600 191.0000 1.0000
39.7800 191.0000 1.0000
39.8000 184.0000 1.0000
39.8200 191.0000 1.0000
39.8400 181.0000 1.0000
39.8600 168.0000 1.0000
39.8800 182.0000 1.0000
39.9000 200.0000 1.0000
39.9200 202.0000 1.0000
39.9400 194.0000 1.0000
39.9600 179.0000 1.0000
39.9800 190.0000 1.0000
40.0000 200.0000 1.0000
40.0200 198.0000 1.0000
40.0400 218.0000 1.0000
40.0600 242.0000 1.0000
40.0800 246.0000 1.0000
40.1000 258.0000 1.0000
40.1200 302.0000 1.0000
40.1400 330.0000 1.0000
40.1600 334.0000 1.0000
40.1800 344.0000 1.0000
40.2000 352.0000 1.0000
40.2200 359.0000 1.0000
40.2400 356.0000 1.0000
40.2600 336.0000 1.0000
40.2800 317.0000 1.0000
40.3000 277.0000 1.0000
40.3200 246.0000 1.0000
40.3400 243.0000 1.0000
40.3600 225.0000 1.0000
40.3800 208.0000 1.0000
40.4000 199.0000 1.0000
40.4200 189.0000 1.0000
40.4400 183.0000 1.0000
40.4600 182.0000 1.0000
40.4800 176.0000 1.0000
40.5000 175.0000 1.0000
40.5200 164.0000 1.0000
40.5400 171.0000 1.0000
40.5600 202.0000 1.0000
40.5800 197.0000 1.0000
40.6000 184.0000 1.0000
40.6200 181.0000 1.0000
40.6400 196.0000 1.0000
40.6600 204.0000 1.0000
40.6800 193.0000 1.0000
40.7000 189.0000 1.0000
40.7200 186.0000 1.0000
40.7400 195.0000 1.0000
40.7600 191.0000 1.0000
40.7800 185.0000 1.0000
40.8000 199.0000 1.0000
40.8200 203.0000 1.0000
40.8400 200.0000 1.0000
40.8600 203.0000 1.0000
40.8800 202.0000 1.0000
40.9000 195.0000 1.0000
40.9200 188.0000 1.0000
40.9400 180.0000 1.0000
40.9600 178.0000 1.0000
40.9800 171.0000 1.0000
41.0000 164.0000 1.0000
41.0200 170.0000 1.0000
41.0400 182.0000 1.0000
41.0600 193.0000 1.0000
41.0800 185.0000 1.0000
41.1000 182.0000 1.0000
41.1200 187.0000 1.0000
41.1400 191.0000 1.0000
41.1600 187.0000 1.0000
41.1800 180.0000 1.0000
41.2000 174.0000 1.0000
41.2200 186.0000 1.0000
41.2400 190.0000 1.0000
41.2600 182.0000 1.0000
41.2800 181.0000 1.0000
41.3000 186.0000 1.0000
41.3200 184.0000 1.0000
41.3400 186.0000 1.0000
41.3600 191.0000 1.0000
41.3800 189.0000 1.0000
41.4000 185.0000 1.0000
41.4200 166.0000 1.0000
41.4400 171.0000 1.0000
41.4600 178.0000 1.0000
41.4800 196.0000 1.0000
41.5000 217.0000 1.0000
41.5200 218.0000 1.0000
41.5400 226.0000 1.0000
41.5600 226.0000 1.0000
41.5800 224.0000 1.0000
41.6000 230.0000 1.0000
41.6200 227.0000 1.0000
41.6400 231.0000 1.0000
41.6600 238.0000 1.0000
41.6800 232.0000 1.0000
41.7000 238.0000 1.0000
41.7200 224.0000 1.0000
41.7400 216.0000 1.0000
41.7600 239.0000 1.0000
41.7800 230.0000 1.0000
41.8000 215.0000 1.0000
41.8200 234.0000 1.0000
41.8400 233.0000 1.0000
41.8600 218.0000 1.0000
41.8800 215.0000 1.0000
41.9000 240.0000 1.0000
41.9200 235.0000 1.0000
41.9400 246.0000 1.0000
41.9600 245.0000 1.0000
41.9800 218.0000 1.0000
42.0000 212.0000 1.0000
42.0200 221.0000 1.0000
42.0400 234.0000 1.0000
42.0600 258.0000 1.0000
42.0800 262.0000 1.0000
42.1000 269.0000 1.0000
42.1200 275.0000 1.0000
42.1400 276.0000 1.0000
42.1600 285.0000 1.0000
42.1800 308.0000 1.0000
42.2000 320.0000 1.0000
42.2200 342.0000 1.0000
42.2400 358.0000 1.0000
42.2600 422.0000 1.0000
42.2800 460.0000 1.0000
42.3000 515.0000 1.0000
42.3200 498.0000 1.0000
42.3400 507.0000 1.0000
42.3600 543.0000 1.0000
42.3800 542.0000 1.0000
42.4000 514.0000 1.0000
42.4200 490.0000 1.0000
42.4400 440.0000 1.0000
42.4600 406.0000 1.0000
42.4800 369.0000 1.0000
42.5000 324.0000 1.0000
42.5200 297.0000 1.0000
42.5400 289.0000 1.0000
42.5600 261.0000 1.0000
42.5800 265.0000 1.0000
42.6000 222.0000 1.0000
42.6200 219.0000 1.0000
42.6400 225.0000 1.0000
42.6600 233.0000 1.0000
42.6800 235.0000 1.0000
42.7000 220.0000 1.0000
42.7200 224.0000 1.0000
42.7400 241.0000 1.0000
42.7600 227.0000 1.0000
42.7800 219.0000 1.0000
42.8000 214.0000 1.0000
42.8200 234.0000 1.0000
42.8400 235.0000 1.0000
42.8600 219.0000 1.0000
42.8800 232.0000 1.0000
42.9000 251.0000 1.0000
42.9200 243.0000 1.0000
42.9400 283.0000 1.0000
42.9600 268.0000 1.0000
42.9800 280.0000 1.0000
43.0000 304.0000 1.0000
43.0200 307.0000 1.0000
43.0400 336.0000 1.0000
43.0600 402.0000 1.0000
43.0800 445.0000 1.0000
43.1000 497.0000 1.0000
43.1200 602.0000 1.0000
43.1400 716.0000 1.0000
43.1600 902.0000 1.0000
43.1800 1125.0000 1.0000
43.2000 1293.0000 1.0000
43.2200 1516.0000 1.0000
43.2400 1653.0000 1.0000
43.2600 1685.0000 1.0000
43.2800 1630.0000 1.0000
43.3000 1568.0000 1.0000
43.3200 1494.0000 1.0000
43.3400 1254.0000 1.0000
43.3600 1106.0000 1.0000
43.3800 1003.0000 1.0000
43.4000 867.0000 1.0000
43.4200 708.0000 1.0000
43.4400 571.0000 1.0000
43.4600 437.0000 1.0000
43.4800 372.0000 1.0000
43.5000 298.0000 1.0000
43.5200 270.0000 1.0000
43.5400 240.0000 1.0000
43.5600 241.0000 1.0000
43.5800 213.0000 1.0000
43.6000 203.0000 1.0000
43.6200 194.0000 1.0000
43.6400 198.0000 1.0000
43.6600 188.0000 1.0000
43.6800 211.0000 1.0000
43.7000 198.0000 1.0000
43.7200 207.0000 1.0000
43.7400 162.0000 1.0000
43.7600 160.0000 1.0000
43.7800 164.0000 1.0000
43.8000 170.0000 1.0000
43.8200 169.0000 1.0000
43.8400 187.0000 1.0000
43.8600 174.0000 1.0000
43.8800 176.0000 1.0000
43.9000 176.0000 1.0000
43.9200 166.0000 1.0000
43.9400 157.0000 1.0000
43.9600 177.0000 1.0000
43.9800 148.0000 1.0000
44.0000 157.0000 1.0000
44.0200 163.0000 1.0000
44.0400 165.0000 1.0000
44.0600 163.0000 1.0000
44.0800 151.0000 1.0000
44.1000 162.0000 1.0000
44.1200 150.0000 1.0000
44.1400 140.0000 1.0000
44.1600 147.0000 1.0000
44.1800 166.0000 1.0000
44.2000 151.0000 1.0000
44.2200 176.0000 1.0000
44.2400 153.0000 1.0000
44.2600 146.0000 1.0000
44.2800 154.0000 1.0000
44.3000 185.0000 1.0000
44.3200 160.0000 1.0000
44.3400 139.0000 1.0000
44.3600 145.0000 1.0000
44.3800 156.0000 1.0000
44.4000 178.0000 1.0000
44.4200 157.0000 1.0000
44.4400 167.0000 1.0000
44.4600 167.0000 1.0000
44.4800 177.0000 1.0000
44.5000 147.0000 1.0000
44.5200 141.0000 1.0000
44.5400 154.0000 1.0000
44.5600 161.0000 1.0000
44.5800 154.0000 1.0000
44.6000 168.0000 1.0000
44.6200 161.0000 1.0000
44.6400 159.0000 1.0000
44.6600 158.0000 1.0000
44.6800 154.0000 1.0000
44.7000 164.0000 1.0000
44.7200 166.0000 1.0000
44.7400 167.0000 1.0000
44.7600 182.0000 1.0000
44.7800 192.0000 1.0000
44.8000 177.0000 1.0000
44.8200 185.0000 1.0000
44.8400 174.0000 1.0000
44.8600 174.0000 1.0000
44.8800 181.0000 1.0000
44.9000 163.0000 1.0000
44.9200 181.0000 1.0000
44.9400 185.0000 1.0000
44.9600 192.0000 1.0000
44.9800 197.0000 1.0000
45.0000 206.0000 1.0000
45.0200 182.0000 1.0000
45.0400 189.0000 1.0000
45.0600 173.0000 1.0000
45.0800 197.0000 1.0000
45.1000 222.0000 1.0000
45.1200 219.0000 1.0000
45.1400 213.0000 1.0000
45.1600 172.0000 1.0000
45.1800 195.0000 1.0000
45.2000 217.0000 1.0000
45.2200 201.0000 1.0000
45.2400 196.0000 1.0000
45.2600 198.0000 1.0000
45.2800 240.0000 1.0000
45.3000 228.0000 1.0000
45.3200 225.0000 1.0000
45.3400 225.0000 1.0000
45.3600 233.0000 1.0000
45.3800 215.0000 1.0000
45.4000 209.0000 1.0000
45.4200 204.0000 1.0000
45.4400 226.0000 1.0000
45.4600 215.0000 1.0000
45.4800 207.0000 1.0000
45.5000 200.0000 1.0000
45.5200 237.0000 1.0000
45.5400 200.0000 1.0000
45.5600 216.0000 1.0000
45.5800 249.0000 1.0000
45.6000 256.0000 1.0000
45.6200 267.0000 1.0000
45.6400 330.0000 1.0000
45.6600 321.0000 1.0000
45.6800 397.0000 1.0000
45.7000 373.0000 1.0000
45.7200 370.0000 1.0000
45.7400 321.0000 1.0000
45.7600 333.0000 1.0000
45.7800 314.0000 1.0000
45.8000 273.0000 1.0000
45.8200 276.0000 1.0000
45.8400 226.0000 1.0000
45.8600 245.0000 1.0000
45.8800 231.0000 1.0000
45.9000 211.0000 1.0000
45.9200 198.0000 1.0000
45.9400 174.0000 1.0000
45.9600 186.0000 1.0000
45.9800 171.0000 1.0000
46.0000 180.0000 1.0000
46.0200 184.0000 1.0000
46.0400 188.0000 1.0000
46.0600 186.0000 1.0000
46.0800 169.0000 1.0000
46.1000 175.0000 1.0000
46.1200 174.0000 1.0000
46.1400 185.0000 1.0000
46.1600 182.0000 1.0000
46.1800 180.0000 1.0000
46.2000 184.0000 1.0000
46.2200 162.0000 1.0000
46.2400 160.0000 1.0000
46.2600 153.0000 1.0000
46.2800 159.0000 1.0000
46.3000 151.0000 1.0000
46.3200 128.0000 1.0000
46.3400 138.0000 1.0000
46.3600 143.0000 1.0000
46.3800 138.0000 1.0000
46.4000 136.0000 1.0000
46.4200 124.0000 1.0000
46.4400 136.0000 1.0000
46.4600 132.0000 1.0000
46.4800 147.0000 1.0000
46.5000 145.0000 1.0000
46.5200 131.0000 1.0000
46.5400 134.0000 1.0000
46.5600 156.0000 1.0000
46.5800 145.0000 1.0000
46.6000 142.0000 1.0000
46.6200 133.0000 1.0000
46.6400 161.0000 1.0000
46.6600 126.0000 1.0000
46.6800 142.0000 1.0000
46.7000 137.0000 1.0000
46.7200 143.0000 1.0000
46.7400 121.0000 1.0000
46.7600 128.0000 1.0000
46.7800 126.0000 1.0000
46.8000 126.0000 1.0000
46.8200 139.0000 1.0000
46.8400 141.0000 1.0000
46.8600 135.0000 1.0000
46.8800 156.0000 1.0000
46.9000 156.0000 1.0000
46.9200 131.0000 1.0000
46.9400 129.0000 1.0000
46.9600 141.0000 1.0000
46.9800 155.0000 1.0000
47.0000 175.0000 1.0000
47.0200 191.0000 1.0000
47.0400 160.0000 1.0000
47.0600 146.0000 1.0000
47.0800 146.0000 1.0000
47.1000 143.0000 1.0000
47.1200 141.0000 1.0000
47.1400 153.0000 1.0000
47.1600 169.0000 1.0000
47.1800 158.0000 1.0000
47.2000 162.0000 1.0000
47.2200 167.0000 1.0000
47.2400 161.0000 1.0000
47.2600 148.0000 1.0000
47.2800 150.0000 1.0000
47.3000 165.0000 1.0000
47.3200 161.0000 1.0000
47.3400 158.0000 1.0000
47.3600 159.0000 1.0000
47.3800 169.0000 1.0000
47.4000 160.0000 1.0000
47.4200 170.0000 1.0000
47.4400 174.0000 1.0000
47.4600 176.0000 1.0000
47.4800 166.0000 1.0000
47.5000 138.0000 1.0000
47.5200 127.0000 1.0000
47.5400 154.0000 1.0000
47.5600 149.0000 1.0000
47.5800 146.0000 1.0000
47.6000 162.0000 1.0000
47.6200 153.0000 1.0000
47.6400 134.0000 1.0000
47.6600 146.0000 1.0000
47.6800 160.0000 1.0000
47.7000 149.0000 1.0000
47.7200 141.0000 1.0000
47.7400 151.0000 1.0000
47.7600 162.0000 1.0000
47.7800 154.0000 1.0000
47.8000 154.0000 1.0000
47.8200 151.0000 1.0000
47.8400 146.0000 1.0000
47.8600 134.0000 1.0000
47.8800 149.0000 1.0000
47.9000 165.0000 1.0000
47.9200 156.0000 1.0000
47.9400 140.0000 1.0000
47.9600 144.0000 1.0000
47.9800 162.0000 1.0000
48.0000 168.0000 1.0000
48.0200 159.0000 1.0000
48.0400 164.0000 1.0000
48.0600 173.0000 1.0000
48.0800 176.0000 1.0000
48.1000 184.0000 1.0000
48.1200 183.0000 1.0000
48.1400 158.0000 1.0000
48.1600 152.0000 1.0000
48.1800 155.0000 1.0000
48.2000 169.0000 1.0000
48.2200 170.0000 1.0000
48.2400 186.0000 1.0000
48.2600 184.0000 1.0000
48.2800 162.0000 1.0000
48.3000 157.0000 1.0000
48.3200 164.0000 1.0000
48.3400 163.0000 1.0000
48.3600 166.0000 1.0000
48.3800 191.0000 1.0000
48.4000 189.0000 1.0000
48.4200 174.0000 1.0000
48.4400 170.0000 1.0000
48.4600 167.0000 1.0000
48.4800 162.0000 1.0000
48.5000 153.0000 1.0000
48.5200 169.0000 1.0000
48.5400 177.0000 1.0000
48.5600 165.0000 1.0000
48.5800 160.0000 1.0000
48.6000 159.0000 1.0000
48.6200 151.0000 1.0000
48.6400 139.0000 1.0000
48.6600 140.0000 1.0000
48.6800 143.0000 1.0000
48.7000 149.0000 1.0000
48.7200 151.0000 1.0000
48.7400 143.0000 1.0000
48.7600 145.0000 1.0000
48.7800 139.0000 1.0000
48.8000 125.0000 1.0000
48.8200 138.0000 1.0000
48.8400 138.0000 1.0000
48.8600 129.0000 1.0000
48.8800 154.0000 1.0000
48.9000 165.0000 1.0000
48.9200 141.0000 1.0000
48.9400 142.0000 1.0000
48.9600 149.0000 1.0000
48.9800 157.0000 1.0000
49.0000 166.0000 1.0000
49.0200 164.0000 1.0000
49.0400 173.0000 1.0000
49.0600 186.0000 1.0000
49.0800 188.0000 1.0000
49.1000 178.0000 1.0000
49.1200 193.0000 1.0000
49.1400 191.0000 1.0000
49.1600 186.0000 1.0000
49.1800 187.0000 1.0000
49.2000 182.0000 1.0000
49.2200 191.0000 1.0000
49.2400 185.0000 1.0000
49.2600 168.0000 1.0000
49.2800 165.0000 1.0000
49.3000 168.0000 1.0000
49.3200 174.0000 1.0000
49.3400 166.0000 1.0000
49.3600 171.0000 1.0000
49.3800 176.0000 1.0000
49.4000 180.0000 1.0000
49.4200 180.0000 1.0000
49.4400 179.0000 1.0000
49.4600 192.0000 1.0000
49.4800 194.0000 1.0000
49.5000 185.0000 1.0000
49.5200 199.0000 1.0000
49.5400 203.0000 1.0000
49.5600 205.0000 1.0000
49.5800 194.0000 1.0000
49.6000 207.0000 1.0000
49.6200 220.0000 1.0000
49.6400 214.0000 1.0000
49.6600 204.0000 1.0000
49.6800 202.0000 1.0000
49.7000 222.0000 1.0000
49.7200 234.0000 1.0000
49.7400 227.0000 1.0000
49.7600 241.0000 1.0000
49.7800 258.0000 1.0000
49.8000 266.0000 1.0000
49.8200 280.0000 1.0000
49.8400 288.0000 1.0000
49.8600 311.0000 1.0000
49.8800 337.0000 1.0000
49.9000 377.0000 1.0000
49.9200 428.0000 1.0000
49.9400 496.0000 1.0000
49.9600 550.0000 1.0000
49.9800 625.0000 1.0000
50.0000 723.0000 1.0000
50.0200 781.0000 1.0000
50.0400 819.0000 1.0000
50.0600 826.0000 1.0000
50.0800 797.0000 1.0000
50.1000 718.0000 1.0000
50.1200 606.0000 1.0000
50.1400 546.0000 1.0000
50.1600 534.0000 1.0000
50.1800 501.0000 1.0000
50.2000 459.0000 1.0000
50.2200 405.0000 1.0000
50.2400 347.0000 1.0000
50.2600 265.0000 1.0000
50.2800 242.0000 1.0000
50.3000 210.0000 1.0000
50.3200 194.0000 1.0000
50.3400 203.0000 1.0000
50.3600 188.0000 1.0000
50.3800 187.0000 1.0000
50.4000 195.0000 1.0000
50.4200 197.0000 1.0000
50.4400 192.0000 1.0000
50.4600 196.0000 1.0000
50.4800 219.0000 1.0000
50.5000 220.0000 1.0000
50.5200 203.0000 1.0000
50.5400 220.0000 1.0000
50.5600 232.0000 1.0000
50.5800 252.0000 1.0000
50.6000 231.0000 1.0000
50.6200 240.0000 1.0000
50.6400 218.0000 1.0000
50.6600 212.0000 1.0000
50.6800 215.0000 1.0000
50.7000 204.0000 1.0000
50.7200 195.0000 1.0000
50.7400 204.0000 1.0000
50.7600 186.0000 1.0000
50.7800 180.0000 1.0000
50.8000 157.0000 1.0000
50.8200 181.0000 1.0000
50.8400 165.0000 1.0000
50.8600 153.0000 1.0000
50.8800 163.0000 1.0000
50.9000 160.0000 1.0000
50.9200 169.0000 1.0000
50.9400 184.0000 1.0000
50.9600 166.0000 1.0000
50.9800 161.0000 1.0000
51.0000 151.0000 1.0000
51.0200 182.0000 1.0000
51.0400 188.0000 1.0000
51.0600 188.0000 1.0000
51.0800 201.0000 1.0000
51.1000 179.0000 1.0000
51.1200 176.0000 1.0000
51.1400 173.0000 1.0000
51.1600 163.0000 1.0000
51.1800 179.0000 1.0000
51.2000 201.0000 1.0000
51.2200 183.0000 1.0000
51.2400 155.0000 1.0000
51.2600 155.0000 1.0000
51.2800 170.0000 1.0000
51.3000 161.0000 1.0000
51.3200 171.0000 1.0000
51.3400 182.0000 1.0000
51.3600 149.0000 1.0000
51.3800 158.0000 1.0000
51.4000 159.0000 1.0000
51.4200 152.0000 1.0000
51.4400 168.0000 1.0000
51.4600 138.0000 1.0000
51.4800 130.0000 1.0000
51.5000 146.0000 1.0000
51.5200 149.0000 1.0000
51.5400 129.0000 1.0000
51.5600 151.0000 1.0000
51.5800 152.0000 1.0000
51.6000 144.0000 1.0000
51.6200 128.0000 1.0000
51.6400 129.0000 1.0000
51.6600 148.0000 1.0000
51.6800 130.0000 1.0000
51.7000 133.0000 1.0000
51.7200 109.0000 1.0000
51.7400 119.0000 1.0000
51.7600 139.0000 1.0000
51.7800 122.0000 1.0000
51.8000 130.0000 1.0000
51.8200 143.0000 1.0000
51.8400 147.0000 1.0000
51.8600 138.0000 1.0000
51.8800 131.0000 1.0000
51.9000 141.0000 1.0000
51.9200 128.0000 1.0000
51.9400 130.0000 1.0000
51.9600 157.0000 1.0000
51.9800 146.0000 1.0000
52.0000 141.0000 1.0000
52.0200 160.0000 1.0000
52.0400 152.0000 1.0000
52.0600 161.0000 1.0000
52.0800 151.0000 1.0000
52.1000 195.0000 1.0000
52.1200 170.0000 1.0000
52.1400 214.0000 1.0000
52.1600 185.0000 1.0000
52.1800 175.0000 1.0000
52.2000 209.0000 1.0000
52.2200 184.0000 1.0000
52.2400 191.0000 1.0000
52.2600 202.0000 1.0000
52.2800 226.0000 1.0000
52.3000 273.0000 1.0000
52.3200 291.0000 1.0000
52.3400 343.0000 1.0000
52.3600 363.0000 1.0000
52.3800 455.0000 1.0000
52.4000 545.0000 1.0000
52.4200 669.0000 1.0000
52.4400 746.0000 1.0000
52.4600 766.0000 1.0000
52.4800 787.0000 1.0000
52.5000 770.0000 1.0000
52.5200 711.0000 1.0000
52.5400 680.0000 1.0000
52.5600 567.0000 1.0000
52.5800 530.0000 1.0000
52.6000 504.0000 1.0000
52.6200 486.0000 1.0000
52.6400 418.0000 1.0000
52.6600 383.0000 1.0000
52.6800 323.0000 1.0000
52.7000 284.0000 1.0000
52.7200 244.0000 1.0000
52.7400 218.0000 1.0000
52.7600 195.0000 1.0000
52.7800 198.0000 1.0000
52.8000 171.0000 1.0000
52.8200 167.0000 1.0000
52.8400 173.0000 1.0000
52.8600 180.0000 1.0000
52.8800 176.0000 1.0000
52.9000 160.0000 1.0000
52.9200 161.0000 1.0000
52.9400 171.0000 1.0000
52.9600 186.0000 1.0000
52.9800 178.0000 1.0000
53.0000 180.0000 1.0000
53.0200 177.0000 1.0000
53.0400 186.0000 1.0000
53.0600 175.0000 1.0000
53.0800 194.0000 1.0000
53.1000 174.0000 1.0000
53.1200 183.0000 1.0000
53.1400 171.0000 1.0000
53.1600 201.0000 1.0000
53.1800 191.0000 1.0000
53.2000 197.0000 1.0000
53.2200 178.0000 1.0000
53.2400 189.0000 1.0000
53.2600 167.0000 1.0000
53.2800 194.0000 1.0000
53.3000 187.0000 1.0000
53.3200 175.0000 1.0000
53.3400 161.0000 1.0000
53.3600 162.0000 1.0000
53.3800 150.0000 1.0000
53.4000 156.0000 1.0000
53.4200 179.0000 1.0000
53.4400 161.0000 1.0000
53.4600 163.0000 1.0000
53.4800 190.0000 1.0000
53.5000 167.0000 1.0000
53.5200 170.0000 1.0000
53.5400 164.0000 1.0000
53.5600 160.0000 1.0000
53.5800 138.0000 1.0000
53.6000 149.0000 1.0000
53.6200 157.0000 1.0000
53.6400 182.0000 1.0000
53.6600 169.0000 1.0000
53.6800 166.0000 1.0000
53.7000 159.0000 1.0000
53.7200 173.0000 1.0000
53.7400 178.0000 1.0000
53.7600 150.0000 1.0000
53.7800 177.0000 1.0000
53.8000 164.0000 1.0000
53.8200 155.0000 1.0000
53.8400 170.0000 1.0000
53.8600 175.0000 1.0000
53.8800 199.0000 1.0000
53.9000 183.0000 1.0000
53.9200 182.0000 1.0000
53.9400 190.0000 1.0000
53.9600 186.0000 1.0000
53.9800 184.0000 1.0000
54.0000 210.0000 1.0000
54.0200 196.0000 1.0000
54.0400 167.0000 1.0000
54.0600 180.0000 1.0000
54.0800 170.0000 1.0000
54.1000 176.0000 1.0000
54.1200 164.0000 1.0000
54.1400 172.0000 1.0000
54.1600 157.0000 1.0000
54.1800 168.0000 1.0000
54.2000 176.0000 1.0000
54.2200 168.0000 1.0000
54.2400 147.0000 1.0000
54.2600 160.0000 1.0000
54.2800 164.0000 1.0000
54.3000 160.0000 1.0000
54.3200 169.0000 1.0000
54.3400 189.0000 1.0000
54.3600 198.0000 1.0000
54.3800 177.0000 1.0000
54.4000 173.0000 1.0000
54.4200 184.0000 1.0000
54.4400 183.0000 1.0000
54.4600 173.0000 1.0000
54.4800 166.0000 1.0000
54.5000 169.0000 1.0000
54.5200 168.0000 1.0000
54.5400 169.0000 1.0000
54.5600 187.0000 1.0000
54.5800 199.0000 1.0000
54.6000 195.0000 1.0000
54.6200 220.0000 1.0000
54.6400 225.0000 1.0000
54.6600 209.0000 1.0000
54.6800 252.0000 1.0000
54.7000 299.0000 1.0000
54.7200 312.0000 1.0000
54.7400 318.0000 1.0000
54.7600 330.0000 1.0000
54.7800 374.0000 1.0000
54.8000 370.0000 1.0000
54.8200 336.0000 1.0000
54.8400 331.0000 1.0000
54.8600 321.0000 1.0000
54.8800 337.0000 1.0000
54.9000 321.0000 1.0000
54.9200 265.0000 1.0000
54.9400 263.0000 1.0000
54.9600 277.0000 1.0000
54.9800 272.0000 1.0000
55.0000 245.0000 1.0000
55.0200 227.0000 1.0000
55.0400 227.0000 1.0000
55.0600 214.0000 1.0000
55.0800 222.0000 1.0000
55.1000 239.0000 1.0000
55.1200 232.0000 1.0000
55.1400 228.0000 1.0000
55.1600 228.0000 1.0000
55.1800 228.0000 1.0000
55.2000 250.0000 1.0000
55.2200 278.0000 1.0000
55.2400 262.0000 1.0000
55.2600 236.0000 1.0000
55.2800 230.0000 1.0000
55.3000 220.0000 1.0000
55.3200 222.0000 1.0000
55.3400 231.0000 1.0000
55.3600 231.0000 1.0000
55.3800 231.0000 1.0000
55.4000 211.0000 1.0000
55.4200 200.0000 1.0000
55.4400 197.0000 1.0000
55.4600 196.0000 1.0000
55.4800 190.0000 1.0000
55.5000 189.0000 1.0000
55.5200 190.0000 1.0000
55.5400 177.0000 1.0000
55.5600 175.0000 1.0000
55.5800 186.0000 1.0000
55.6000 178.0000 1.0000
55.6200 180.0000 1.0000
55.6400 192.0000 1.0000
55.6600 182.0000 1.0000
55.6800 179.0000 1.0000
55.7000 186.0000 1.0000
55.7200 183.0000 1.0000
55.7400 198.0000 1.0000
55.7600 207.0000 1.0000
55.7800 184.0000 1.0000
55.8000 185.0000 1.0000
55.8200 184.0000 1.0000
55.8400 172.0000 1.0000
55.8600 157.0000 1.0000
55.8800 144.0000 1.0000
55.9000 155.0000 1.0000
55.9200 173.0000 1.0000
55.9400 193.0000 1.0000
55.9600 182.0000 1.0000
55.9800 172.0000 1.0000
56.0000 179.0000 1.0000
56.0200 156.0000 1.0000
56.0400 149.0000 1.0000
56.0600 164.0000 1.0000
56.0800 167.0000 1.0000
56.1000 172.0000 1.0000
56.1200 182.0000 1.0000
56.1400 190.0000 1.0000
56.1600 184.0000 1.0000
56.1800 167.0000 1.0000
56.2000 168.0000 1.0000
56.2200 167.0000 1.0000
56.2400 161.0000 1.0000
56.2600 166.0000 1.0000
56.2800 167.0000 1.0000
56.3000 178.0000 1.0000
56.3200 191.0000 1.0000
56.3400 189.0000 1.0000
56.3600 175.0000 1.0000
56.3800 172.0000 1.0000
56.4000 192.0000 1.0000
56.4200 197.0000 1.0000
56.4400 175.0000 1.0000
56.4600 184.0000 1.0000
56.4800 209.0000 1.0000
56.5000 205.0000 1.0000
56.5200 201.0000 1.0000
56.5400 204.0000 1.0000
56.5600 188.0000 1.0000
56.5800 180.0000 1.0000
56.6000 201.0000 1.0000
56.6200 198.0000 1.0000
56.6400 175.0000 1.0000
56.6600 192.0000 1.0000
56.6800 185.0000 1.0000
56.7000 181.0000 1.0000
56.7200 171.0000 1.0000
56.7400 186.0000 1.0000
56.7600 185.0000 1.0000
56.7800 172.0000 1.0000
56.8000 176.0000 1.0000
56.8200 169.0000 1.0000
56.8400 172.0000 1.0000
56.8600 175.0000 1.0000
56.8800 175.0000 1.0000
56.9000 166.0000 1.0000
56.9200 170.0000 1.0000
56.9400 171.0000 1.0000
56.9600 179.0000 1.0000
56.9800 191.0000 1.0000
57.0000 184.0000 1.0000
57.0200 185.0000 1.0000
57.0400 180.0000 1.0000
57.0600 208.0000 1.0000
57.0800 235.0000 1.0000
57.1000 225.0000 1.0000
57.1200 244.0000 1.0000
57.1400 258.0000 1.0000
57.1600 261.0000 1.0000
57.1800 272.0000 1.0000
57.2000 275.0000 1.0000
57.2200 298.0000 1.0000
57.2400 355.0000 1.0000
57.2600 431.0000 1.0000
57.2800 499.0000 1.0000
57.3000 598.0000 1.0000
57.3200 712.0000 1.0000
57.3400 879.0000 1.0000
57.3600 1047.0000 1.0000
57.3800 1247.0000 1.0000
57.4000 1378.0000 1.0000
57.4200 1411.0000 1.0000
57.4400 1365.0000 1.0000
57.4600 1263.0000 1.0000
57.4800 1121.0000 1.0000
57.5000 1025.0000 1.0000
57.5200 979.0000 1.0000
57.5400 894.0000 1.0000
57.5600 829.0000 1.0000
57.5800 793.0000 1.0000
57.6000 741.0000 1.0000
57.6200 643.0000 1.0000
57.6400 513.0000 1.0000
57.6600 437.0000 1.0000
57.6800 343.0000 1.0000
57.7000 293.0000 1.0000
57.7200 281.0000 1.0000
57.7400 242.0000 1.0000
57.7600 216.0000 1.0000
57.7800 198.0000 1.0000
57.8000 217.0000 1.0000
57.8200 188.0000 1.0000
57.8400 182.0000 1.0000
57.8600 187.0000 1.0000
57.8800 173.0000 1.0000
57.9000 168.0000 1.0000
57.9200 162.0000 1.0000
57.9400 151.0000 1.0000
57.9600 151.0000 1.0000
57.9800 167.0000 1.0000
58.0000 158.0000 1.0000
58.0200 162.0000 1.0000
58.0400 159.0000 1.0000
58.0600 162.0000 1.0000
58.0800 140.0000 1.0000
58.1000 149.0000 1.0000
58.1200 156.0000 1.0000
58.1400 158.0000 1.0000
58.1600 145.0000 1.0000
58.1800 137.0000 1.0000
58.2000 131.0000 1.0000
58.2200 130.0000 1.0000
58.2400 122.0000 1.0000
58.2600 144.0000 1.0000
58.2800 149.0000 1.0000
58.3000 127.0000 1.0000
58.3200 122.0000 1.0000
58.3400 130.0000 1.0000
58.3600 144.0000 1.0000
58.3800 153.0000 1.0000
58.4000 145.0000 1.0000
58.4200 143.0000 1.0000
58.4400 157.0000 1.0000
58.4600 142.0000 1.0000
58.4800 133.0000 1.0000
58.5000 141.0000 1.0000
58.5200 152.0000 1.0000
58.5400 157.0000 1.0000
58.5600 159.0000 1.0000
58.5800 163.0000 1.0000
58.6000 167.0000 1.0000
58.6200 161.0000 1.0000
58.6400 160.0000 1.0000
58.6600 162.0000 1.0000
58.6800 141.0000 1.0000
58.7000 130.0000 1.0000
58.7200 141.0000 1.0000
58.7400 154.0000 1.0000
58.7600 174.0000 1.0000
58.7800 149.0000 1.0000
58.8000 142.0000 1.0000
58.8200 159.0000 1.0000
58.8400 166.0000 1.0000
58.8600 155.0000 1.0000
58.8800 160.0000 1.0000
58.9000 153.0000 1.0000
58.9200 147.0000 1.0000
58.9400 142.0000 1.0000
58.9600 148.0000 1.0000
58.9800 150.0000 1.0000
59.0000 134.0000 1.0000
59.0200 137.0000 1.0000
59.0400 154.0000 1.0000
59.0600 157.0000 1.0000
59.0800 140.0000 1.0000
59.1000 154.0000 1.0000
59.1200 151.0000 1.0000
59.1400 152.0000 1.0000
59.1600 127.0000 1.0000
59.1800 151.0000 1.0000
59.2000 159.0000 1.0000
59.2200 167.0000 1.0000
59.2400 167.0000 1.0000
59.2600 152.0000 1.0000
59.2800 162.0000 1.0000
59.3000 134.0000 1.0000
59.3200 162.0000 1.0000
59.3400 147.0000 1.0000
59.3600 145.0000 1.0000
59.3800 168.0000 1.0000
59.4000 160.0000 1.0000
59.4200 162.0000 1.0000
59.4400 163.0000 1.0000
59.4600 156.0000 1.0000
59.4800 176.0000 1.0000
59.5000 196.0000 1.0000
59.5200 194.0000 1.0000
59.5400 164.0000 1.0000
59.5600 182.0000 1.0000
59.5800 208.0000 1.0000
59.6000 230.0000 1.0000
59.6200 221.0000 1.0000
59.6400 234.0000 1.0000
59.6600 218.0000 1.0000
59.6800 237.0000 1.0000
59.7000 280.0000 1.0000
59.7200 282.0000 1.0000
59.7400 330.0000 1.0000
59.7600 323.0000 1.0000
59.7800 389.0000 1.0000
59.8000 467.0000 1.0000
59.8200 555.0000 1.0000
59.8400 549.0000 1.0000
59.8600 591.0000 1.0000
59.8800 603.0000 1.0000
59.9000 624.0000 1.0000
59.9200 535.0000 1.0000
59.9400 491.0000 1.0000
59.9600 475.0000 1.0000
59.9800 428.0000 1.0000
60.0000 441.0000 1.0000
60.0200 421.0000 1.0000
60.0400 415.0000 1.0000
60.0600 418.0000 1.0000
60.0800 359.0000 1.0000
60.1000 298.0000 1.0000
60.1200 280.0000 1.0000
60.1400 253.0000 1.0000
60.1600 247.0000 1.0000
60.1800 240.0000 1.0000
60.2000 234.0000 1.0000
60.2200 225.0000 1.0000
60.2400 206.0000 1.0000
60.2600 211.0000 1.0000
60.2800 181.0000 1.0000
60.3000 222.0000 1.0000
60.3200 186.0000 1.0000
60.3400 194.0000 1.0000
60.3600 193.0000 1.0000
60.3800 224.0000 1.0000
60.4000 187.0000 1.0000
60.4200 197.0000 1.0000
60.4400 187.0000 1.0000
60.4600 192.0000 1.0000
60.4800 187.0000 1.0000
60.5000 209.0000 1.0000
60.5200 195.0000 1.0000
60.5400 198.0000 1.0000
60.5600 188.0000 1.0000
60.5800 192.0000 1.0000
60.6000 222.0000 1.0000
60.6200 210.0000 1.0000
60.6400 193.0000 1.0000
60.6600 192.0000 1.0000
60.6800 191.0000 1.0000
60.7000 153.0000 1.0000
60.7200 196.0000 1.0000
60.7400 190.0000 1.0000
60.7600 192.0000 1.0000
60.7800 184.0000 1.0000
60.8000 168.0000 1.0000
60.8200 204.0000 1.0000
60.8400 221.0000 1.0000
60.8600 161.0000 1.0000
60.8800 194.0000 1.0000
60.9000 177.0000 1.0000
60.9200 201.0000 1.0000
60.9400 202.0000 1.0000
60.9600 195.0000 1.0000
60.9800 208.0000 1.0000
61.0000 227.0000 1.0000
61.0200 211.0000 1.0000
61.0400 264.0000 1.0000
61.0600 251.0000 1.0000
61.0800 273.0000 1.0000
61.1000 260.0000 1.0000
61.1200 256.0000 1.0000
61.1400 283.0000 1.0000
61.1600 265.0000 1.0000
61.1800 319.0000 1.0000
61.2000 313.0000 1.0000
61.2200 359.0000 1.0000
61.2400 313.0000 1.0000
61.2600 330.0000 1.0000
61.2800 322.0000 1.0000
61.3000 321.0000 1.0000
61.3200 310.0000 1.0000
61.3400 266.0000 1.0000
61.3600 300.0000 1.0000
61.3800 291.0000 1.0000
61.4000 280.0000 1.0000
61.4200 284.0000 1.0000
61.4400 294.0000 1.0000
61.4600 275.0000 1.0000
61.4800 293.0000 1.0000
61.5000 290.0000 1.0000
61.5200 264.0000 1.0000
61.5400 270.0000 1.0000
61.5600 266.0000 1.0000
61.5800 284.0000 1.0000
61.6000 297.0000 1.0000
61.6200 253.0000 1.0000
61.6400 274.0000 1.0000
61.6600 270.0000 1.0000
61.6800 271.0000 1.0000
61.7000 265.0000 1.0000
61.7200 248.0000 1.0000
61.7400 289.0000 1.0000
61.7600 281.0000 1.0000
61.7800 267.0000 1.0000
61.8000 291.0000 1.0000
61.8200 266.0000 1.0000
61.8400 281.0000 1.0000
61.8600 269.0000 1.0000
61.8800 261.0000 1.0000
61.9000 223.0000 1.0000
61.9200 260.0000 1.0000
61.9400 239.0000 1.0000
61.9600 235.0000 1.0000
61.9800 237.0000 1.0000
62.0000 232.0000 1.0000
62.0200 223.0000 1.0000
62.0400 224.0000 1.0000
62.0600 212.0000 1.0000
62.0800 192.0000 1.0000
62.1000 209.0000 1.0000
62.1200 220.0000 1.0000
62.1400 198.0000 1.0000
62.1600 232.0000 1.0000
62.1800 186.0000 1.0000
62.2000 196.0000 1.0000
62.2200 193.0000 1.0000
62.2400 193.0000 1.0000
62.2600 172.0000 1.0000
62.2800 175.0000 1.0000
62.3000 180.0000 1.0000
62.3200 171.0000 1.0000
62.3400 177.0000 1.0000
62.3600 167.0000 1.0000
62.3800 167.0000 1.0000
62.4000 152.0000 1.0000
62.4200 187.0000 1.0000
62.4400 171.0000 1.0000
62.4600 169.0000 1.0000
62.4800 178.0000 1.0000
62.5000 172.0000 1.0000
62.5200 185.0000 1.0000
62.5400 165.0000 1.0000
62.5600 165.0000 1.0000
62.5800 169.0000 1.0000
62.6000 171.0000 1.0000
62.6200 192.0000 1.0000
62.6400 167.0000 1.0000
62.6600 153.0000 1.0000
62.6800 163.0000 1.0000
62.7000 161.0000 1.0000
62.7200 161.0000 1.0000
62.7400 149.0000 1.0000
62.7600 160.0000 1.0000
62.7800 134.0000 1.0000
62.8000 148.0000 1.0000
62.8200 142.0000 1.0000
62.8400 165.0000 1.0000
62.8600 155.0000 1.0000
62.8800 147.0000 1.0000
62.9000 131.0000 1.0000
62.9200 149.0000 1.0000
62.9400 155.0000 1.0000
62.9600 133.0000 1.0000
62.9800 138.0000 1.0000
63.0000 124.0000 1.0000
63.0200 149.0000 1.0000
63.0400 153.0000 1.0000
63.0600 151.0000 1.0000
63.0800 148.0000 1.0000
63.1000 140.0000 1.0000
63.1200 146.0000 1.0000
63.1400 150.0000 1.0000
63.1600 157.0000 1.0000
63.1800 145.0000 1.0000
63.2000 137.0000 1.0000
63.2200 139.0000 1.0000
63.2400 153.0000 1.0000
63.2600 163.0000 1.0000
63.2800 149.0000 1.0000
63.3000 143.0000 1.0000
63.3200 151.0000 1.0000
63.3400 148.0000 1.0000
63.3600 150.0000 1.0000
63.3800 133.0000 1.0000
63.4000 153.0000 1.0000
63.4200 144.0000 1.0000
63.4400 139.0000 1.0000
63.4600 154.0000 1.0000
63.4800 160.0000 1.0000
63.5000 145.0000 1.0000
63.5200 152.0000 1.0000
63.5400 150.0000 1.0000
63.5600 160.0000 1.0000
63.5800 156.0000 1.0000
63.6000 156.0000 1.0000
63.6200 155.0000 1.0000
63.6400 175.0000 1.0000
63.6600 185.0000 1.0000
63.6800 180.0000 1.0000
63.7000 168.0000 1.0000
63.7200 168.0000 1.0000
63.7400 175.0000 1.0000
63.7600 186.0000 1.0000
63.7800 173.0000 1.0000
63.8000 156.0000 1.0000
63.8200 184.0000 1.0000
63.8400 179.0000 1.0000
63.8600 198.0000 1.0000
63.8800 208.0000 1.0000
63.9000 227.0000 1.0000
63.9200 225.0000 1.0000
63.9400 226.0000 1.0000
63.9600 238.0000 1.0000
63.9800 211.0000 1.0000
64.0000 228.0000 1.0000
64.0200 225.0000 1.0000
64.0400 205.0000 1.0000
64.0600 186.0000 1.0000
64.0800 181.0000 1.0000
64.1000 190.0000 1.0000
64.1200 172.0000 1.0000
64.1400 182.0000 1.0000
64.1600 182.0000 1.0000
64.1800 163.0000 1.0000
64.2000 158.0000 1.0000
64.2200 170.0000 1.0000
64.2400 140.0000 1.0000
64.2600 146.0000 1.0000
64.2800 137.0000 1.0000
64.3000 130.0000 1.0000
64.3200 135.0000 1.0000
64.3400 125.0000 1.0000
64.3600 127.0000 1.0000
64.3800 144.0000 1.0000
64.4000 144.0000 1.0000
64.4200 134.0000 1.0000
64.4400 131.0000 1.0000
64.4600 127.0000 1.0000
64.4800 135.0000 1.0000
64.5000 167.0000 1.0000
64.5200 158.0000 1.0000
64.5400 138.0000 1.0000
64.5600 148.0000 1.0000
64.5800 149.0000 1.0000
64.6000 146.0000 1.0000
64.6200 164.0000 1.0000
64.6400 164.0000 1.0000
64.6600 158.0000 1.0000
64.6800 146.0000 1.0000
64.7000 142.0000 1.0000
64.7200 140.0000 1.0000
64.7400 146.0000 1.0000
64.7600 148.0000 1.0000
64.7800 146.0000 1.0000
64.8000 147.0000 1.0000
64.8200 147.0000 1.0000
64.8400 157.0000 1.0000
64.8600 134.0000 1.0000
64.8800 141.0000 1.0000
64.9000 156.0000 1.0000
64.9200 141.0000 1.0000
64.9400 127.0000 1.0000
64.9600 125.0000 1.0000
64.9800 125.0000 1.0000
65.0000 125.0000 1.0000
*RAS_INT_END
*RAS_DATA_END
