*RAS_DATA_START
*RAS_HEADER_START
*CORR_POS_DB_NAME "Angle Correction ASC6 SC WITH Mono_04082019"
*CORR_POS_GONIO_RADIUS ""
*CORR_POS_NODE_INDEX01 ""
*CORR_POS_NODE_INDEX02 ""
*CORR_POS_NODE_INDEX03 ""
*CORR_POS_NODE_INDEX04 ""
*CORR_POS_NODE_INDEX05 ""
*CORR_POS_NODE_INDEX06 ""
*CORR_POS_NODE_INDEX07 ""
*CORR_POS_NODE_INDEX08 ""
*CORR_POS_NODE_INDEX09 ""
*CORR_POS_NODE_INDEX10 ""
*CORR_POS_NODE_INDEX11 ""
*CORR_POS_NODE_LABEL01 "Si(111)"
*CORR_POS_NODE_LABEL02 "Si(220)"
*CORR_POS_NODE_LABEL03 "Si(311)"
*CORR_POS_NODE_LABEL04 "Si(400)"
*CORR_POS_NODE_LABEL05 "Si(331)"
*CORR_POS_NODE_LABEL06 "Si(422)"
*CORR_POS_NODE_LABEL07 "Si(511)"
*CORR_POS_NODE_LABEL08 "Si(440)"
*CORR_POS_NODE_LABEL09 "Si(531)"
*CORR_POS_NODE_LABEL10 "Si(620)"
*CORR_POS_NODE_LABEL11 "Si(533)"
*CORR_POS_NODE_POS_CALC01 "28.377"
*CORR_POS_NODE_POS_CALC02 "47.2506"
*CORR_POS_NODE_POS_CALC03 "56.0725"
*CORR_POS_NODE_POS_CALC04 "69.0822"
*CORR_POS_NODE_POS_CALC05 "76.3294"
*CORR_POS_NODE_POS_CALC06 "87.9853"
*CORR_POS_NODE_POS_CALC07 "94.9091"
*CORR_POS_NODE_POS_CALC08 "106.668"
*CORR_POS_NODE_POS_CALC09 "114.054"
*CORR_POS_NODE_POS_CALC10 "127.511"
*CORR_POS_NODE_POS_CALC11 "136.864"
*CORR_POS_NODE_POS_MEAS01 "28.5058"
*CORR_POS_NODE_POS_MEAS02 "47.345"
*CORR_POS_NODE_POS_MEAS03 "56.1421"
*CORR_POS_NODE_POS_MEAS04 "69.1304"
*CORR_POS_NODE_POS_MEAS05 "76.366"
*CORR_POS_NODE_POS_MEAS06 "88.0213"
*CORR_POS_NODE_POS_MEAS07 "94.9406"
*CORR_POS_NODE_POS_MEAS08 "106.689"
*CORR_POS_NODE_POS_MEAS09 "114.065"
*CORR_POS_NODE_POS_MEAS10 "127.518"
*CORR_POS_NODE_POS_MEAS11 "136.869"
*CORR_POS_OPT_ATTR "集中法"
*CORR_POS_PARAM_MU ""
*CORR_POS_PARAM_PL ""
*CORR_POS_SEMODEL_TYPE "0"
*CORR_POS_STANDARD_TYPE ""
*CORR_POS_VALUE_ANALYZER "None"
*CORR_POS_VALUE_CMONO "None"
*CORR_POS_VALUE_IMONO "None"
*CORR_POS_VALUE_IS "1.250deg"
*CORR_POS_VALUE_ISL "10.0mm"
*CORR_POS_VALUE_ISOLLER "5.0deg"
*CORR_POS_VALUE_RS1 "1.250deg"
*CORR_POS_VALUE_RS2 "0.3mm"
*CORR_POS_VALUE_RSOLLER "5.0deg"
*CORR_POS_XG_FOCUS_L ""
*CORR_POS_XG_WAVE_TYPE ""
*CORR_POS_XG_WAVE_VALUE ""
*DISP_FMT_X "%.2f"
*DISP_FMT_Y "%.0f"
*DISP_FULLSCALE "4189.8000000000"
*DISP_LINE_COLOR "255.0000000000"
*DISP_LINE_STYLE "0.0000000000"
*DISP_LINE_WIDTH "0.2500000000"
*DISP_NOTE "Collected Data-11"
*DISP_OFFSET_Y "0.0000000000"
*DISP_PEAKSEARCH_UNIT_Y "CPS"
*DISP_RANGE_BOTTOM "0.0000000000"
*DISP_RANGE_LEFT "5.0000000000"
*DISP_RANGE_LOGCUTOFF "0.0100000000"
*DISP_RANGE_RIGHT "65.0000000000"
*DISP_RANGE_TOP "4189.8000000000"
*DISP_SCALE_MODE_Y "0.0000000000"
*DISP_TAB_NAME "Theta/2-Theta"
*DISP_TITLE_Y "Intensity"
*DISP_UNIT_Y "CPS"
*DISP_WINDOW_NAME "MSG_MACROENGINE"
*FILE_COMMENT " "
*FILE_MD5 ""
*FILE_MEMO " "
*FILE_OPERATOR "Administrator"
*FILE_PART_ID "MEAS_PBEA_00223"
*FILE_SAMPLE " "
*FILE_TYPE "RAS_RAW"
*FILE_USERGROUP "System Manager"
*FILE_VERSION "1.0000000000"
*HW_ATTACHMENT_ID "ATT1031"
*HW_ATTACHMENT_NAME "6サンプルチェンジャ|ASC-6"
*HW_COUNTER_ID-0 "CUT0021"
*HW_COUNTER_ID-1 "CUT0020"
*HW_COUNTER_ID-2 "CUT0020"
*HW_COUNTER_ID-3 "CMC0021"
*HW_COUNTER_NAME-0 "SC-70|SC-70"
*HW_COUNTER_NAME-1 "None|None"
*HW_COUNTER_NAME-2 "None|None"
*HW_COUNTER_NAME-3 "検出器モノクロメータ|Detector monochromator"
*HW_COUNTER_SELECT_NAME "SC-70|SC-70"
*HW_ECP_HV "671.5000000000"
*HW_ECP_HV_UNIT "V"
*HW_GONIOMETER_ID "GON0070"
*HW_GONIOMETER_NAME "MiniFlex 300/600|MiniFlex 300/600"
*HW_GONIOMETER_RADIUS-0 "79.0"
*HW_GONIOMETER_RADIUS-1 "91.5"
*HW_GONIOMETER_RADIUS-2 "150.0"
*HW_GONIOMETER_RADIUS-3 "0"
*HW_GONIOMETER_RADIUS-4 "103.4"
*HW_GONIOMETER_RADIUS-5 "150.0"
*HW_GONIOMETER_RADIUS-6 "46.6"
*HW_GONIOMETER_RADIUS-7 "160.0"
*HW_I_OPT_ID-0 "ISL0021"
*HW_I_OPT_ID-1 "ISO0021"
*HW_I_OPT_NAME-0 "発散スリット|Divergence slit"
*HW_I_OPT_NAME-1 "入射平行スリット|Incident parallel slit"
*HW_R_ATTENUATER_AUTOMODE "0"
*HW_R_OPT_ID-0 "RSS0021"
*HW_R_OPT_ID-1 "RSO0021"
*HW_R_OPT_ID-2 "RRS0021"
*HW_R_OPT_NAME-0 "散乱スリット|Scattering slit"
*HW_R_OPT_NAME-1 "受光平行スリット|Receiving soller slit"
*HW_R_OPT_NAME-2 "受光スリット|Receiving slit"
*HW_SAMPLE_HOLDER_ID "SMP0000"
*HW_SAMPLE_HOLDER_NAME "無し|None"
*HW_XG_CURRENT_MAX "15"
*HW_XG_CURRENT_MIN "2"
*HW_XG_CURRENT_RESOLUTION "1"
*HW_XG_CURRENT_UNIT "mA"
*HW_XG_FOCUS "1mm x 10mm"
*HW_XG_FOCUS_TYPE "Normal"
*HW_XG_ID "1060"
*HW_XG_NAME "300W/600W 封入管-B|300W/600W Sealed tube-B"
*HW_XG_TARGET_ATOMIC_NUMBER "29.0000000000"
*HW_XG_TARGET_NAME "Cu"
*HW_XG_TYPE "Hermetic"
*HW_XG_VOLTAGE_MAX "40"
*HW_XG_VOLTAGE_MIN "20"
*HW_XG_VOLTAGE_RESOLUTION "1"
*HW_XG_VOLTAGE_UNIT "kV"
*HW_XG_WATT_MAX "0.600"
*HW_XG_WATT_UNIT "kW"
*HW_XG_WAVE_LENGTH_ALPHA1 "1.540593"
*HW_XG_WAVE_LENGTH_ALPHA2 "1.544414"
*HW_XG_WAVE_LENGTH_BETA "1.392250"
*MEAS_COND_AXIS_NAME-0 "Theta/2-Theta"
*MEAS_COND_AXIS_NAME-1 "Spin"
*MEAS_COND_AXIS_NAME-2 "Change"
*MEAS_COND_AXIS_NAME-3 "Soller(inc.)"
*MEAS_COND_AXIS_NAME-4 "IHS"
*MEAS_COND_AXIS_NAME-5 "DS"
*MEAS_COND_AXIS_NAME-6 "SS"
*MEAS_COND_AXIS_NAME-7 "Soller(rec.)"
*MEAS_COND_AXIS_NAME-8 "RS"
*MEAS_COND_AXIS_NAME-9 "Filter"
*MEAS_COND_AXIS_NAME-10 "Monochromator"
*MEAS_COND_AXIS_NAME-11 "HV"
*MEAS_COND_AXIS_NAME-12 "PHA"
*MEAS_COND_AXIS_NAME_INTERNAL-0 "TwoThetaTheta"
*MEAS_COND_AXIS_NAME_INTERNAL-1 "Spin"
*MEAS_COND_AXIS_NAME_INTERNAL-2 "Change"
*MEAS_COND_AXIS_NAME_INTERNAL-3 "IncidentSollerSlit"
*MEAS_COND_AXIS_NAME_INTERNAL-4 "IncidentAxdSlit"
*MEAS_COND_AXIS_NAME_INTERNAL-5 "IncidentSlitBox"
*MEAS_COND_AXIS_NAME_INTERNAL-6 "ReceivingSlitBox1"
*MEAS_COND_AXIS_NAME_INTERNAL-7 "ReceivingSollerSlit"
*MEAS_COND_AXIS_NAME_INTERNAL-8 "ReceivingSlitBox2"
*MEAS_COND_AXIS_NAME_INTERNAL-9 "Filter"
*MEAS_COND_AXIS_NAME_INTERNAL-10 "CounterMonochromator"
*MEAS_COND_AXIS_NAME_INTERNAL-11 "HV"
*MEAS_COND_AXIS_NAME_INTERNAL-12 "PHA"
*MEAS_COND_AXIS_NAME_MAGICNO-0 "268632064.0000000000"
*MEAS_COND_AXIS_NAME_MAGICNO-1 "16842752.0000000000"
*MEAS_COND_AXIS_NAME_MAGICNO-2 "16842752.0000000000"
*MEAS_COND_AXIS_NAME_MAGICNO-3 "20971521.0000000000"
*MEAS_COND_AXIS_NAME_MAGICNO-4 "22020097.0000000000"
*MEAS_COND_AXIS_NAME_MAGICNO-5 "22020097.0000000000"
*MEAS_COND_AXIS_NAME_MAGICNO-6 "23068673.0000000000"
*MEAS_COND_AXIS_NAME_MAGICNO-7 "20971521.0000000000"
*MEAS_COND_AXIS_NAME_MAGICNO-8 "23068673.0000000000"
*MEAS_COND_AXIS_NAME_MAGICNO-9 "20971521.0000000000"
*MEAS_COND_AXIS_NAME_MAGICNO-10 "20971521.0000000000"
*MEAS_COND_AXIS_NAME_MAGICNO-11 "0.0000000000"
*MEAS_COND_AXIS_NAME_MAGICNO-12 "0.0000000000"
*MEAS_COND_AXIS_OFFSET-0 "0.0000000000"
*MEAS_COND_AXIS_OFFSET-1 "-"
*MEAS_COND_AXIS_OFFSET-2 "-"
*MEAS_COND_AXIS_OFFSET-3 "-"
*MEAS_COND_AXIS_OFFSET-4 "-"
*MEAS_COND_AXIS_OFFSET-5 "-"
*MEAS_COND_AXIS_OFFSET-6 "-"
*MEAS_COND_AXIS_OFFSET-7 "-"
*MEAS_COND_AXIS_OFFSET-8 "-"
*MEAS_COND_AXIS_OFFSET-9 "-"
*MEAS_COND_AXIS_OFFSET-10 "-"
*MEAS_COND_AXIS_OFFSET-11 "-"
*MEAS_COND_AXIS_OFFSET-12 "-"
*MEAS_COND_AXIS_POSITION-0 "65.0000000000"
*MEAS_COND_AXIS_POSITION-1 "0.0000000000"
*MEAS_COND_AXIS_POSITION-2 "1.0000000000"
*MEAS_COND_AXIS_POSITION-3 "5.0deg"
*MEAS_COND_AXIS_POSITION-4 "10.0mm"
*MEAS_COND_AXIS_POSITION-5 "1.250deg"
*MEAS_COND_AXIS_POSITION-6 "1.250deg"
*MEAS_COND_AXIS_POSITION-7 "5.0deg"
*MEAS_COND_AXIS_POSITION-8 "0.3mm"
*MEAS_COND_AXIS_POSITION-9 "None"
*MEAS_COND_AXIS_POSITION-10 "Bent"
*MEAS_COND_AXIS_POSITION-11 "671.5000000000"
*MEAS_COND_AXIS_POSITION-12 "551.2500000000"
*MEAS_COND_AXIS_UNIT-0 "deg"
*MEAS_COND_AXIS_UNIT-1 ""
*MEAS_COND_AXIS_UNIT-2 ""
*MEAS_COND_AXIS_UNIT-3 ""
*MEAS_COND_AXIS_UNIT-4 ""
*MEAS_COND_AXIS_UNIT-5 ""
*MEAS_COND_AXIS_UNIT-6 ""
*MEAS_COND_AXIS_UNIT-7 ""
*MEAS_COND_AXIS_UNIT-8 ""
*MEAS_COND_AXIS_UNIT-9 ""
*MEAS_COND_AXIS_UNIT-10 ""
*MEAS_COND_AXIS_UNIT-11 "V"
*MEAS_COND_AXIS_UNIT-12 "mV"
*MEAS_COND_CORRECTION_SLIT_COUNTERMONO "None"
*MEAS_COND_CORRECTION_SLIT_DS "1.250deg"
*MEAS_COND_CORRECTION_SLIT_FILTER "None"
*MEAS_COND_CORRECTION_SLIT_IHS "10.0mm"
*MEAS_COND_CORRECTION_SLIT_RS "0.3mm"
*MEAS_COND_CORRECTION_SLIT_SOLLER_INC "5.0deg"
*MEAS_COND_CORRECTION_SLIT_SOLLER_REC "5.0deg"
*MEAS_COND_CORRECTION_SLIT_SS "1.250deg"
*MEAS_COND_COUNTER_CNTLOSS_CORR "0.0000000000"
*MEAS_COND_COUNTER_PHABASE "551.2500000000"
*MEAS_COND_COUNTER_PHAWINDOW "926.2500000000"
*MEAS_COND_COUNTER_PHA_UNIT "mV"
*MEAS_COND_COUNTER_TAUDIFF "0.2500000000"
*MEAS_COND_COUNTER_TAUINT "0.7500000000"
*MEAS_COND_IRRADIATION_MODE "OFF"
*MEAS_COND_IRRADIATION_WIDTH ""
*MEAS_COND_OPT_ATTR " "
*MEAS_COND_OPT_NAME ""
*MEAS_COND_UNSYMMETRIC_MODE "OFF"
*MEAS_COND_XG_CURRENT "15.0000000000"
*MEAS_COND_XG_VOLTAGE "40.0000000000"
*MEAS_COND_XG_WAVE_TYPE "Ka"
*MEAS_DATA_COUNT "3001.0000000000"
*MEAS_SCAN_AXIS_X "Theta/2-Theta"
*MEAS_SCAN_AXIS_X_INTERNAL "TwoThetaTheta"
*MEAS_SCAN_END_TIME "07/17/25 03:44:44"
*MEAS_SCAN_MODE "STEP"
*MEAS_SCAN_MONITOR "0"
*MEAS_SCAN_RESOLUTION_X "0.0025"
*MEAS_SCAN_SPEED "2.00"
*MEAS_SCAN_SPEED_UNIT "sec."
*MEAS_SCAN_SPEED_USER "2.00"
*MEAS_SCAN_START "5.0000000000"
*MEAS_SCAN_START_TIME "07/17/25 01:58:28"
*MEAS_SCAN_STEP "0.0200000000"
*MEAS_SCAN_STOP "65.0000000000"
*MEAS_SCAN_UNIT_X "deg"
*MEAS_SCAN_UNIT_Y "counts"
*SLIT_SYSTEM "0"
*RAS_HEADER_END
*RAS_INT_START
5.0000 1266.0000 1.0000
5.0200 1198.0000 1.0000
5.0400 1252.0000 1.0000
5.0600 1266.0000 1.0000
5.0800 1309.0000 1.0000
5.1000 1183.0000 1.0000
5.1200 1167.0000 1.0000
5.1400 1282.0000 1.0000
5.1600 1100.0000 1.0000
5.1800 1200.0000 1.0000
5.2000 1250.0000 1.0000
5.2200 1281.0000 1.0000
5.2400 1247.0000 1.0000
5.2600 1243.0000 1.0000
5.2800 1167.0000 1.0000
5.3000 1272.0000 1.0000
5.3200 1306.0000 1.0000
5.3400 1224.0000 1.0000
5.3600 1216.0000 1.0000
5.3800 1159.0000 1.0000
5.4000 1124.0000 1.0000
5.4200 1151.0000 1.0000
5.4400 1177.0000 1.0000
5.4600 1238.0000 1.0000
5.4800 1138.0000 1.0000
5.5000 1205.0000 1.0000
5.5200 1194.0000 1.0000
5.5400 1163.0000 1.0000
5.5600 1169.0000 1.0000
5.5800 1141.0000 1.0000
5.6000 1130.0000 1.0000
5.6200 1160.0000 1.0000
5.6400 1040.0000 1.0000
5.6600 1118.0000 1.0000
5.6800 1144.0000 1.0000
5.7000 1130.0000 1.0000
5.7200 1146.0000 1.0000
5.7400 1100.0000 1.0000
5.7600 1086.0000 1.0000
5.7800 1115.0000 1.0000
5.8000 1191.0000 1.0000
5.8200 1107.0000 1.0000
5.8400 1132.0000 1.0000
5.8600 1176.0000 1.0000
5.8800 1201.0000 1.0000
5.9000 1203.0000 1.0000
5.9200 1164.0000 1.0000
5.9400 1154.0000 1.0000
5.9600 1109.0000 1.0000
5.9800 1134.0000 1.0000
6.0000 1220.0000 1.0000
6.0200 1182.0000 1.0000
6.0400 1132.0000 1.0000
6.0600 1162.0000 1.0000
6.0800 1164.0000 1.0000
6.1000 1102.0000 1.0000
6.1200 989.0000 1.0000
6.1400 970.0000 1.0000
6.1600 1058.0000 1.0000
6.1800 1006.0000 1.0000
6.2000 1003.0000 1.0000
6.2200 967.0000 1.0000
6.2400 982.0000 1.0000
6.2600 1008.0000 1.0000
6.2800 1002.0000 1.0000
6.3000 996.0000 1.0000
6.3200 999.0000 1.0000
6.3400 922.0000 1.0000
6.3600 855.0000 1.0000
6.3800 931.0000 1.0000
6.4000 925.0000 1.0000
6.4200 896.0000 1.0000
6.4400 916.0000 1.0000
6.4600 893.0000 1.0000
6.4800 836.0000 1.0000
6.5000 874.0000 1.0000
6.5200 917.0000 1.0000
6.5400 948.0000 1.0000
6.5600 885.0000 1.0000
6.5800 837.0000 1.0000
6.6000 857.0000 1.0000
6.6200 892.0000 1.0000
6.6400 861.0000 1.0000
6.6600 869.0000 1.0000
6.6800 847.0000 1.0000
6.7000 811.0000 1.0000
6.7200 812.0000 1.0000
6.7400 801.0000 1.0000
6.7600 848.0000 1.0000
6.7800 815.0000 1.0000
6.8000 772.0000 1.0000
6.8200 772.0000 1.0000
6.8400 737.0000 1.0000
6.8600 746.0000 1.0000
6.8800 806.0000 1.0000
6.9000 790.0000 1.0000
6.9200 713.0000 1.0000
6.9400 727.0000 1.0000
6.9600 759.0000 1.0000
6.9800 755.0000 1.0000
7.0000 752.0000 1.0000
7.0200 745.0000 1.0000
7.0400 732.0000 1.0000
7.0600 762.0000 1.0000
7.0800 739.0000 1.0000
7.1000 697.0000 1.0000
7.1200 719.0000 1.0000
7.1400 714.0000 1.0000
7.1600 736.0000 1.0000
7.1800 700.0000 1.0000
7.2000 667.0000 1.0000
7.2200 709.0000 1.0000
7.2400 710.0000 1.0000
7.2600 720.0000 1.0000
7.2800 729.0000 1.0000
7.3000 699.0000 1.0000
7.3200 676.0000 1.0000
7.3400 695.0000 1.0000
7.3600 700.0000 1.0000
7.3800 673.0000 1.0000
7.4000 661.0000 1.0000
7.4200 697.0000 1.0000
7.4400 680.0000 1.0000
7.4600 654.0000 1.0000
7.4800 732.0000 1.0000
7.5000 765.0000 1.0000
7.5200 688.0000 1.0000
7.5400 654.0000 1.0000
7.5600 714.0000 1.0000
7.5800 732.0000 1.0000
7.6000 693.0000 1.0000
7.6200 711.0000 1.0000
7.6400 680.0000 1.0000
7.6600 632.0000 1.0000
7.6800 652.0000 1.0000
7.7000 684.0000 1.0000
7.7200 665.0000 1.0000
7.7400 673.0000 1.0000
7.7600 686.0000 1.0000
7.7800 682.0000 1.0000
7.8000 668.0000 1.0000
7.8200 631.0000 1.0000
7.8400 622.0000 1.0000
7.8600 632.0000 1.0000
7.8800 647.0000 1.0000
7.9000 698.0000 1.0000
7.9200 679.0000 1.0000
7.9400 685.0000 1.0000
7.9600 678.0000 1.0000
7.9800 670.0000 1.0000
8.0000 698.0000 1.0000
8.0200 734.0000 1.0000
8.0400 709.0000 1.0000
8.0600 656.0000 1.0000
8.0800 643.0000 1.0000
8.1000 632.0000 1.0000
8.1200 665.0000 1.0000
8.1400 650.0000 1.0000
8.1600 600.0000 1.0000
8.1800 614.0000 1.0000
8.2000 665.0000 1.0000
8.2200 691.0000 1.0000
8.2400 694.0000 1.0000
8.2600 726.0000 1.0000
8.2800 715.0000 1.0000
8.3000 723.0000 1.0000
8.3200 719.0000 1.0000
8.3400 719.0000 1.0000
8.3600 693.0000 1.0000
8.3800 693.0000 1.0000
8.4000 756.0000 1.0000
8.4200 723.0000 1.0000
8.4400 742.0000 1.0000
8.4600 769.0000 1.0000
8.4800 751.0000 1.0000
8.5000 736.0000 1.0000
8.5200 820.0000 1.0000
8.5400 838.0000 1.0000
8.5600 825.0000 1.0000
8.5800 906.0000 1.0000
8.6000 947.0000 1.0000
8.6200 952.0000 1.0000
8.6400 947.0000 1.0000
8.6600 997.0000 1.0000
8.6800 1025.0000 1.0000
8.7000 1052.0000 1.0000
8.7200 1048.0000 1.0000
8.7400 1009.0000 1.0000
8.7600 1007.0000 1.0000
8.7800 922.0000 1.0000
8.8000 830.0000 1.0000
8.8200 739.0000 1.0000
8.8400 719.0000 1.0000
8.8600 626.0000 1.0000
8.8800 545.0000 1.0000
8.9000 548.0000 1.0000
8.9200 515.0000 1.0000
8.9400 529.0000 1.0000
8.9600 536.0000 1.0000
8.9800 526.0000 1.0000
9.0000 502.0000 1.0000
9.0200 514.0000 1.0000
9.0400 509.0000 1.0000
9.0600 526.0000 1.0000
9.0800 510.0000 1.0000
9.1000 522.0000 1.0000
9.1200 529.0000 1.0000
9.1400 566.0000 1.0000
9.1600 571.0000 1.0000
9.1800 605.0000 1.0000
9.2000 603.0000 1.0000
9.2200 612.0000 1.0000
9.2400 605.0000 1.0000
9.2600 585.0000 1.0000
9.2800 503.0000 1.0000
9.3000 424.0000 1.0000
9.3200 387.0000 1.0000
9.3400 312.0000 1.0000
9.3600 347.0000 1.0000
9.3800 347.0000 1.0000
9.4000 354.0000 1.0000
9.4200 359.0000 1.0000
9.4400 341.0000 1.0000
9.4600 328.0000 1.0000
9.4800 359.0000 1.0000
9.5000 301.0000 1.0000
9.5200 340.0000 1.0000
9.5400 360.0000 1.0000
9.5600 360.0000 1.0000
9.5800 334.0000 1.0000
9.6000 391.0000 1.0000
9.6200 357.0000 1.0000
9.6400 322.0000 1.0000
9.6600 335.0000 1.0000
9.6800 321.0000 1.0000
9.7000 337.0000 1.0000
9.7200 298.0000 1.0000
9.7400 315.0000 1.0000
9.7600 287.0000 1.0000
9.7800 283.0000 1.0000
9.8000 338.0000 1.0000
9.8200 316.0000 1.0000
9.8400 300.0000 1.0000
9.8600 307.0000 1.0000
9.8800 299.0000 1.0000
9.9000 296.0000 1.0000
9.9200 281.0000 1.0000
9.9400 276.0000 1.0000
9.9600 281.0000 1.0000
9.9800 253.0000 1.0000
10.0000 284.0000 1.0000
10.0200 265.0000 1.0000
10.0400 268.0000 1.0000
10.0600 295.0000 1.0000
10.0800 295.0000 1.0000
10.1000 255.0000 1.0000
10.1200 296.0000 1.0000
10.1400 243.0000 1.0000
10.1600 280.0000 1.0000
10.1800 255.0000 1.0000
10.2000 262.0000 1.0000
10.2200 265.0000 1.0000
10.2400 261.0000 1.0000
10.2600 306.0000 1.0000
10.2800 280.0000 1.0000
10.3000 258.0000 1.0000
10.3200 261.0000 1.0000
10.3400 266.0000 1.0000
10.3600 280.0000 1.0000
10.3800 276.0000 1.0000
10.4000 284.0000 1.0000
10.4200 280.0000 1.0000
10.4400 226.0000 1.0000
10.4600 250.0000 1.0000
10.4800 276.0000 1.0000
10.5000 224.0000 1.0000
10.5200 235.0000 1.0000
10.5400 232.0000 1.0000
10.5600 251.0000 1.0000
10.5800 239.0000 1.0000
10.6000 228.0000 1.0000
10.6200 224.0000 1.0000
10.6400 241.0000 1.0000
10.6600 260.0000 1.0000
10.6800 219.0000 1.0000
10.7000 204.0000 1.0000
10.7200 246.0000 1.0000
10.7400 223.0000 1.0000
10.7600 235.0000 1.0000
10.7800 213.0000 1.0000
10.8000 237.0000 1.0000
10.8200 244.0000 1.0000
10.8400 235.0000 1.0000
10.8600 282.0000 1.0000
10.8800 227.0000 1.0000
10.9000 252.0000 1.0000
10.9200 216.0000 1.0000
10.9400 238.0000 1.0000
10.9600 225.0000 1.0000
10.9800 213.0000 1.0000
11.0000 286.0000 1.0000
11.0200 239.0000 1.0000
11.0400 225.0000 1.0000
11.0600 255.0000 1.0000
11.0800 250.0000 1.0000
11.1000 251.0000 1.0000
11.1200 249.0000 1.0000
11.1400 175.0000 1.0000
11.1600 248.0000 1.0000
11.1800 219.0000 1.0000
11.2000 225.0000 1.0000
11.2200 207.0000 1.0000
11.2400 241.0000 1.0000
11.2600 251.0000 1.0000
11.2800 222.0000 1.0000
11.3000 252.0000 1.0000
11.3200 228.0000 1.0000
11.3400 214.0000 1.0000
11.3600 224.0000 1.0000
11.3800 199.0000 1.0000
11.4000 217.0000 1.0000
11.4200 221.0000 1.0000
11.4400 224.0000 1.0000
11.4600 204.0000 1.0000
11.4800 200.0000 1.0000
11.5000 228.0000 1.0000
11.5200 218.0000 1.0000
11.5400 235.0000 1.0000
11.5600 226.0000 1.0000
11.5800 237.0000 1.0000
11.6000 232.0000 1.0000
11.6200 220.0000 1.0000
11.6400 206.0000 1.0000
11.6600 221.0000 1.0000
11.6800 215.0000 1.0000
11.7000 195.0000 1.0000
11.7200 206.0000 1.0000
11.7400 223.0000 1.0000
11.7600 204.0000 1.0000
11.7800 210.0000 1.0000
11.8000 216.0000 1.0000
11.8200 220.0000 1.0000
11.8400 207.0000 1.0000
11.8600 205.0000 1.0000
11.8800 190.0000 1.0000
11.9000 220.0000 1.0000
11.9200 206.0000 1.0000
11.9400 233.0000 1.0000
11.9600 202.0000 1.0000
11.9800 217.0000 1.0000
12.0000 263.0000 1.0000
12.0200 247.0000 1.0000
12.0400 244.0000 1.0000
12.0600 216.0000 1.0000
12.0800 238.0000 1.0000
12.1000 229.0000 1.0000
12.1200 235.0000 1.0000
12.1400 254.0000 1.0000
12.1600 263.0000 1.0000
12.1800 261.0000 1.0000
12.2000 288.0000 1.0000
12.2200 279.0000 1.0000
12.2400 272.0000 1.0000
12.2600 330.0000 1.0000
12.2800 289.0000 1.0000
12.3000 324.0000 1.0000
12.3200 373.0000 1.0000
12.3400 364.0000 1.0000
12.3600 306.0000 1.0000
12.3800 352.0000 1.0000
12.4000 335.0000 1.0000
12.4200 307.0000 1.0000
12.4400 301.0000 1.0000
12.4600 297.0000 1.0000
12.4800 259.0000 1.0000
12.5000 241.0000 1.0000
12.5200 218.0000 1.0000
12.5400 219.0000 1.0000
12.5600 235.0000 1.0000
12.5800 211.0000 1.0000
12.6000 189.0000 1.0000
12.6200 209.0000 1.0000
12.6400 223.0000 1.0000
12.6600 226.0000 1.0000
12.6800 226.0000 1.0000
12.7000 194.0000 1.0000
12.7200 218.0000 1.0000
12.7400 223.0000 1.0000
12.7600 220.0000 1.0000
12.7800 261.0000 1.0000
12.8000 265.0000 1.0000
12.8200 225.0000 1.0000
12.8400 249.0000 1.0000
12.8600 249.0000 1.0000
12.8800 244.0000 1.0000
12.9000 222.0000 1.0000
12.9200 200.0000 1.0000
12.9400 172.0000 1.0000
12.9600 186.0000 1.0000
12.9800 182.0000 1.0000
13.0000 171.0000 1.0000
13.0200 168.0000 1.0000
13.0400 164.0000 1.0000
13.0600 140.0000 1.0000
13.0800 146.0000 1.0000
13.1000 159.0000 1.0000
13.1200 154.0000 1.0000
13.1400 165.0000 1.0000
13.1600 181.0000 1.0000
13.1800 203.0000 1.0000
13.2000 177.0000 1.0000
13.2200 164.0000 1.0000
13.2400 178.0000 1.0000
13.2600 181.0000 1.0000
13.2800 189.0000 1.0000
13.3000 176.0000 1.0000
13.3200 177.0000 1.0000
13.3400 174.0000 1.0000
13.3600 192.0000 1.0000
13.3800 182.0000 1.0000
13.4000 177.0000 1.0000
13.4200 211.0000 1.0000
13.4400 203.0000 1.0000
13.4600 210.0000 1.0000
13.4800 229.0000 1.0000
13.5000 229.0000 1.0000
13.5200 224.0000 1.0000
13.5400 238.0000 1.0000
13.5600 246.0000 1.0000
13.5800 234.0000 1.0000
13.6000 224.0000 1.0000
13.6200 235.0000 1.0000
13.6400 248.0000 1.0000
13.6600 264.0000 1.0000
13.6800 271.0000 1.0000
13.7000 290.0000 1.0000
13.7200 274.0000 1.0000
13.7400 293.0000 1.0000
13.7600 298.0000 1.0000
13.7800 282.0000 1.0000
13.8000 248.0000 1.0000
13.8200 236.0000 1.0000
13.8400 241.0000 1.0000
13.8600 220.0000 1.0000
13.8800 200.0000 1.0000
13.9000 178.0000 1.0000
13.9200 169.0000 1.0000
13.9400 162.0000 1.0000
13.9600 168.0000 1.0000
13.9800 154.0000 1.0000
14.0000 162.0000 1.0000
14.0200 154.0000 1.0000
14.0400 144.0000 1.0000
14.0600 166.0000 1.0000
14.0800 169.0000 1.0000
14.1000 154.0000 1.0000
14.1200 139.0000 1.0000
14.1400 154.0000 1.0000
14.1600 178.0000 1.0000
14.1800 172.0000 1.0000
14.2000 169.0000 1.0000
14.2200 175.0000 1.0000
14.2400 160.0000 1.0000
14.2600 160.0000 1.0000
14.2800 165.0000 1.0000
14.3000 162.0000 1.0000
14.3200 152.0000 1.0000
14.3400 154.0000 1.0000
14.3600 147.0000 1.0000
14.3800 147.0000 1.0000
14.4000 156.0000 1.0000
14.4200 149.0000 1.0000
14.4400 143.0000 1.0000
14.4600 141.0000 1.0000
14.4800 137.0000 1.0000
14.5000 143.0000 1.0000
14.5200 142.0000 1.0000
14.5400 140.0000 1.0000
14.5600 149.0000 1.0000
14.5800 155.0000 1.0000
14.6000 154.0000 1.0000
14.6200 154.0000 1.0000
14.6400 160.0000 1.0000
14.6600 152.0000 1.0000
14.6800 156.0000 1.0000
14.7000 166.0000 1.0000
14.7200 158.0000 1.0000
14.7400 152.0000 1.0000
14.7600 175.0000 1.0000
14.7800 186.0000 1.0000
14.8000 175.0000 1.0000
14.8200 171.0000 1.0000
14.8400 179.0000 1.0000
14.8600 179.0000 1.0000
14.8800 175.0000 1.0000
14.9000 177.0000 1.0000
14.9200 166.0000 1.0000
14.9400 178.0000 1.0000
14.9600 163.0000 1.0000
14.9800 141.0000 1.0000
15.0000 154.0000 1.0000
15.0200 170.0000 1.0000
15.0400 174.0000 1.0000
15.0600 155.0000 1.0000
15.0800 142.0000 1.0000
15.1000 133.0000 1.0000
15.1200 139.0000 1.0000
15.1400 151.0000 1.0000
15.1600 142.0000 1.0000
15.1800 130.0000 1.0000
15.2000 137.0000 1.0000
15.2200 148.0000 1.0000
15.2400 143.0000 1.0000
15.2600 144.0000 1.0000
15.2800 145.0000 1.0000
15.3000 140.0000 1.0000
15.3200 128.0000 1.0000
15.3400 143.0000 1.0000
15.3600 145.0000 1.0000
15.3800 128.0000 1.0000
15.4000 129.0000 1.0000
15.4200 124.0000 1.0000
15.4400 112.0000 1.0000
15.4600 110.0000 1.0000
15.4800 132.0000 1.0000
15.5000 137.0000 1.0000
15.5200 134.0000 1.0000
15.5400 143.0000 1.0000
15.5600 144.0000 1.0000
15.5800 149.0000 1.0000
15.6000 144.0000 1.0000
15.6200 138.0000 1.0000
15.6400 140.0000 1.0000
15.6600 142.0000 1.0000
15.6800 133.0000 1.0000
15.7000 146.0000 1.0000
15.7200 176.0000 1.0000
15.7400 175.0000 1.0000
15.7600 157.0000 1.0000
15.7800 148.0000 1.0000
15.8000 152.0000 1.0000
15.8200 147.0000 1.0000
15.8400 138.0000 1.0000
15.8600 130.0000 1.0000
15.8800 125.0000 1.0000
15.9000 128.0000 1.0000
15.9200 132.0000 1.0000
15.9400 137.0000 1.0000
15.9600 146.0000 1.0000
15.9800 143.0000 1.0000
16.0000 115.0000 1.0000
16.0200 124.0000 1.0000
16.0400 132.0000 1.0000
16.0600 127.0000 1.0000
16.0800 121.0000 1.0000
16.1000 122.0000 1.0000
16.1200 125.0000 1.0000
16.1400 123.0000 1.0000
16.1600 125.0000 1.0000
16.1800 140.0000 1.0000
16.2000 139.0000 1.0000
16.2200 148.0000 1.0000
16.2400 141.0000 1.0000
16.2600 122.0000 1.0000
16.2800 122.0000 1.0000
16.3000 121.0000 1.0000
16.3200 137.0000 1.0000
16.3400 160.0000 1.0000
16.3600 132.0000 1.0000
16.3800 114.0000 1.0000
16.4000 126.0000 1.0000
16.4200 137.0000 1.0000
16.4400 132.0000 1.0000
16.4600 127.0000 1.0000
16.4800 140.0000 1.0000
16.5000 132.0000 1.0000
16.5200 136.0000 1.0000
16.5400 134.0000 1.0000
16.5600 137.0000 1.0000
16.5800 129.0000 1.0000
16.6000 121.0000 1.0000
16.6200 116.0000 1.0000
16.6400 129.0000 1.0000
16.6600 152.0000 1.0000
16.6800 135.0000 1.0000
16.7000 134.0000 1.0000
16.7200 156.0000 1.0000
16.7400 147.0000 1.0000
16.7600 126.0000 1.0000
16.7800 125.0000 1.0000
16.8000 139.0000 1.0000
16.8200 146.0000 1.0000
16.8400 136.0000 1.0000
16.8600 122.0000 1.0000
16.8800 128.0000 1.0000
16.9000 130.0000 1.0000
16.9200 123.0000 1.0000
16.9400 124.0000 1.0000
16.9600 138.0000 1.0000
16.9800 134.0000 1.0000
17.0000 132.0000 1.0000
17.0200 139.0000 1.0000
17.0400 139.0000 1.0000
17.0600 157.0000 1.0000
17.0800 152.0000 1.0000
17.1000 139.0000 1.0000
17.1200 142.0000 1.0000
17.1400 148.0000 1.0000
17.1600 151.0000 1.0000
17.1800 142.0000 1.0000
17.2000 131.0000 1.0000
17.2200 155.0000 1.0000
17.2400 162.0000 1.0000
17.2600 150.0000 1.0000
17.2800 152.0000 1.0000
17.3000 144.0000 1.0000
17.3200 163.0000 1.0000
17.3400 163.0000 1.0000
17.3600 165.0000 1.0000
17.3800 168.0000 1.0000
17.4000 180.0000 1.0000
17.4200 185.0000 1.0000
17.4400 197.0000 1.0000
17.4600 203.0000 1.0000
17.4800 179.0000 1.0000
17.5000 168.0000 1.0000
17.5200 206.0000 1.0000
17.5400 225.0000 1.0000
17.5600 213.0000 1.0000
17.5800 198.0000 1.0000
17.6000 210.0000 1.0000
17.6200 210.0000 1.0000
17.6400 260.0000 1.0000
17.6600 237.0000 1.0000
17.6800 216.0000 1.0000
17.7000 206.0000 1.0000
17.7200 218.0000 1.0000
17.7400 199.0000 1.0000
17.7600 173.0000 1.0000
17.7800 169.0000 1.0000
17.8000 158.0000 1.0000
17.8200 168.0000 1.0000
17.8400 142.0000 1.0000
17.8600 157.0000 1.0000
17.8800 187.0000 1.0000
17.9000 183.0000 1.0000
17.9200 160.0000 1.0000
17.9400 174.0000 1.0000
17.9600 160.0000 1.0000
17.9800 162.0000 1.0000
18.0000 140.0000 1.0000
18.0200 150.0000 1.0000
18.0400 145.0000 1.0000
18.0600 156.0000 1.0000
18.0800 136.0000 1.0000
18.1000 137.0000 1.0000
18.1200 140.0000 1.0000
18.1400 147.0000 1.0000
18.1600 143.0000 1.0000
18.1800 137.0000 1.0000
18.2000 147.0000 1.0000
18.2200 148.0000 1.0000
18.2400 136.0000 1.0000
18.2600 139.0000 1.0000
18.2800 165.0000 1.0000
18.3000 155.0000 1.0000
18.3200 133.0000 1.0000
18.3400 156.0000 1.0000
18.3600 151.0000 1.0000
18.3800 155.0000 1.0000
18.4000 150.0000 1.0000
18.4200 165.0000 1.0000
18.4400 172.0000 1.0000
18.4600 165.0000 1.0000
18.4800 160.0000 1.0000
18.5000 139.0000 1.0000
18.5200 141.0000 1.0000
18.5400 162.0000 1.0000
18.5600 160.0000 1.0000
18.5800 178.0000 1.0000
18.6000 199.0000 1.0000
18.6200 172.0000 1.0000
18.6400 186.0000 1.0000
18.6600 178.0000 1.0000
18.6800 189.0000 1.0000
18.7000 170.0000 1.0000
18.7200 183.0000 1.0000
18.7400 183.0000 1.0000
18.7600 183.0000 1.0000
18.7800 187.0000 1.0000
18.8000 184.0000 1.0000
18.8200 182.0000 1.0000
18.8400 154.0000 1.0000
18.8600 181.0000 1.0000
18.8800 173.0000 1.0000
18.9000 199.0000 1.0000
18.9200 164.0000 1.0000
18.9400 188.0000 1.0000
18.9600 197.0000 1.0000
18.9800 185.0000 1.0000
19.0000 196.0000 1.0000
19.0200 186.0000 1.0000
19.0400 189.0000 1.0000
19.0600 195.0000 1.0000
19.0800 186.0000 1.0000
19.1000 194.0000 1.0000
19.1200 210.0000 1.0000
19.1400 202.0000 1.0000
19.1600 214.0000 1.0000
19.1800 222.0000 1.0000
19.2000 228.0000 1.0000
19.2200 246.0000 1.0000
19.2400 244.0000 1.0000
19.2600 247.0000 1.0000
19.2800 243.0000 1.0000
19.3000 244.0000 1.0000
19.3200 241.0000 1.0000
19.3400 252.0000 1.0000
19.3600 266.0000 1.0000
19.3800 287.0000 1.0000
19.4000 283.0000 1.0000
19.4200 286.0000 1.0000
19.4400 363.0000 1.0000
19.4600 381.0000 1.0000
19.4800 359.0000 1.0000
19.5000 366.0000 1.0000
19.5200 430.0000 1.0000
19.5400 423.0000 1.0000
19.5600 449.0000 1.0000
19.5800 490.0000 1.0000
19.6000 517.0000 1.0000
19.6200 545.0000 1.0000
19.6400 518.0000 1.0000
19.6600 582.0000 1.0000
19.6800 587.0000 1.0000
19.7000 522.0000 1.0000
19.7200 541.0000 1.0000
19.7400 527.0000 1.0000
19.7600 518.0000 1.0000
19.7800 451.0000 1.0000
19.8000 459.0000 1.0000
19.8200 423.0000 1.0000
19.8400 410.0000 1.0000
19.8600 398.0000 1.0000
19.8800 386.0000 1.0000
19.9000 375.0000 1.0000
19.9200 398.0000 1.0000
19.9400 379.0000 1.0000
19.9600 358.0000 1.0000
19.9800 358.0000 1.0000
20.0000 331.0000 1.0000
20.0200 319.0000 1.0000
20.0400 284.0000 1.0000
20.0600 291.0000 1.0000
20.0800 278.0000 1.0000
20.1000 319.0000 1.0000
20.1200 299.0000 1.0000
20.1400 278.0000 1.0000
20.1600 284.0000 1.0000
20.1800 288.0000 1.0000
20.2000 281.0000 1.0000
20.2200 265.0000 1.0000
20.2400 290.0000 1.0000
20.2600 291.0000 1.0000
20.2800 279.0000 1.0000
20.3000 307.0000 1.0000
20.3200 279.0000 1.0000
20.3400 335.0000 1.0000
20.3600 306.0000 1.0000
20.3800 356.0000 1.0000
20.4000 312.0000 1.0000
20.4200 315.0000 1.0000
20.4400 323.0000 1.0000
20.4600 350.0000 1.0000
20.4800 376.0000 1.0000
20.5000 375.0000 1.0000
20.5200 426.0000 1.0000
20.5400 446.0000 1.0000
20.5600 492.0000 1.0000
20.5800 569.0000 1.0000
20.6000 599.0000 1.0000
20.6200 662.0000 1.0000
20.6400 822.0000 1.0000
20.6600 957.0000 1.0000
20.6800 1066.0000 1.0000
20.7000 1321.0000 1.0000
20.7200 1476.0000 1.0000
20.7400 1497.0000 1.0000
20.7600 1527.0000 1.0000
20.7800 1505.0000 1.0000
20.8000 1297.0000 1.0000
20.8200 1075.0000 1.0000
20.8400 844.0000 1.0000
20.8600 684.0000 1.0000
20.8800 589.0000 1.0000
20.9000 453.0000 1.0000
20.9200 417.0000 1.0000
20.9400 380.0000 1.0000
20.9600 362.0000 1.0000
20.9800 341.0000 1.0000
21.0000 342.0000 1.0000
21.0200 327.0000 1.0000
21.0400 307.0000 1.0000
21.0600 296.0000 1.0000
21.0800 297.0000 1.0000
21.1000 319.0000 1.0000
21.1200 289.0000 1.0000
21.1400 289.0000 1.0000
21.1600 317.0000 1.0000
21.1800 289.0000 1.0000
21.2000 303.0000 1.0000
21.2200 300.0000 1.0000
21.2400 317.0000 1.0000
21.2600 327.0000 1.0000
21.2800 325.0000 1.0000
21.3000 290.0000 1.0000
21.3200 297.0000 1.0000
21.3400 272.0000 1.0000
21.3600 252.0000 1.0000
21.3800 240.0000 1.0000
21.4000 253.0000 1.0000
21.4200 240.0000 1.0000
21.4400 250.0000 1.0000
21.4600 242.0000 1.0000
21.4800 261.0000 1.0000
21.5000 226.0000 1.0000
21.5200 258.0000 1.0000
21.5400 231.0000 1.0000
21.5600 234.0000 1.0000
21.5800 234.0000 1.0000
21.6000 239.0000 1.0000
21.6200 244.0000 1.0000
21.6400 254.0000 1.0000
21.6600 261.0000 1.0000
21.6800 282.0000 1.0000
21.7000 312.0000 1.0000
21.7200 317.0000 1.0000
21.7400 339.0000 1.0000
21.7600 406.0000 1.0000
21.7800 467.0000 1.0000
21.8000 489.0000 1.0000
21.8200 548.0000 1.0000
21.8400 554.0000 1.0000
21.8600 627.0000 1.0000
21.8800 705.0000 1.0000
21.9000 689.0000 1.0000
21.9200 735.0000 1.0000
21.9400 729.0000 1.0000
21.9600 687.0000 1.0000
21.9800 595.0000 1.0000
22.0000 502.0000 1.0000
22.0200 428.0000 1.0000
22.0400 385.0000 1.0000
22.0600 331.0000 1.0000
22.0800 283.0000 1.0000
22.1000 271.0000 1.0000
22.1200 259.0000 1.0000
22.1400 228.0000 1.0000
22.1600 226.0000 1.0000
22.1800 210.0000 1.0000
22.2000 229.0000 1.0000
22.2200 213.0000 1.0000
22.2400 224.0000 1.0000
22.2600 238.0000 1.0000
22.2800 229.0000 1.0000
22.3000 230.0000 1.0000
22.3200 210.0000 1.0000
22.3400 237.0000 1.0000
22.3600 219.0000 1.0000
22.3800 229.0000 1.0000
22.4000 224.0000 1.0000
22.4200 233.0000 1.0000
22.4400 255.0000 1.0000
22.4600 244.0000 1.0000
22.4800 232.0000 1.0000
22.5000 230.0000 1.0000
22.5200 253.0000 1.0000
22.5400 234.0000 1.0000
22.5600 237.0000 1.0000
22.5800 230.0000 1.0000
22.6000 241.0000 1.0000
22.6200 268.0000 1.0000
22.6400 254.0000 1.0000
22.6600 236.0000 1.0000
22.6800 237.0000 1.0000
22.7000 262.0000 1.0000
22.7200 253.0000 1.0000
22.7400 262.0000 1.0000
22.7600 258.0000 1.0000
22.7800 305.0000 1.0000
22.8000 266.0000 1.0000
22.8200 300.0000 1.0000
22.8400 271.0000 1.0000
22.8600 334.0000 1.0000
22.8800 351.0000 1.0000
22.9000 334.0000 1.0000
22.9200 352.0000 1.0000
22.9400 308.0000 1.0000
22.9600 321.0000 1.0000
22.9800 333.0000 1.0000
23.0000 323.0000 1.0000
23.0200 274.0000 1.0000
23.0400 269.0000 1.0000
23.0600 268.0000 1.0000
23.0800 277.0000 1.0000
23.1000 251.0000 1.0000
23.1200 257.0000 1.0000
23.1400 256.0000 1.0000
23.1600 267.0000 1.0000
23.1800 252.0000 1.0000
23.2000 279.0000 1.0000
23.2200 304.0000 1.0000
23.2400 312.0000 1.0000
23.2600 315.0000 1.0000
23.2800 319.0000 1.0000
23.3000 338.0000 1.0000
23.3200 371.0000 1.0000
23.3400 389.0000 1.0000
23.3600 446.0000 1.0000
23.3800 468.0000 1.0000
23.4000 520.0000 1.0000
23.4200 546.0000 1.0000
23.4400 566.0000 1.0000
23.4600 586.0000 1.0000
23.4800 581.0000 1.0000
23.5000 573.0000 1.0000
23.5200 546.0000 1.0000
23.5400 520.0000 1.0000
23.5600 459.0000 1.0000
23.5800 469.0000 1.0000
23.6000 428.0000 1.0000
23.6200 413.0000 1.0000
23.6400 400.0000 1.0000
23.6600 368.0000 1.0000
23.6800 318.0000 1.0000
23.7000 281.0000 1.0000
23.7200 327.0000 1.0000
23.7400 313.0000 1.0000
23.7600 296.0000 1.0000
23.7800 286.0000 1.0000
23.8000 296.0000 1.0000
23.8200 289.0000 1.0000
23.8400 283.0000 1.0000
23.8600 302.0000 1.0000
23.8800 307.0000 1.0000
23.9000 345.0000 1.0000
23.9200 341.0000 1.0000
23.9400 335.0000 1.0000
23.9600 379.0000 1.0000
23.9800 420.0000 1.0000
24.0000 425.0000 1.0000
24.0200 468.0000 1.0000
24.0400 479.0000 1.0000
24.0600 516.0000 1.0000
24.0800 540.0000 1.0000
24.1000 555.0000 1.0000
24.1200 579.0000 1.0000
24.1400 615.0000 1.0000
24.1600 630.0000 1.0000
24.1800 613.0000 1.0000
24.2000 590.0000 1.0000
24.2200 563.0000 1.0000
24.2400 501.0000 1.0000
24.2600 477.0000 1.0000
24.2800 439.0000 1.0000
24.3000 399.0000 1.0000
24.3200 369.0000 1.0000
24.3400 334.0000 1.0000
24.3600 350.0000 1.0000
24.3800 371.0000 1.0000
24.4000 350.0000 1.0000
24.4200 310.0000 1.0000
24.4400 285.0000 1.0000
24.4600 299.0000 1.0000
24.4800 305.0000 1.0000
24.5000 305.0000 1.0000
24.5200 274.0000 1.0000
24.5400 248.0000 1.0000
24.5600 273.0000 1.0000
24.5800 286.0000 1.0000
24.6000 269.0000 1.0000
24.6200 253.0000 1.0000
24.6400 231.0000 1.0000
24.6600 224.0000 1.0000
24.6800 238.0000 1.0000
24.7000 252.0000 1.0000
24.7200 242.0000 1.0000
24.7400 252.0000 1.0000
24.7600 258.0000 1.0000
24.7800 269.0000 1.0000
24.8000 272.0000 1.0000
24.8200 282.0000 1.0000
24.8400 258.0000 1.0000
24.8600 262.0000 1.0000
24.8800 264.0000 1.0000
24.9000 257.0000 1.0000
24.9200 282.0000 1.0000
24.9400 276.0000 1.0000
24.9600 288.0000 1.0000
24.9800 316.0000 1.0000
25.0000 311.0000 1.0000
25.0200 324.0000 1.0000
25.0400 335.0000 1.0000
25.0600 337.0000 1.0000
25.0800 346.0000 1.0000
25.1000 349.0000 1.0000
25.1200 377.0000 1.0000
25.1400 367.0000 1.0000
25.1600 399.0000 1.0000
25.1800 430.0000 1.0000
25.2000 440.0000 1.0000
25.2200 482.0000 1.0000
25.2400 570.0000 1.0000
25.2600 625.0000 1.0000
25.2800 611.0000 1.0000
25.3000 640.0000 1.0000
25.3200 728.0000 1.0000
25.3400 818.0000 1.0000
25.3600 879.0000 1.0000
25.3800 986.0000 1.0000
25.4000 1129.0000 1.0000
25.4200 1265.0000 1.0000
25.4400 1386.0000 1.0000
25.4600 1424.0000 1.0000
25.4800 1396.0000 1.0000
25.5000 1323.0000 1.0000
25.5200 1179.0000 1.0000
25.5400 1009.0000 1.0000
25.5600 834.0000 1.0000
25.5800 716.0000 1.0000
25.6000 610.0000 1.0000
25.6200 513.0000 1.0000
25.6400 446.0000 1.0000
25.6600 405.0000 1.0000
25.6800 369.0000 1.0000
25.7000 370.0000 1.0000
25.7200 356.0000 1.0000
25.7400 307.0000 1.0000
25.7600 316.0000 1.0000
25.7800 310.0000 1.0000
25.8000 310.0000 1.0000
25.8200 305.0000 1.0000
25.8400 298.0000 1.0000
25.8600 333.0000 1.0000
25.8800 339.0000 1.0000
25.9000 325.0000 1.0000
25.9200 336.0000 1.0000
25.9400 323.0000 1.0000
25.9600 317.0000 1.0000
25.9800 331.0000 1.0000
26.0000 360.0000 1.0000
26.0200 380.0000 1.0000
26.0400 383.0000 1.0000
26.0600 394.0000 1.0000
26.0800 429.0000 1.0000
26.1000 458.0000 1.0000
26.1200 474.0000 1.0000
26.1400 502.0000 1.0000
26.1600 526.0000 1.0000
26.1800 580.0000 1.0000
26.2000 614.0000 1.0000
26.2200 664.0000 1.0000
26.2400 751.0000 1.0000
26.2600 817.0000 1.0000
26.2800 944.0000 1.0000
26.3000 1075.0000 1.0000
26.3200 1206.0000 1.0000
26.3400 1411.0000 1.0000
26.3600 1629.0000 1.0000
26.3800 1939.0000 1.0000
26.4000 2370.0000 1.0000
26.4200 2967.0000 1.0000
26.4400 3699.0000 1.0000
26.4600 4628.0000 1.0000
26.4800 5573.0000 1.0000
26.5000 6310.0000 1.0000
26.5200 6781.0000 1.0000
26.5400 6983.0000 1.0000
26.5600 6737.0000 1.0000
26.5800 5920.0000 1.0000
26.6000 4802.0000 1.0000
26.6200 3747.0000 1.0000
26.6400 2905.0000 1.0000
26.6600 2141.0000 1.0000
26.6800 1532.0000 1.0000
26.7000 1183.0000 1.0000
26.7200 1013.0000 1.0000
26.7400 931.0000 1.0000
26.7600 847.0000 1.0000
26.7800 802.0000 1.0000
26.8000 756.0000 1.0000
26.8200 719.0000 1.0000
26.8400 659.0000 1.0000
26.8600 638.0000 1.0000
26.8800 645.0000 1.0000
26.9000 619.0000 1.0000
26.9200 589.0000 1.0000
26.9400 576.0000 1.0000
26.9600 556.0000 1.0000
26.9800 518.0000 1.0000
27.0000 515.0000 1.0000
27.0200 503.0000 1.0000
27.0400 473.0000 1.0000
27.0600 468.0000 1.0000
27.0800 449.0000 1.0000
27.1000 453.0000 1.0000
27.1200 452.0000 1.0000
27.1400 434.0000 1.0000
27.1600 414.0000 1.0000
27.1800 418.0000 1.0000
27.2000 438.0000 1.0000
27.2200 457.0000 1.0000
27.2400 462.0000 1.0000
27.2600 457.0000 1.0000
27.2800 467.0000 1.0000
27.3000 521.0000 1.0000
27.3200 563.0000 1.0000
27.3400 589.0000 1.0000
27.3600 653.0000 1.0000
27.3800 679.0000 1.0000
27.4000 678.0000 1.0000
27.4200 695.0000 1.0000
27.4400 733.0000 1.0000
27.4600 738.0000 1.0000
27.4800 743.0000 1.0000
27.5000 759.0000 1.0000
27.5200 756.0000 1.0000
27.5400 789.0000 1.0000
27.5600 848.0000 1.0000
27.5800 893.0000 1.0000
27.6000 968.0000 1.0000
27.6200 1050.0000 1.0000
27.6400 1073.0000 1.0000
27.6600 1109.0000 1.0000
27.6800 1150.0000 1.0000
27.7000 1188.0000 1.0000
27.7200 1249.0000 1.0000
27.7400 1292.0000 1.0000
27.7600 1366.0000 1.0000
27.7800 1461.0000 1.0000
27.8000 1552.0000 1.0000
27.8200 1579.0000 1.0000
27.8400 1566.0000 1.0000
27.8600 1528.0000 1.0000
27.8800 1430.0000 1.0000
27.9000 1287.0000 1.0000
27.9200 1166.0000 1.0000
27.9400 1072.0000 1.0000
27.9600 945.0000 1.0000
27.9800 848.0000 1.0000
28.0000 759.0000 1.0000
28.0200 698.0000 1.0000
28.0400 650.0000 1.0000
28.0600 624.0000 1.0000
28.0800 602.0000 1.0000
28.1000 618.0000 1.0000
28.1200 601.0000 1.0000
28.1400 556.0000 1.0000
28.1600 543.0000 1.0000
28.1800 532.0000 1.0000
28.2000 505.0000 1.0000
28.2200 449.0000 1.0000
28.2400 406.0000 1.0000
28.2600 381.0000 1.0000
28.2800 370.0000 1.0000
28.3000 363.0000 1.0000
28.3200 331.0000 1.0000
28.3400 318.0000 1.0000
28.3600 321.0000 1.0000
28.3800 294.0000 1.0000
28.4000 285.0000 1.0000
28.4200 276.0000 1.0000
28.4400 274.0000 1.0000
28.4600 250.0000 1.0000
28.4800 235.0000 1.0000
28.5000 236.0000 1.0000
28.5200 245.0000 1.0000
28.5400 247.0000 1.0000
28.5600 233.0000 1.0000
28.5800 217.0000 1.0000
28.6000 213.0000 1.0000
28.6200 215.0000 1.0000
28.6400 226.0000 1.0000
28.6600 222.0000 1.0000
28.6800 229.0000 1.0000
28.7000 224.0000 1.0000
28.7200 224.0000 1.0000
28.7400 251.0000 1.0000
28.7600 232.0000 1.0000
28.7800 222.0000 1.0000
28.8000 228.0000 1.0000
28.8200 238.0000 1.0000
28.8400 244.0000 1.0000
28.8600 247.0000 1.0000
28.8800 243.0000 1.0000
28.9000 224.0000 1.0000
28.9200 227.0000 1.0000
28.9400 233.0000 1.0000
28.9600 244.0000 1.0000
28.9800 266.0000 1.0000
29.0000 270.0000 1.0000
29.0200 280.0000 1.0000
29.0400 282.0000 1.0000
29.0600 286.0000 1.0000
29.0800 293.0000 1.0000
29.1000 313.0000 1.0000
29.1200 313.0000 1.0000
29.1400 342.0000 1.0000
29.1600 386.0000 1.0000
29.1800 418.0000 1.0000
29.2000 451.0000 1.0000
29.2200 482.0000 1.0000
29.2400 538.0000 1.0000
29.2600 586.0000 1.0000
29.2800 603.0000 1.0000
29.3000 615.0000 1.0000
29.3200 619.0000 1.0000
29.3400 593.0000 1.0000
29.3600 544.0000 1.0000
29.3800 510.0000 1.0000
29.4000 497.0000 1.0000
29.4200 477.0000 1.0000
29.4400 444.0000 1.0000
29.4600 414.0000 1.0000
29.4800 386.0000 1.0000
29.5000 379.0000 1.0000
29.5200 387.0000 1.0000
29.5400 419.0000 1.0000
29.5600 399.0000 1.0000
29.5800 404.0000 1.0000
29.6000 426.0000 1.0000
29.6200 430.0000 1.0000
29.6400 431.0000 1.0000
29.6600 475.0000 1.0000
29.6800 494.0000 1.0000
29.7000 493.0000 1.0000
29.7200 489.0000 1.0000
29.7400 493.0000 1.0000
29.7600 469.0000 1.0000
29.7800 466.0000 1.0000
29.8000 437.0000 1.0000
29.8200 414.0000 1.0000
29.8400 422.0000 1.0000
29.8600 380.0000 1.0000
29.8800 370.0000 1.0000
29.9000 388.0000 1.0000
29.9200 385.0000 1.0000
29.9400 390.0000 1.0000
29.9600 395.0000 1.0000
29.9800 371.0000 1.0000
30.0000 399.0000 1.0000
30.0200 421.0000 1.0000
30.0400 395.0000 1.0000
30.0600 374.0000 1.0000
30.0800 417.0000 1.0000
30.1000 421.0000 1.0000
30.1200 407.0000 1.0000
30.1400 432.0000 1.0000
30.1600 452.0000 1.0000
30.1800 432.0000 1.0000
30.2000 383.0000 1.0000
30.2200 404.0000 1.0000
30.2400 426.0000 1.0000
30.2600 427.0000 1.0000
30.2800 428.0000 1.0000
30.3000 440.0000 1.0000
30.3200 423.0000 1.0000
30.3400 436.0000 1.0000
30.3600 442.0000 1.0000
30.3800 438.0000 1.0000
30.4000 427.0000 1.0000
30.4200 418.0000 1.0000
30.4400 394.0000 1.0000
30.4600 372.0000 1.0000
30.4800 354.0000 1.0000
30.5000 325.0000 1.0000
30.5200 330.0000 1.0000
30.5400 337.0000 1.0000
30.5600 292.0000 1.0000
30.5800 290.0000 1.0000
30.6000 295.0000 1.0000
30.6200 305.0000 1.0000
30.6400 319.0000 1.0000
30.6600 311.0000 1.0000
30.6800 302.0000 1.0000
30.7000 300.0000 1.0000
30.7200 307.0000 1.0000
30.7400 322.0000 1.0000
30.7600 311.0000 1.0000
30.7800 313.0000 1.0000
30.8000 282.0000 1.0000
30.8200 299.0000 1.0000
30.8400 302.0000 1.0000
30.8600 283.0000 1.0000
30.8800 257.0000 1.0000
30.9000 265.0000 1.0000
30.9200 261.0000 1.0000
30.9400 264.0000 1.0000
30.9600 268.0000 1.0000
30.9800 252.0000 1.0000
31.0000 257.0000 1.0000
31.0200 264.0000 1.0000
31.0400 279.0000 1.0000
31.0600 271.0000 1.0000
31.0800 265.0000 1.0000
31.1000 263.0000 1.0000
31.1200 280.0000 1.0000
31.1400 261.0000 1.0000
31.1600 250.0000 1.0000
31.1800 274.0000 1.0000
31.2000 276.0000 1.0000
31.2200 243.0000 1.0000
31.2400 255.0000 1.0000
31.2600 254.0000 1.0000
31.2800 240.0000 1.0000
31.3000 244.0000 1.0000
31.3200 260.0000 1.0000
31.3400 246.0000 1.0000
31.3600 237.0000 1.0000
31.3800 238.0000 1.0000
31.4000 246.0000 1.0000
31.4200 231.0000 1.0000
31.4400 246.0000 1.0000
31.4600 227.0000 1.0000
31.4800 237.0000 1.0000
31.5000 210.0000 1.0000
31.5200 210.0000 1.0000
31.5400 218.0000 1.0000
31.5600 228.0000 1.0000
31.5800 206.0000 1.0000
31.6000 181.0000 1.0000
31.6200 187.0000 1.0000
31.6400 174.0000 1.0000
31.6600 191.0000 1.0000
31.6800 203.0000 1.0000
31.7000 188.0000 1.0000
31.7200 202.0000 1.0000
31.7400 204.0000 1.0000
31.7600 204.0000 1.0000
31.7800 216.0000 1.0000
31.8000 206.0000 1.0000
31.8200 205.0000 1.0000
31.8400 207.0000 1.0000
31.8600 204.0000 1.0000
31.8800 200.0000 1.0000
31.9000 192.0000 1.0000
31.9200 211.0000 1.0000
31.9400 202.0000 1.0000
31.9600 175.0000 1.0000
31.9800 208.0000 1.0000
32.0000 202.0000 1.0000
32.0200 188.0000 1.0000
32.0400 204.0000 1.0000
32.0600 202.0000 1.0000
32.0800 183.0000 1.0000
32.1000 185.0000 1.0000
32.1200 184.0000 1.0000
32.1400 195.0000 1.0000
32.1600 212.0000 1.0000
32.1800 195.0000 1.0000
32.2000 191.0000 1.0000
32.2200 202.0000 1.0000
32.2400 193.0000 1.0000
32.2600 172.0000 1.0000
32.2800 162.0000 1.0000
32.3000 178.0000 1.0000
32.3200 163.0000 1.0000
32.3400 167.0000 1.0000
32.3600 184.0000 1.0000
32.3800 185.0000 1.0000
32.4000 172.0000 1.0000
32.4200 162.0000 1.0000
32.4400 170.0000 1.0000
32.4600 150.0000 1.0000
32.4800 161.0000 1.0000
32.5000 143.0000 1.0000
32.5200 133.0000 1.0000
32.5400 151.0000 1.0000
32.5600 159.0000 1.0000
32.5800 159.0000 1.0000
32.6000 145.0000 1.0000
32.6200 149.0000 1.0000
32.6400 150.0000 1.0000
32.6600 152.0000 1.0000
32.6800 151.0000 1.0000
32.7000 156.0000 1.0000
32.7200 152.0000 1.0000
32.7400 159.0000 1.0000
32.7600 157.0000 1.0000
32.7800 141.0000 1.0000
32.8000 146.0000 1.0000
32.8200 181.0000 1.0000
32.8400 173.0000 1.0000
32.8600 155.0000 1.0000
32.8800 169.0000 1.0000
32.9000 172.0000 1.0000
32.9200 158.0000 1.0000
32.9400 197.0000 1.0000
32.9600 198.0000 1.0000
32.9800 196.0000 1.0000
33.0000 187.0000 1.0000
33.0200 206.0000 1.0000
33.0400 208.0000 1.0000
33.0600 181.0000 1.0000
33.0800 221.0000 1.0000
33.1000 179.0000 1.0000
33.1200 184.0000 1.0000
33.1400 188.0000 1.0000
33.1600 184.0000 1.0000
33.1800 160.0000 1.0000
33.2000 175.0000 1.0000
33.2200 150.0000 1.0000
33.2400 150.0000 1.0000
33.2600 165.0000 1.0000
33.2800 200.0000 1.0000
33.3000 182.0000 1.0000
33.3200 167.0000 1.0000
33.3400 140.0000 1.0000
33.3600 164.0000 1.0000
33.3800 159.0000 1.0000
33.4000 164.0000 1.0000
33.4200 173.0000 1.0000
33.4400 181.0000 1.0000
33.4600 189.0000 1.0000
33.4800 190.0000 1.0000
33.5000 186.0000 1.0000
33.5200 157.0000 1.0000
33.5400 157.0000 1.0000
33.5600 196.0000 1.0000
33.5800 172.0000 1.0000
33.6000 182.0000 1.0000
33.6200 204.0000 1.0000
33.6400 192.0000 1.0000
33.6600 209.0000 1.0000
33.6800 192.0000 1.0000
33.7000 227.0000 1.0000
33.7200 215.0000 1.0000
33.7400 230.0000 1.0000
33.7600 212.0000 1.0000
33.7800 243.0000 1.0000
33.8000 255.0000 1.0000
33.8200 230.0000 1.0000
33.8400 207.0000 1.0000
33.8600 217.0000 1.0000
33.8800 231.0000 1.0000
33.9000 228.0000 1.0000
33.9200 222.0000 1.0000
33.9400 213.0000 1.0000
33.9600 225.0000 1.0000
33.9800 195.0000 1.0000
34.0000 209.0000 1.0000
34.0200 246.0000 1.0000
34.0400 213.0000 1.0000
34.0600 198.0000 1.0000
34.0800 223.0000 1.0000
34.1000 231.0000 1.0000
34.1200 212.0000 1.0000
34.1400 219.0000 1.0000
34.1600 271.0000 1.0000
34.1800 250.0000 1.0000
34.2000 282.0000 1.0000
34.2200 301.0000 1.0000
34.2400 265.0000 1.0000
34.2600 285.0000 1.0000
34.2800 327.0000 1.0000
34.3000 330.0000 1.0000
34.3200 349.0000 1.0000
34.3400 333.0000 1.0000
34.3600 389.0000 1.0000
34.3800 361.0000 1.0000
34.4000 394.0000 1.0000
34.4200 403.0000 1.0000
34.4400 355.0000 1.0000
34.4600 408.0000 1.0000
34.4800 406.0000 1.0000
34.5000 442.0000 1.0000
34.5200 454.0000 1.0000
34.5400 442.0000 1.0000
34.5600 469.0000 1.0000
34.5800 491.0000 1.0000
34.6000 498.0000 1.0000
34.6200 484.0000 1.0000
34.6400 515.0000 1.0000
34.6600 536.0000 1.0000
34.6800 582.0000 1.0000
34.7000 571.0000 1.0000
34.7200 573.0000 1.0000
34.7400 643.0000 1.0000
34.7600 638.0000 1.0000
34.7800 592.0000 1.0000
34.8000 656.0000 1.0000
34.8200 691.0000 1.0000
34.8400 661.0000 1.0000
34.8600 749.0000 1.0000
34.8800 814.0000 1.0000
34.9000 852.0000 1.0000
34.9200 981.0000 1.0000
34.9400 1051.0000 1.0000
34.9600 1239.0000 1.0000
34.9800 1433.0000 1.0000
35.0000 1701.0000 1.0000
35.0200 1751.0000 1.0000
35.0400 1893.0000 1.0000
35.0600 1900.0000 1.0000
35.0800 1838.0000 1.0000
35.1000 1704.0000 1.0000
35.1200 1515.0000 1.0000
35.1400 1280.0000 1.0000
35.1600 1111.0000 1.0000
35.1800 948.0000 1.0000
35.2000 811.0000 1.0000
35.2200 650.0000 1.0000
35.2400 530.0000 1.0000
35.2600 503.0000 1.0000
35.2800 491.0000 1.0000
35.3000 443.0000 1.0000
35.3200 431.0000 1.0000
35.3400 471.0000 1.0000
35.3600 446.0000 1.0000
35.3800 466.0000 1.0000
35.4000 474.0000 1.0000
35.4200 427.0000 1.0000
35.4400 429.0000 1.0000
35.4600 477.0000 1.0000
35.4800 480.0000 1.0000
35.5000 423.0000 1.0000
35.5200 444.0000 1.0000
35.5400 440.0000 1.0000
35.5600 398.0000 1.0000
35.5800 423.0000 1.0000
35.6000 409.0000 1.0000
35.6200 383.0000 1.0000
35.6400 363.0000 1.0000
35.6600 357.0000 1.0000
35.6800 344.0000 1.0000
35.7000 347.0000 1.0000
35.7200 323.0000 1.0000
35.7400 323.0000 1.0000
35.7600 308.0000 1.0000
35.7800 314.0000 1.0000
35.8000 296.0000 1.0000
35.8200 253.0000 1.0000
35.8400 303.0000 1.0000
35.8600 314.0000 1.0000
35.8800 299.0000 1.0000
35.9000 309.0000 1.0000
35.9200 286.0000 1.0000
35.9400 304.0000 1.0000
35.9600 297.0000 1.0000
35.9800 301.0000 1.0000
36.0000 277.0000 1.0000
36.0200 295.0000 1.0000
36.0400 278.0000 1.0000
36.0600 269.0000 1.0000
36.0800 283.0000 1.0000
36.1000 241.0000 1.0000
36.1200 273.0000 1.0000
36.1400 267.0000 1.0000
36.1600 278.0000 1.0000
36.1800 273.0000 1.0000
36.2000 263.0000 1.0000
36.2200 297.0000 1.0000
36.2400 317.0000 1.0000
36.2600 329.0000 1.0000
36.2800 353.0000 1.0000
36.3000 374.0000 1.0000
36.3200 418.0000 1.0000
36.3400 480.0000 1.0000
36.3600 534.0000 1.0000
36.3800 598.0000 1.0000
36.4000 658.0000 1.0000
36.4200 714.0000 1.0000
36.4400 715.0000 1.0000
36.4600 699.0000 1.0000
36.4800 700.0000 1.0000
36.5000 644.0000 1.0000
36.5200 659.0000 1.0000
36.5400 591.0000 1.0000
36.5600 529.0000 1.0000
36.5800 485.0000 1.0000
36.6000 431.0000 1.0000
36.6200 414.0000 1.0000
36.6400 377.0000 1.0000
36.6600 341.0000 1.0000
36.6800 340.0000 1.0000
36.7000 351.0000 1.0000
36.7200 311.0000 1.0000
36.7400 328.0000 1.0000
36.7600 293.0000 1.0000
36.7800 278.0000 1.0000
36.8000 318.0000 1.0000
36.8200 292.0000 1.0000
36.8400 289.0000 1.0000
36.8600 283.0000 1.0000
36.8800 266.0000 1.0000
36.9000 249.0000 1.0000
36.9200 261.0000 1.0000
36.9400 277.0000 1.0000
36.9600 261.0000 1.0000
36.9800 273.0000 1.0000
37.0000 271.0000 1.0000
37.0200 250.0000 1.0000
37.0400 263.0000 1.0000
37.0600 262.0000 1.0000
37.0800 248.0000 1.0000
37.1000 231.0000 1.0000
37.1200 246.0000 1.0000
37.1400 234.0000 1.0000
37.1600 253.0000 1.0000
37.1800 248.0000 1.0000
37.2000 271.0000 1.0000
37.2200 274.0000 1.0000
37.2400 260.0000 1.0000
37.2600 275.0000 1.0000
37.2800 315.0000 1.0000
37.3000 302.0000 1.0000
37.3200 287.0000 1.0000
37.3400 291.0000 1.0000
37.3600 310.0000 1.0000
37.3800 289.0000 1.0000
37.4000 291.0000 1.0000
37.4200 315.0000 1.0000
37.4400 302.0000 1.0000
37.4600 320.0000 1.0000
37.4800 362.0000 1.0000
37.5000 379.0000 1.0000
37.5200 399.0000 1.0000
37.5400 432.0000 1.0000
37.5600 496.0000 1.0000
37.5800 537.0000 1.0000
37.6000 646.0000 1.0000
37.6200 735.0000 1.0000
37.6400 761.0000 1.0000
37.6600 839.0000 1.0000
37.6800 862.0000 1.0000
37.7000 806.0000 1.0000
37.7200 788.0000 1.0000
37.7400 741.0000 1.0000
37.7600 612.0000 1.0000
37.7800 529.0000 1.0000
37.8000 473.0000 1.0000
37.8200 414.0000 1.0000
37.8400 326.0000 1.0000
37.8600 273.0000 1.0000
37.8800 258.0000 1.0000
37.9000 250.0000 1.0000
37.9200 232.0000 1.0000
37.9400 198.0000 1.0000
37.9600 212.0000 1.0000
37.9800 204.0000 1.0000
38.0000 196.0000 1.0000
38.0200 202.0000 1.0000
38.0400 172.0000 1.0000
38.0600 181.0000 1.0000
38.0800 185.0000 1.0000
38.1000 191.0000 1.0000
38.1200 175.0000 1.0000
38.1400 163.0000 1.0000
38.1600 187.0000 1.0000
38.1800 170.0000 1.0000
38.2000 161.0000 1.0000
38.2200 163.0000 1.0000
38.2400 154.0000 1.0000
38.2600 149.0000 1.0000
38.2800 160.0000 1.0000
38.3000 172.0000 1.0000
38.3200 172.0000 1.0000
38.3400 151.0000 1.0000
38.3600 153.0000 1.0000
38.3800 158.0000 1.0000
38.4000 147.0000 1.0000
38.4200 165.0000 1.0000
38.4400 165.0000 1.0000
38.4600 142.0000 1.0000
38.4800 153.0000 1.0000
38.5000 172.0000 1.0000
38.5200 183.0000 1.0000
38.5400 175.0000 1.0000
38.5600 155.0000 1.0000
38.5800 153.0000 1.0000
38.6000 152.0000 1.0000
38.6200 167.0000 1.0000
38.6400 177.0000 1.0000
38.6600 160.0000 1.0000
38.6800 172.0000 1.0000
38.7000 176.0000 1.0000
38.7200 189.0000 1.0000
38.7400 192.0000 1.0000
38.7600 175.0000 1.0000
38.7800 185.0000 1.0000
38.8000 176.0000 1.0000
38.8200 165.0000 1.0000
38.8400 156.0000 1.0000
38.8600 193.0000 1.0000
38.8800 190.0000 1.0000
38.9000 175.0000 1.0000
38.9200 173.0000 1.0000
38.9400 172.0000 1.0000
38.9600 178.0000 1.0000
38.9800 184.0000 1.0000
39.0000 179.0000 1.0000
39.0200 182.0000 1.0000
39.0400 177.0000 1.0000
39.0600 166.0000 1.0000
39.0800 182.0000 1.0000
39.1000 211.0000 1.0000
39.1200 196.0000 1.0000
39.1400 180.0000 1.0000
39.1600 214.0000 1.0000
39.1800 234.0000 1.0000
39.2000 248.0000 1.0000
39.2200 267.0000 1.0000
39.2400 303.0000 1.0000
39.2600 346.0000 1.0000
39.2800 410.0000 1.0000
39.3000 465.0000 1.0000
39.3200 513.0000 1.0000
39.3400 548.0000 1.0000
39.3600 587.0000 1.0000
39.3800 601.0000 1.0000
39.4000 586.0000 1.0000
39.4200 562.0000 1.0000
39.4400 492.0000 1.0000
39.4600 444.0000 1.0000
39.4800 409.0000 1.0000
39.5000 364.0000 1.0000
39.5200 320.0000 1.0000
39.5400 275.0000 1.0000
39.5600 238.0000 1.0000
39.5800 223.0000 1.0000
39.6000 219.0000 1.0000
39.6200 208.0000 1.0000
39.6400 212.0000 1.0000
39.6600 215.0000 1.0000
39.6800 210.0000 1.0000
39.7000 203.0000 1.0000
39.7200 206.0000 1.0000
39.7400 208.0000 1.0000
39.7600 201.0000 1.0000
39.7800 184.0000 1.0000
39.8000 204.0000 1.0000
39.8200 191.0000 1.0000
39.8400 175.0000 1.0000
39.8600 183.0000 1.0000
39.8800 175.0000 1.0000
39.9000 193.0000 1.0000
39.9200 195.0000 1.0000
39.9400 190.0000 1.0000
39.9600 203.0000 1.0000
39.9800 200.0000 1.0000
40.0000 196.0000 1.0000
40.0200 212.0000 1.0000
40.0400 215.0000 1.0000
40.0600 233.0000 1.0000
40.0800 249.0000 1.0000
40.1000 250.0000 1.0000
40.1200 284.0000 1.0000
40.1400 317.0000 1.0000
40.1600 320.0000 1.0000
40.1800 331.0000 1.0000
40.2000 346.0000 1.0000
40.2200 349.0000 1.0000
40.2400 333.0000 1.0000
40.2600 318.0000 1.0000
40.2800 298.0000 1.0000
40.3000 270.0000 1.0000
40.3200 254.0000 1.0000
40.3400 235.0000 1.0000
40.3600 226.0000 1.0000
40.3800 217.0000 1.0000
40.4000 201.0000 1.0000
40.4200 186.0000 1.0000
40.4400 185.0000 1.0000
40.4600 200.0000 1.0000
40.4800 201.0000 1.0000
40.5000 173.0000 1.0000
40.5200 158.0000 1.0000
40.5400 185.0000 1.0000
40.5600 196.0000 1.0000
40.5800 184.0000 1.0000
40.6000 181.0000 1.0000
40.6200 185.0000 1.0000
40.6400 184.0000 1.0000
40.6600 169.0000 1.0000
40.6800 182.0000 1.0000
40.7000 196.0000 1.0000
40.7200 187.0000 1.0000
40.7400 197.0000 1.0000
40.7600 189.0000 1.0000
40.7800 172.0000 1.0000
40.8000 199.0000 1.0000
40.8200 220.0000 1.0000
40.8400 204.0000 1.0000
40.8600 182.0000 1.0000
40.8800 172.0000 1.0000
40.9000 182.0000 1.0000
40.9200 186.0000 1.0000
40.9400 187.0000 1.0000
40.9600 198.0000 1.0000
40.9800 195.0000 1.0000
41.0000 190.0000 1.0000
41.0200 194.0000 1.0000
41.0400 200.0000 1.0000
41.0600 180.0000 1.0000
41.0800 184.0000 1.0000
41.1000 180.0000 1.0000
41.1200 182.0000 1.0000
41.1400 177.0000 1.0000
41.1600 179.0000 1.0000
41.1800 187.0000 1.0000
41.2000 180.0000 1.0000
41.2200 182.0000 1.0000
41.2400 178.0000 1.0000
41.2600 174.0000 1.0000
41.2800 170.0000 1.0000
41.3000 166.0000 1.0000
41.3200 169.0000 1.0000
41.3400 183.0000 1.0000
41.3600 175.0000 1.0000
41.3800 172.0000 1.0000
41.4000 179.0000 1.0000
41.4200 177.0000 1.0000
41.4400 181.0000 1.0000
41.4600 199.0000 1.0000
41.4800 206.0000 1.0000
41.5000 204.0000 1.0000
41.5200 199.0000 1.0000
41.5400 208.0000 1.0000
41.5600 231.0000 1.0000
41.5800 225.0000 1.0000
41.6000 233.0000 1.0000
41.6200 213.0000 1.0000
41.6400 217.0000 1.0000
41.6600 225.0000 1.0000
41.6800 230.0000 1.0000
41.7000 230.0000 1.0000
41.7200 240.0000 1.0000
41.7400 247.0000 1.0000
41.7600 241.0000 1.0000
41.7800 251.0000 1.0000
41.8000 233.0000 1.0000
41.8200 234.0000 1.0000
41.8400 227.0000 1.0000
41.8600 226.0000 1.0000
41.8800 217.0000 1.0000
41.9000 220.0000 1.0000
41.9200 225.0000 1.0000
41.9400 232.0000 1.0000
41.9600 226.0000 1.0000
41.9800 238.0000 1.0000
42.0000 221.0000 1.0000
42.0200 229.0000 1.0000
42.0400 249.0000 1.0000
42.0600 250.0000 1.0000
42.0800 250.0000 1.0000
42.1000 248.0000 1.0000
42.1200 274.0000 1.0000
42.1400 287.0000 1.0000
42.1600 296.0000 1.0000
42.1800 284.0000 1.0000
42.2000 299.0000 1.0000
42.2200 351.0000 1.0000
42.2400 375.0000 1.0000
42.2600 429.0000 1.0000
42.2800 445.0000 1.0000
42.3000 475.0000 1.0000
42.3200 523.0000 1.0000
42.3400 556.0000 1.0000
42.3600 552.0000 1.0000
42.3800 527.0000 1.0000
42.4000 517.0000 1.0000
42.4200 478.0000 1.0000
42.4400 464.0000 1.0000
42.4600 407.0000 1.0000
42.4800 370.0000 1.0000
42.5000 333.0000 1.0000
42.5200 299.0000 1.0000
42.5400 276.0000 1.0000
42.5600 245.0000 1.0000
42.5800 237.0000 1.0000
42.6000 252.0000 1.0000
42.6200 254.0000 1.0000
42.6400 239.0000 1.0000
42.6600 212.0000 1.0000
42.6800 240.0000 1.0000
42.7000 240.0000 1.0000
42.7200 230.0000 1.0000
42.7400 209.0000 1.0000
42.7600 221.0000 1.0000
42.7800 221.0000 1.0000
42.8000 230.0000 1.0000
42.8200 226.0000 1.0000
42.8400 250.0000 1.0000
42.8600 221.0000 1.0000
42.8800 237.0000 1.0000
42.9000 248.0000 1.0000
42.9200 234.0000 1.0000
42.9400 254.0000 1.0000
42.9600 274.0000 1.0000
42.9800 286.0000 1.0000
43.0000 304.0000 1.0000
43.0200 307.0000 1.0000
43.0400 332.0000 1.0000
43.0600 390.0000 1.0000
43.0800 451.0000 1.0000
43.1000 504.0000 1.0000
43.1200 605.0000 1.0000
43.1400 723.0000 1.0000
43.1600 885.0000 1.0000
43.1800 1047.0000 1.0000
43.2000 1287.0000 1.0000
43.2200 1556.0000 1.0000
43.2400 1718.0000 1.0000
43.2600 1749.0000 1.0000
43.2800 1656.0000 1.0000
43.3000 1557.0000 1.0000
43.3200 1404.0000 1.0000
43.3400 1335.0000 1.0000
43.3600 1131.0000 1.0000
43.3800 975.0000 1.0000
43.4000 875.0000 1.0000
43.4200 721.0000 1.0000
43.4400 600.0000 1.0000
43.4600 426.0000 1.0000
43.4800 386.0000 1.0000
43.5000 327.0000 1.0000
43.5200 276.0000 1.0000
43.5400 242.0000 1.0000
43.5600 228.0000 1.0000
43.5800 212.0000 1.0000
43.6000 211.0000 1.0000
43.6200 194.0000 1.0000
43.6400 203.0000 1.0000
43.6600 191.0000 1.0000
43.6800 184.0000 1.0000
43.7000 196.0000 1.0000
43.7200 180.0000 1.0000
43.7400 178.0000 1.0000
43.7600 177.0000 1.0000
43.7800 149.0000 1.0000
43.8000 156.0000 1.0000
43.8200 152.0000 1.0000
43.8400 185.0000 1.0000
43.8600 189.0000 1.0000
43.8800 159.0000 1.0000
43.9000 168.0000 1.0000
43.9200 173.0000 1.0000
43.9400 184.0000 1.0000
43.9600 159.0000 1.0000
43.9800 153.0000 1.0000
44.0000 175.0000 1.0000
44.0200 163.0000 1.0000
44.0400 133.0000 1.0000
44.0600 159.0000 1.0000
44.0800 170.0000 1.0000
44.1000 172.0000 1.0000
44.1200 153.0000 1.0000
44.1400 149.0000 1.0000
44.1600 153.0000 1.0000
44.1800 162.0000 1.0000
44.2000 162.0000 1.0000
44.2200 135.0000 1.0000
44.2400 160.0000 1.0000
44.2600 162.0000 1.0000
44.2800 138.0000 1.0000
44.3000 159.0000 1.0000
44.3200 150.0000 1.0000
44.3400 141.0000 1.0000
44.3600 163.0000 1.0000
44.3800 161.0000 1.0000
44.4000 188.0000 1.0000
44.4200 147.0000 1.0000
44.4400 137.0000 1.0000
44.4600 147.0000 1.0000
44.4800 149.0000 1.0000
44.5000 143.0000 1.0000
44.5200 161.0000 1.0000
44.5400 171.0000 1.0000
44.5600 165.0000 1.0000
44.5800 175.0000 1.0000
44.6000 154.0000 1.0000
44.6200 159.0000 1.0000
44.6400 162.0000 1.0000
44.6600 147.0000 1.0000
44.6800 185.0000 1.0000
44.7000 184.0000 1.0000
44.7200 173.0000 1.0000
44.7400 164.0000 1.0000
44.7600 179.0000 1.0000
44.7800 181.0000 1.0000
44.8000 171.0000 1.0000
44.8200 188.0000 1.0000
44.8400 149.0000 1.0000
44.8600 170.0000 1.0000
44.8800 164.0000 1.0000
44.9000 183.0000 1.0000
44.9200 203.0000 1.0000
44.9400 154.0000 1.0000
44.9600 171.0000 1.0000
44.9800 214.0000 1.0000
45.0000 185.0000 1.0000
45.0200 172.0000 1.0000
45.0400 174.0000 1.0000
45.0600 209.0000 1.0000
45.0800 204.0000 1.0000
45.1000 190.0000 1.0000
45.1200 173.0000 1.0000
45.1400 205.0000 1.0000
45.1600 205.0000 1.0000
45.1800 177.0000 1.0000
45.2000 199.0000 1.0000
45.2200 171.0000 1.0000
45.2400 191.0000 1.0000
45.2600 213.0000 1.0000
45.2800 203.0000 1.0000
45.3000 210.0000 1.0000
45.3200 228.0000 1.0000
45.3400 203.0000 1.0000
45.3600 220.0000 1.0000
45.3800 199.0000 1.0000
45.4000 233.0000 1.0000
45.4200 206.0000 1.0000
45.4400 199.0000 1.0000
45.4600 215.0000 1.0000
45.4800 216.0000 1.0000
45.5000 192.0000 1.0000
45.5200 211.0000 1.0000
45.5400 219.0000 1.0000
45.5600 250.0000 1.0000
45.5800 240.0000 1.0000
45.6000 238.0000 1.0000
45.6200 308.0000 1.0000
45.6400 356.0000 1.0000
45.6600 334.0000 1.0000
45.6800 354.0000 1.0000
45.7000 342.0000 1.0000
45.7200 335.0000 1.0000
45.7400 355.0000 1.0000
45.7600 300.0000 1.0000
45.7800 317.0000 1.0000
45.8000 290.0000 1.0000
45.8200 282.0000 1.0000
45.8400 267.0000 1.0000
45.8600 237.0000 1.0000
45.8800 206.0000 1.0000
45.9000 202.0000 1.0000
45.9200 217.0000 1.0000
45.9400 148.0000 1.0000
45.9600 198.0000 1.0000
45.9800 191.0000 1.0000
46.0000 173.0000 1.0000
46.0200 217.0000 1.0000
46.0400 177.0000 1.0000
46.0600 185.0000 1.0000
46.0800 178.0000 1.0000
46.1000 182.0000 1.0000
46.1200 182.0000 1.0000
46.1400 162.0000 1.0000
46.1600 171.0000 1.0000
46.1800 164.0000 1.0000
46.2000 154.0000 1.0000
46.2200 157.0000 1.0000
46.2400 135.0000 1.0000
46.2600 168.0000 1.0000
46.2800 156.0000 1.0000
46.3000 139.0000 1.0000
46.3200 137.0000 1.0000
46.3400 144.0000 1.0000
46.3600 156.0000 1.0000
46.3800 135.0000 1.0000
46.4000 171.0000 1.0000
46.4200 156.0000 1.0000
46.4400 139.0000 1.0000
46.4600 134.0000 1.0000
46.4800 134.0000 1.0000
46.5000 142.0000 1.0000
46.5200 141.0000 1.0000
46.5400 127.0000 1.0000
46.5600 135.0000 1.0000
46.5800 126.0000 1.0000
46.6000 130.0000 1.0000
46.6200 136.0000 1.0000
46.6400 134.0000 1.0000
46.6600 145.0000 1.0000
46.6800 141.0000 1.0000
46.7000 123.0000 1.0000
46.7200 151.0000 1.0000
46.7400 128.0000 1.0000
46.7600 118.0000 1.0000
46.7800 129.0000 1.0000
46.8000 130.0000 1.0000
46.8200 150.0000 1.0000
46.8400 147.0000 1.0000
46.8600 153.0000 1.0000
46.8800 127.0000 1.0000
46.9000 146.0000 1.0000
46.9200 146.0000 1.0000
46.9400 144.0000 1.0000
46.9600 152.0000 1.0000
46.9800 165.0000 1.0000
47.0000 174.0000 1.0000
47.0200 181.0000 1.0000
47.0400 165.0000 1.0000
47.0600 163.0000 1.0000
47.0800 180.0000 1.0000
47.1000 150.0000 1.0000
47.1200 144.0000 1.0000
47.1400 150.0000 1.0000
47.1600 167.0000 1.0000
47.1800 155.0000 1.0000
47.2000 153.0000 1.0000
47.2200 149.0000 1.0000
47.2400 158.0000 1.0000
47.2600 172.0000 1.0000
47.2800 172.0000 1.0000
47.3000 153.0000 1.0000
47.3200 160.0000 1.0000
47.3400 160.0000 1.0000
47.3600 150.0000 1.0000
47.3800 160.0000 1.0000
47.4000 160.0000 1.0000
47.4200 166.0000 1.0000
47.4400 166.0000 1.0000
47.4600 160.0000 1.0000
47.4800 164.0000 1.0000
47.5000 151.0000 1.0000
47.5200 141.0000 1.0000
47.5400 146.0000 1.0000
47.5600 144.0000 1.0000
47.5800 140.0000 1.0000
47.6000 146.0000 1.0000
47.6200 155.0000 1.0000
47.6400 149.0000 1.0000
47.6600 139.0000 1.0000
47.6800 134.0000 1.0000
47.7000 132.0000 1.0000
47.7200 155.0000 1.0000
47.7400 154.0000 1.0000
47.7600 144.0000 1.0000
47.7800 135.0000 1.0000
47.8000 140.0000 1.0000
47.8200 142.0000 1.0000
47.8400 146.0000 1.0000
47.8600 165.0000 1.0000
47.8800 181.0000 1.0000
47.9000 157.0000 1.0000
47.9200 156.0000 1.0000
47.9400 159.0000 1.0000
47.9600 166.0000 1.0000
47.9800 159.0000 1.0000
48.0000 157.0000 1.0000
48.0200 165.0000 1.0000
48.0400 171.0000 1.0000
48.0600 166.0000 1.0000
48.0800 183.0000 1.0000
48.1000 187.0000 1.0000
48.1200 176.0000 1.0000
48.1400 160.0000 1.0000
48.1600 157.0000 1.0000
48.1800 197.0000 1.0000
48.2000 186.0000 1.0000
48.2200 154.0000 1.0000
48.2400 155.0000 1.0000
48.2600 179.0000 1.0000
48.2800 179.0000 1.0000
48.3000 182.0000 1.0000
48.3200 186.0000 1.0000
48.3400 168.0000 1.0000
48.3600 173.0000 1.0000
48.3800 161.0000 1.0000
48.4000 171.0000 1.0000
48.4200 173.0000 1.0000
48.4400 162.0000 1.0000
48.4600 176.0000 1.0000
48.4800 181.0000 1.0000
48.5000 171.0000 1.0000
48.5200 162.0000 1.0000
48.5400 148.0000 1.0000
48.5600 146.0000 1.0000
48.5800 163.0000 1.0000
48.6000 160.0000 1.0000
48.6200 150.0000 1.0000
48.6400 150.0000 1.0000
48.6600 141.0000 1.0000
48.6800 137.0000 1.0000
48.7000 140.0000 1.0000
48.7200 138.0000 1.0000
48.7400 139.0000 1.0000
48.7600 139.0000 1.0000
48.7800 141.0000 1.0000
48.8000 141.0000 1.0000
48.8200 141.0000 1.0000
48.8400 146.0000 1.0000
48.8600 147.0000 1.0000
48.8800 131.0000 1.0000
48.9000 135.0000 1.0000
48.9200 150.0000 1.0000
48.9400 146.0000 1.0000
48.9600 134.0000 1.0000
48.9800 146.0000 1.0000
49.0000 174.0000 1.0000
49.0200 173.0000 1.0000
49.0400 164.0000 1.0000
49.0600 169.0000 1.0000
49.0800 185.0000 1.0000
49.1000 196.0000 1.0000
49.1200 188.0000 1.0000
49.1400 172.0000 1.0000
49.1600 182.0000 1.0000
49.1800 182.0000 1.0000
49.2000 180.0000 1.0000
49.2200 177.0000 1.0000
49.2400 171.0000 1.0000
49.2600 175.0000 1.0000
49.2800 188.0000 1.0000
49.3000 192.0000 1.0000
49.3200 181.0000 1.0000
49.3400 189.0000 1.0000
49.3600 190.0000 1.0000
49.3800 169.0000 1.0000
49.4000 176.0000 1.0000
49.4200 172.0000 1.0000
49.4400 175.0000 1.0000
49.4600 182.0000 1.0000
49.4800 177.0000 1.0000
49.5000 167.0000 1.0000
49.5200 172.0000 1.0000
49.5400 191.0000 1.0000
49.5600 191.0000 1.0000
49.5800 205.0000 1.0000
49.6000 214.0000 1.0000
49.6200 210.0000 1.0000
49.6400 217.0000 1.0000
49.6600 213.0000 1.0000
49.6800 197.0000 1.0000
49.7000 215.0000 1.0000
49.7200 227.0000 1.0000
49.7400 241.0000 1.0000
49.7600 244.0000 1.0000
49.7800 264.0000 1.0000
49.8000 256.0000 1.0000
49.8200 260.0000 1.0000
49.8400 279.0000 1.0000
49.8600 305.0000 1.0000
49.8800 327.0000 1.0000
49.9000 372.0000 1.0000
49.9200 429.0000 1.0000
49.9400 470.0000 1.0000
49.9600 542.0000 1.0000
49.9800 658.0000 1.0000
50.0000 740.0000 1.0000
50.0200 783.0000 1.0000
50.0400 821.0000 1.0000
50.0600 811.0000 1.0000
50.0800 790.0000 1.0000
50.1000 733.0000 1.0000
50.1200 640.0000 1.0000
50.1400 604.0000 1.0000
50.1600 577.0000 1.0000
50.1800 541.0000 1.0000
50.2000 497.0000 1.0000
50.2200 444.0000 1.0000
50.2400 338.0000 1.0000
50.2600 311.0000 1.0000
50.2800 272.0000 1.0000
50.3000 216.0000 1.0000
50.3200 209.0000 1.0000
50.3400 206.0000 1.0000
50.3600 181.0000 1.0000
50.3800 187.0000 1.0000
50.4000 184.0000 1.0000
50.4200 169.0000 1.0000
50.4400 191.0000 1.0000
50.4600 194.0000 1.0000
50.4800 201.0000 1.0000
50.5000 208.0000 1.0000
50.5200 214.0000 1.0000
50.5400 233.0000 1.0000
50.5600 236.0000 1.0000
50.5800 221.0000 1.0000
50.6000 229.0000 1.0000
50.6200 198.0000 1.0000
50.6400 203.0000 1.0000
50.6600 215.0000 1.0000
50.6800 200.0000 1.0000
50.7000 200.0000 1.0000
50.7200 203.0000 1.0000
50.7400 206.0000 1.0000
50.7600 199.0000 1.0000
50.7800 168.0000 1.0000
50.8000 148.0000 1.0000
50.8200 173.0000 1.0000
50.8400 157.0000 1.0000
50.8600 160.0000 1.0000
50.8800 161.0000 1.0000
50.9000 171.0000 1.0000
50.9200 167.0000 1.0000
50.9400 171.0000 1.0000
50.9600 161.0000 1.0000
50.9800 176.0000 1.0000
51.0000 180.0000 1.0000
51.0200 182.0000 1.0000
51.0400 169.0000 1.0000
51.0600 172.0000 1.0000
51.0800 185.0000 1.0000
51.1000 210.0000 1.0000
51.1200 199.0000 1.0000
51.1400 178.0000 1.0000
51.1600 190.0000 1.0000
51.1800 177.0000 1.0000
51.2000 179.0000 1.0000
51.2200 184.0000 1.0000
51.2400 176.0000 1.0000
51.2600 171.0000 1.0000
51.2800 162.0000 1.0000
51.3000 152.0000 1.0000
51.3200 154.0000 1.0000
51.3400 164.0000 1.0000
51.3600 146.0000 1.0000
51.3800 162.0000 1.0000
51.4000 147.0000 1.0000
51.4200 165.0000 1.0000
51.4400 152.0000 1.0000
51.4600 153.0000 1.0000
51.4800 157.0000 1.0000
51.5000 169.0000 1.0000
51.5200 145.0000 1.0000
51.5400 167.0000 1.0000
51.5600 125.0000 1.0000
51.5800 130.0000 1.0000
51.6000 128.0000 1.0000
51.6200 143.0000 1.0000
51.6400 137.0000 1.0000
51.6600 111.0000 1.0000
51.6800 127.0000 1.0000
51.7000 123.0000 1.0000
51.7200 128.0000 1.0000
51.7400 135.0000 1.0000
51.7600 131.0000 1.0000
51.7800 117.0000 1.0000
51.8000 123.0000 1.0000
51.8200 136.0000 1.0000
51.8400 120.0000 1.0000
51.8600 130.0000 1.0000
51.8800 146.0000 1.0000
51.9000 129.0000 1.0000
51.9200 144.0000 1.0000
51.9400 133.0000 1.0000
51.9600 142.0000 1.0000
51.9800 166.0000 1.0000
52.0000 156.0000 1.0000
52.0200 158.0000 1.0000
52.0400 157.0000 1.0000
52.0600 185.0000 1.0000
52.0800 169.0000 1.0000
52.1000 157.0000 1.0000
52.1200 176.0000 1.0000
52.1400 178.0000 1.0000
52.1600 202.0000 1.0000
52.1800 188.0000 1.0000
52.2000 172.0000 1.0000
52.2200 214.0000 1.0000
52.2400 192.0000 1.0000
52.2600 209.0000 1.0000
52.2800 245.0000 1.0000
52.3000 266.0000 1.0000
52.3200 279.0000 1.0000
52.3400 331.0000 1.0000
52.3600 408.0000 1.0000
52.3800 505.0000 1.0000
52.4000 578.0000 1.0000
52.4200 650.0000 1.0000
52.4400 766.0000 1.0000
52.4600 760.0000 1.0000
52.4800 756.0000 1.0000
52.5000 719.0000 1.0000
52.5200 694.0000 1.0000
52.5400 625.0000 1.0000
52.5600 571.0000 1.0000
52.5800 581.0000 1.0000
52.6000 510.0000 1.0000
52.6200 451.0000 1.0000
52.6400 428.0000 1.0000
52.6600 375.0000 1.0000
52.6800 344.0000 1.0000
52.7000 267.0000 1.0000
52.7200 225.0000 1.0000
52.7400 210.0000 1.0000
52.7600 195.0000 1.0000
52.7800 186.0000 1.0000
52.8000 170.0000 1.0000
52.8200 169.0000 1.0000
52.8400 159.0000 1.0000
52.8600 173.0000 1.0000
52.8800 145.0000 1.0000
52.9000 176.0000 1.0000
52.9200 167.0000 1.0000
52.9400 184.0000 1.0000
52.9600 162.0000 1.0000
52.9800 171.0000 1.0000
53.0000 173.0000 1.0000
53.0200 189.0000 1.0000
53.0400 184.0000 1.0000
53.0600 190.0000 1.0000
53.0800 186.0000 1.0000
53.1000 185.0000 1.0000
53.1200 193.0000 1.0000
53.1400 204.0000 1.0000
53.1600 173.0000 1.0000
53.1800 174.0000 1.0000
53.2000 175.0000 1.0000
53.2200 175.0000 1.0000
53.2400 192.0000 1.0000
53.2600 179.0000 1.0000
53.2800 161.0000 1.0000
53.3000 172.0000 1.0000
53.3200 174.0000 1.0000
53.3400 175.0000 1.0000
53.3600 167.0000 1.0000
53.3800 171.0000 1.0000
53.4000 167.0000 1.0000
53.4200 159.0000 1.0000
53.4400 168.0000 1.0000
53.4600 159.0000 1.0000
53.4800 161.0000 1.0000
53.5000 149.0000 1.0000
53.5200 165.0000 1.0000
53.5400 170.0000 1.0000
53.5600 187.0000 1.0000
53.5800 160.0000 1.0000
53.6000 154.0000 1.0000
53.6200 166.0000 1.0000
53.6400 153.0000 1.0000
53.6600 178.0000 1.0000
53.6800 161.0000 1.0000
53.7000 151.0000 1.0000
53.7200 155.0000 1.0000
53.7400 191.0000 1.0000
53.7600 168.0000 1.0000
53.7800 168.0000 1.0000
53.8000 181.0000 1.0000
53.8200 185.0000 1.0000
53.8400 169.0000 1.0000
53.8600 171.0000 1.0000
53.8800 175.0000 1.0000
53.9000 174.0000 1.0000
53.9200 172.0000 1.0000
53.9400 166.0000 1.0000
53.9600 182.0000 1.0000
53.9800 189.0000 1.0000
54.0000 177.0000 1.0000
54.0200 181.0000 1.0000
54.0400 189.0000 1.0000
54.0600 177.0000 1.0000
54.0800 164.0000 1.0000
54.1000 168.0000 1.0000
54.1200 157.0000 1.0000
54.1400 162.0000 1.0000
54.1600 154.0000 1.0000
54.1800 151.0000 1.0000
54.2000 168.0000 1.0000
54.2200 176.0000 1.0000
54.2400 164.0000 1.0000
54.2600 170.0000 1.0000
54.2800 174.0000 1.0000
54.3000 170.0000 1.0000
54.3200 163.0000 1.0000
54.3400 181.0000 1.0000
54.3600 187.0000 1.0000
54.3800 182.0000 1.0000
54.4000 190.0000 1.0000
54.4200 189.0000 1.0000
54.4400 160.0000 1.0000
54.4600 169.0000 1.0000
54.4800 179.0000 1.0000
54.5000 182.0000 1.0000
54.5200 170.0000 1.0000
54.5400 187.0000 1.0000
54.5600 191.0000 1.0000
54.5800 204.0000 1.0000
54.6000 203.0000 1.0000
54.6200 194.0000 1.0000
54.6400 215.0000 1.0000
54.6600 227.0000 1.0000
54.6800 241.0000 1.0000
54.7000 265.0000 1.0000
54.7200 327.0000 1.0000
54.7400 337.0000 1.0000
54.7600 353.0000 1.0000
54.7800 374.0000 1.0000
54.8000 339.0000 1.0000
54.8200 320.0000 1.0000
54.8400 331.0000 1.0000
54.8600 321.0000 1.0000
54.8800 286.0000 1.0000
54.9000 270.0000 1.0000
54.9200 258.0000 1.0000
54.9400 263.0000 1.0000
54.9600 255.0000 1.0000
54.9800 252.0000 1.0000
55.0000 257.0000 1.0000
55.0200 238.0000 1.0000
55.0400 212.0000 1.0000
55.0600 226.0000 1.0000
55.0800 227.0000 1.0000
55.1000 224.0000 1.0000
55.1200 223.0000 1.0000
55.1400 211.0000 1.0000
55.1600 216.0000 1.0000
55.1800 228.0000 1.0000
55.2000 256.0000 1.0000
55.2200 270.0000 1.0000
55.2400 245.0000 1.0000
55.2600 247.0000 1.0000
55.2800 259.0000 1.0000
55.3000 240.0000 1.0000
55.3200 219.0000 1.0000
55.3400 230.0000 1.0000
55.3600 241.0000 1.0000
55.3800 216.0000 1.0000
55.4000 208.0000 1.0000
55.4200 211.0000 1.0000
55.4400 201.0000 1.0000
55.4600 187.0000 1.0000
55.4800 185.0000 1.0000
55.5000 186.0000 1.0000
55.5200 167.0000 1.0000
55.5400 178.0000 1.0000
55.5600 196.0000 1.0000
55.5800 187.0000 1.0000
55.6000 188.0000 1.0000
55.6200 181.0000 1.0000
55.6400 177.0000 1.0000
55.6600 170.0000 1.0000
55.6800 165.0000 1.0000
55.7000 178.0000 1.0000
55.7200 182.0000 1.0000
55.7400 174.0000 1.0000
55.7600 167.0000 1.0000
55.7800 169.0000 1.0000
55.8000 172.0000 1.0000
55.8200 185.0000 1.0000
55.8400 194.0000 1.0000
55.8600 180.0000 1.0000
55.8800 167.0000 1.0000
55.9000 174.0000 1.0000
55.9200 170.0000 1.0000
55.9400 161.0000 1.0000
55.9600 165.0000 1.0000
55.9800 164.0000 1.0000
56.0000 164.0000 1.0000
56.0200 161.0000 1.0000
56.0400 173.0000 1.0000
56.0600 191.0000 1.0000
56.0800 173.0000 1.0000
56.1000 163.0000 1.0000
56.1200 177.0000 1.0000
56.1400 182.0000 1.0000
56.1600 169.0000 1.0000
56.1800 168.0000 1.0000
56.2000 182.0000 1.0000
56.2200 174.0000 1.0000
56.2400 180.0000 1.0000
56.2600 178.0000 1.0000
56.2800 177.0000 1.0000
56.3000 164.0000 1.0000
56.3200 170.0000 1.0000
56.3400 198.0000 1.0000
56.3600 184.0000 1.0000
56.3800 185.0000 1.0000
56.4000 194.0000 1.0000
56.4200 180.0000 1.0000
56.4400 176.0000 1.0000
56.4600 192.0000 1.0000
56.4800 199.0000 1.0000
56.5000 194.0000 1.0000
56.5200 210.0000 1.0000
56.5400 215.0000 1.0000
56.5600 199.0000 1.0000
56.5800 183.0000 1.0000
56.6000 184.0000 1.0000
56.6200 175.0000 1.0000
56.6400 187.0000 1.0000
56.6600 180.0000 1.0000
56.6800 183.0000 1.0000
56.7000 184.0000 1.0000
56.7200 161.0000 1.0000
56.7400 153.0000 1.0000
56.7600 160.0000 1.0000
56.7800 177.0000 1.0000
56.8000 165.0000 1.0000
56.8200 159.0000 1.0000
56.8400 154.0000 1.0000
56.8600 170.0000 1.0000
56.8800 178.0000 1.0000
56.9000 190.0000 1.0000
56.9200 181.0000 1.0000
56.9400 178.0000 1.0000
56.9600 189.0000 1.0000
56.9800 170.0000 1.0000
57.0000 175.0000 1.0000
57.0200 195.0000 1.0000
57.0400 194.0000 1.0000
57.0600 199.0000 1.0000
57.0800 210.0000 1.0000
57.1000 207.0000 1.0000
57.1200 213.0000 1.0000
57.1400 234.0000 1.0000
57.1600 253.0000 1.0000
57.1800 277.0000 1.0000
57.2000 303.0000 1.0000
57.2200 300.0000 1.0000
57.2400 365.0000 1.0000
57.2600 416.0000 1.0000
57.2800 462.0000 1.0000
57.3000 577.0000 1.0000
57.3200 740.0000 1.0000
57.3400 880.0000 1.0000
57.3600 1060.0000 1.0000
57.3800 1278.0000 1.0000
57.4000 1388.0000 1.0000
57.4200 1380.0000 1.0000
57.4400 1366.0000 1.0000
57.4600 1259.0000 1.0000
57.4800 1115.0000 1.0000
57.5000 973.0000 1.0000
57.5200 905.0000 1.0000
57.5400 906.0000 1.0000
57.5600 871.0000 1.0000
57.5800 787.0000 1.0000
57.6000 725.0000 1.0000
57.6200 656.0000 1.0000
57.6400 545.0000 1.0000
57.6600 450.0000 1.0000
57.6800 371.0000 1.0000
57.7000 315.0000 1.0000
57.7200 274.0000 1.0000
57.7400 236.0000 1.0000
57.7600 216.0000 1.0000
57.7800 215.0000 1.0000
57.8000 215.0000 1.0000
57.8200 187.0000 1.0000
57.8400 188.0000 1.0000
57.8600 202.0000 1.0000
57.8800 190.0000 1.0000
57.9000 190.0000 1.0000
57.9200 167.0000 1.0000
57.9400 152.0000 1.0000
57.9600 157.0000 1.0000
57.9800 158.0000 1.0000
58.0000 165.0000 1.0000
58.0200 181.0000 1.0000
58.0400 162.0000 1.0000
58.0600 158.0000 1.0000
58.0800 142.0000 1.0000
58.1000 141.0000 1.0000
58.1200 155.0000 1.0000
58.1400 141.0000 1.0000
58.1600 143.0000 1.0000
58.1800 150.0000 1.0000
58.2000 162.0000 1.0000
58.2200 167.0000 1.0000
58.2400 151.0000 1.0000
58.2600 147.0000 1.0000
58.2800 148.0000 1.0000
58.3000 143.0000 1.0000
58.3200 139.0000 1.0000
58.3400 122.0000 1.0000
58.3600 132.0000 1.0000
58.3800 130.0000 1.0000
58.4000 128.0000 1.0000
58.4200 144.0000 1.0000
58.4400 133.0000 1.0000
58.4600 131.0000 1.0000
58.4800 150.0000 1.0000
58.5000 143.0000 1.0000
58.5200 144.0000 1.0000
58.5400 139.0000 1.0000
58.5600 134.0000 1.0000
58.5800 148.0000 1.0000
58.6000 144.0000 1.0000
58.6200 157.0000 1.0000
58.6400 176.0000 1.0000
58.6600 169.0000 1.0000
58.6800 147.0000 1.0000
58.7000 165.0000 1.0000
58.7200 139.0000 1.0000
58.7400 149.0000 1.0000
58.7600 143.0000 1.0000
58.7800 159.0000 1.0000
58.8000 160.0000 1.0000
58.8200 167.0000 1.0000
58.8400 161.0000 1.0000
58.8600 151.0000 1.0000
58.8800 142.0000 1.0000
58.9000 136.0000 1.0000
58.9200 131.0000 1.0000
58.9400 140.0000 1.0000
58.9600 133.0000 1.0000
58.9800 170.0000 1.0000
59.0000 158.0000 1.0000
59.0200 157.0000 1.0000
59.0400 166.0000 1.0000
59.0600 146.0000 1.0000
59.0800 140.0000 1.0000
59.1000 165.0000 1.0000
59.1200 151.0000 1.0000
59.1400 145.0000 1.0000
59.1600 154.0000 1.0000
59.1800 168.0000 1.0000
59.2000 157.0000 1.0000
59.2200 149.0000 1.0000
59.2400 145.0000 1.0000
59.2600 139.0000 1.0000
59.2800 155.0000 1.0000
59.3000 159.0000 1.0000
59.3200 140.0000 1.0000
59.3400 146.0000 1.0000
59.3600 157.0000 1.0000
59.3800 152.0000 1.0000
59.4000 163.0000 1.0000
59.4200 176.0000 1.0000
59.4400 177.0000 1.0000
59.4600 171.0000 1.0000
59.4800 145.0000 1.0000
59.5000 182.0000 1.0000
59.5200 182.0000 1.0000
59.5400 195.0000 1.0000
59.5600 186.0000 1.0000
59.5800 192.0000 1.0000
59.6000 222.0000 1.0000
59.6200 208.0000 1.0000
59.6400 227.0000 1.0000
59.6600 234.0000 1.0000
59.6800 276.0000 1.0000
59.7000 257.0000 1.0000
59.7200 290.0000 1.0000
59.7400 290.0000 1.0000
59.7600 333.0000 1.0000
59.7800 397.0000 1.0000
59.8000 477.0000 1.0000
59.8200 520.0000 1.0000
59.8400 545.0000 1.0000
59.8600 598.0000 1.0000
59.8800 616.0000 1.0000
59.9000 590.0000 1.0000
59.9200 556.0000 1.0000
59.9400 485.0000 1.0000
59.9600 453.0000 1.0000
59.9800 441.0000 1.0000
60.0000 426.0000 1.0000
60.0200 414.0000 1.0000
60.0400 436.0000 1.0000
60.0600 417.0000 1.0000
60.0800 361.0000 1.0000
60.1000 322.0000 1.0000
60.1200 310.0000 1.0000
60.1400 264.0000 1.0000
60.1600 234.0000 1.0000
60.1800 227.0000 1.0000
60.2000 211.0000 1.0000
60.2200 213.0000 1.0000
60.2400 216.0000 1.0000
60.2600 226.0000 1.0000
60.2800 199.0000 1.0000
60.3000 176.0000 1.0000
60.3200 215.0000 1.0000
60.3400 183.0000 1.0000
60.3600 183.0000 1.0000
60.3800 177.0000 1.0000
60.4000 189.0000 1.0000
60.4200 184.0000 1.0000
60.4400 207.0000 1.0000
60.4600 172.0000 1.0000
60.4800 183.0000 1.0000
60.5000 197.0000 1.0000
60.5200 205.0000 1.0000
60.5400 194.0000 1.0000
60.5600 184.0000 1.0000
60.5800 182.0000 1.0000
60.6000 174.0000 1.0000
60.6200 204.0000 1.0000
60.6400 217.0000 1.0000
60.6600 187.0000 1.0000
60.6800 194.0000 1.0000
60.7000 195.0000 1.0000
60.7200 173.0000 1.0000
60.7400 179.0000 1.0000
60.7600 197.0000 1.0000
60.7800 210.0000 1.0000
60.8000 177.0000 1.0000
60.8200 177.0000 1.0000
60.8400 191.0000 1.0000
60.8600 193.0000 1.0000
60.8800 163.0000 1.0000
60.9000 192.0000 1.0000
60.9200 218.0000 1.0000
60.9400 204.0000 1.0000
60.9600 231.0000 1.0000
60.9800 223.0000 1.0000
61.0000 236.0000 1.0000
61.0200 239.0000 1.0000
61.0400 239.0000 1.0000
61.0600 219.0000 1.0000
61.0800 250.0000 1.0000
61.1000 247.0000 1.0000
61.1200 227.0000 1.0000
61.1400 269.0000 1.0000
61.1600 307.0000 1.0000
61.1800 303.0000 1.0000
61.2000 307.0000 1.0000
61.2200 292.0000 1.0000
61.2400 325.0000 1.0000
61.2600 304.0000 1.0000
61.2800 306.0000 1.0000
61.3000 292.0000 1.0000
61.3200 295.0000 1.0000
61.3400 309.0000 1.0000
61.3600 304.0000 1.0000
61.3800 309.0000 1.0000
61.4000 334.0000 1.0000
61.4200 285.0000 1.0000
61.4400 273.0000 1.0000
61.4600 246.0000 1.0000
61.4800 284.0000 1.0000
61.5000 274.0000 1.0000
61.5200 279.0000 1.0000
61.5400 261.0000 1.0000
61.5600 282.0000 1.0000
61.5800 251.0000 1.0000
61.6000 274.0000 1.0000
61.6200 300.0000 1.0000
61.6400 273.0000 1.0000
61.6600 310.0000 1.0000
61.6800 286.0000 1.0000
61.7000 291.0000 1.0000
61.7200 265.0000 1.0000
61.7400 276.0000 1.0000
61.7600 282.0000 1.0000
61.7800 293.0000 1.0000
61.8000 250.0000 1.0000
61.8200 255.0000 1.0000
61.8400 254.0000 1.0000
61.8600 238.0000 1.0000
61.8800 267.0000 1.0000
61.9000 249.0000 1.0000
61.9200 264.0000 1.0000
61.9400 246.0000 1.0000
61.9600 223.0000 1.0000
61.9800 237.0000 1.0000
62.0000 239.0000 1.0000
62.0200 230.0000 1.0000
62.0400 231.0000 1.0000
62.0600 199.0000 1.0000
62.0800 228.0000 1.0000
62.1000 214.0000 1.0000
62.1200 209.0000 1.0000
62.1400 209.0000 1.0000
62.1600 193.0000 1.0000
62.1800 201.0000 1.0000
62.2000 191.0000 1.0000
62.2200 208.0000 1.0000
62.2400 205.0000 1.0000
62.2600 199.0000 1.0000
62.2800 214.0000 1.0000
62.3000 189.0000 1.0000
62.3200 201.0000 1.0000
62.3400 183.0000 1.0000
62.3600 184.0000 1.0000
62.3800 195.0000 1.0000
62.4000 192.0000 1.0000
62.4200 190.0000 1.0000
62.4400 197.0000 1.0000
62.4600 182.0000 1.0000
62.4800 163.0000 1.0000
62.5000 164.0000 1.0000
62.5200 155.0000 1.0000
62.5400 172.0000 1.0000
62.5600 162.0000 1.0000
62.5800 151.0000 1.0000
62.6000 186.0000 1.0000
62.6200 153.0000 1.0000
62.6400 149.0000 1.0000
62.6600 174.0000 1.0000
62.6800 145.0000 1.0000
62.7000 156.0000 1.0000
62.7200 154.0000 1.0000
62.7400 149.0000 1.0000
62.7600 151.0000 1.0000
62.7800 154.0000 1.0000
62.8000 156.0000 1.0000
62.8200 136.0000 1.0000
62.8400 157.0000 1.0000
62.8600 142.0000 1.0000
62.8800 158.0000 1.0000
62.9000 140.0000 1.0000
62.9200 137.0000 1.0000
62.9400 134.0000 1.0000
62.9600 143.0000 1.0000
62.9800 141.0000 1.0000
63.0000 129.0000 1.0000
63.0200 135.0000 1.0000
63.0400 144.0000 1.0000
63.0600 127.0000 1.0000
63.0800 139.0000 1.0000
63.1000 143.0000 1.0000
63.1200 157.0000 1.0000
63.1400 150.0000 1.0000
63.1600 131.0000 1.0000
63.1800 128.0000 1.0000
63.2000 134.0000 1.0000
63.2200 150.0000 1.0000
63.2400 145.0000 1.0000
63.2600 141.0000 1.0000
63.2800 140.0000 1.0000
63.3000 129.0000 1.0000
63.3200 135.0000 1.0000
63.3400 150.0000 1.0000
63.3600 152.0000 1.0000
63.3800 153.0000 1.0000
63.4000 145.0000 1.0000
63.4200 129.0000 1.0000
63.4400 143.0000 1.0000
63.4600 151.0000 1.0000
63.4800 156.0000 1.0000
63.5000 150.0000 1.0000
63.5200 142.0000 1.0000
63.5400 155.0000 1.0000
63.5600 160.0000 1.0000
63.5800 158.0000 1.0000
63.6000 160.0000 1.0000
63.6200 172.0000 1.0000
63.6400 155.0000 1.0000
63.6600 152.0000 1.0000
63.6800 163.0000 1.0000
63.7000 167.0000 1.0000
63.7200 170.0000 1.0000
63.7400 165.0000 1.0000
63.7600 185.0000 1.0000
63.7800 163.0000 1.0000
63.8000 173.0000 1.0000
63.8200 176.0000 1.0000
63.8400 197.0000 1.0000
63.8600 221.0000 1.0000
63.8800 215.0000 1.0000
63.9000 234.0000 1.0000
63.9200 232.0000 1.0000
63.9400 240.0000 1.0000
63.9600 218.0000 1.0000
63.9800 230.0000 1.0000
64.0000 222.0000 1.0000
64.0200 230.0000 1.0000
64.0400 190.0000 1.0000
64.0600 166.0000 1.0000
64.0800 197.0000 1.0000
64.1000 183.0000 1.0000
64.1200 176.0000 1.0000
64.1400 175.0000 1.0000
64.1600 159.0000 1.0000
64.1800 177.0000 1.0000
64.2000 157.0000 1.0000
64.2200 160.0000 1.0000
64.2400 147.0000 1.0000
64.2600 144.0000 1.0000
64.2800 150.0000 1.0000
64.3000 143.0000 1.0000
64.3200 138.0000 1.0000
64.3400 154.0000 1.0000
64.3600 134.0000 1.0000
64.3800 133.0000 1.0000
64.4000 133.0000 1.0000
64.4200 131.0000 1.0000
64.4400 147.0000 1.0000
64.4600 139.0000 1.0000
64.4800 138.0000 1.0000
64.5000 140.0000 1.0000
64.5200 154.0000 1.0000
64.5400 148.0000 1.0000
64.5600 156.0000 1.0000
64.5800 155.0000 1.0000
64.6000 162.0000 1.0000
64.6200 156.0000 1.0000
64.6400 143.0000 1.0000
64.6600 126.0000 1.0000
64.6800 141.0000 1.0000
64.7000 144.0000 1.0000
64.7200 147.0000 1.0000
64.7400 138.0000 1.0000
64.7600 148.0000 1.0000
64.7800 145.0000 1.0000
64.8000 146.0000 1.0000
64.8200 158.0000 1.0000
64.8400 151.0000 1.0000
64.8600 146.0000 1.0000
64.8800 144.0000 1.0000
64.9000 144.0000 1.0000
64.9200 147.0000 1.0000
64.9400 147.0000 1.0000
64.9600 146.0000 1.0000
64.9800 146.0000 1.0000
65.0000 146.0000 1.0000
*RAS_INT_END
*RAS_DATA_END
