*RAS_DATA_START
*RAS_HEADER_START
*CORR_POS_DB_NAME "Angle Correction ASC6 SC WITH Mono_04082019"
*CORR_POS_GONIO_RADIUS ""
*CORR_POS_NODE_INDEX01 ""
*CORR_POS_NODE_INDEX02 ""
*CORR_POS_NODE_INDEX03 ""
*CORR_POS_NODE_INDEX04 ""
*CORR_POS_NODE_INDEX05 ""
*CORR_POS_NODE_INDEX06 ""
*CORR_POS_NODE_INDEX07 ""
*CORR_POS_NODE_INDEX08 ""
*CORR_POS_NODE_INDEX09 ""
*CORR_POS_NODE_INDEX10 ""
*CORR_POS_NODE_INDEX11 ""
*CORR_POS_NODE_LABEL01 "Si(111)"
*CORR_POS_NODE_LABEL02 "Si(220)"
*CORR_POS_NODE_LABEL03 "Si(311)"
*CORR_POS_NODE_LABEL04 "Si(400)"
*CORR_POS_NODE_LABEL05 "Si(331)"
*CORR_POS_NODE_LABEL06 "Si(422)"
*CORR_POS_NODE_LABEL07 "Si(511)"
*CORR_POS_NODE_LABEL08 "Si(440)"
*CORR_POS_NODE_LABEL09 "Si(531)"
*CORR_POS_NODE_LABEL10 "Si(620)"
*CORR_POS_NODE_LABEL11 "Si(533)"
*CORR_POS_NODE_POS_CALC01 "28.377"
*CORR_POS_NODE_POS_CALC02 "47.2506"
*CORR_POS_NODE_POS_CALC03 "56.0725"
*CORR_POS_NODE_POS_CALC04 "69.0822"
*CORR_POS_NODE_POS_CALC05 "76.3294"
*CORR_POS_NODE_POS_CALC06 "87.9853"
*CORR_POS_NODE_POS_CALC07 "94.9091"
*CORR_POS_NODE_POS_CALC08 "106.668"
*CORR_POS_NODE_POS_CALC09 "114.054"
*CORR_POS_NODE_POS_CALC10 "127.511"
*CORR_POS_NODE_POS_CALC11 "136.864"
*CORR_POS_NODE_POS_MEAS01 "28.5058"
*CORR_POS_NODE_POS_MEAS02 "47.345"
*CORR_POS_NODE_POS_MEAS03 "56.1421"
*CORR_POS_NODE_POS_MEAS04 "69.1304"
*CORR_POS_NODE_POS_MEAS05 "76.366"
*CORR_POS_NODE_POS_MEAS06 "88.0213"
*CORR_POS_NODE_POS_MEAS07 "94.9406"
*CORR_POS_NODE_POS_MEAS08 "106.689"
*CORR_POS_NODE_POS_MEAS09 "114.065"
*CORR_POS_NODE_POS_MEAS10 "127.518"
*CORR_POS_NODE_POS_MEAS11 "136.869"
*CORR_POS_OPT_ATTR "集中法"
*CORR_POS_PARAM_MU ""
*CORR_POS_PARAM_PL ""
*CORR_POS_SEMODEL_TYPE "0"
*CORR_POS_STANDARD_TYPE ""
*CORR_POS_VALUE_ANALYZER "None"
*CORR_POS_VALUE_CMONO "None"
*CORR_POS_VALUE_IMONO "None"
*CORR_POS_VALUE_IS "1.250deg"
*CORR_POS_VALUE_ISL "10.0mm"
*CORR_POS_VALUE_ISOLLER "5.0deg"
*CORR_POS_VALUE_RS1 "1.250deg"
*CORR_POS_VALUE_RS2 "0.3mm"
*CORR_POS_VALUE_RSOLLER "5.0deg"
*CORR_POS_XG_FOCUS_L ""
*CORR_POS_XG_WAVE_TYPE ""
*CORR_POS_XG_WAVE_VALUE ""
*DISP_FMT_X "%.2f"
*DISP_FMT_Y "%.0f"
*DISP_FULLSCALE "4190.4000000000"
*DISP_LINE_COLOR "255.0000000000"
*DISP_LINE_STYLE "0.0000000000"
*DISP_LINE_WIDTH "0.2500000000"
*DISP_NOTE "Collected Data-12"
*DISP_OFFSET_Y "0.0000000000"
*DISP_PEAKSEARCH_UNIT_Y "CPS"
*DISP_RANGE_BOTTOM "0.0000000000"
*DISP_RANGE_LEFT "5.0000000000"
*DISP_RANGE_LOGCUTOFF "0.0100000000"
*DISP_RANGE_RIGHT "65.0000000000"
*DISP_RANGE_TOP "4190.4000000000"
*DISP_SCALE_MODE_Y "0.0000000000"
*DISP_TAB_NAME "Theta/2-Theta"
*DISP_TITLE_Y "Intensity"
*DISP_UNIT_Y "CPS"
*DISP_WINDOW_NAME "MSG_MACROENGINE"
*FILE_COMMENT " "
*FILE_MD5 ""
*FILE_MEMO " "
*FILE_OPERATOR "Administrator"
*FILE_PART_ID "MEAS_PBEA_00223"
*FILE_SAMPLE " "
*FILE_TYPE "RAS_RAW"
*FILE_USERGROUP "System Manager"
*FILE_VERSION "1.0000000000"
*HW_ATTACHMENT_ID "ATT1031"
*HW_ATTACHMENT_NAME "6サンプルチェンジャ|ASC-6"
*HW_COUNTER_ID-0 "CUT0021"
*HW_COUNTER_ID-1 "CUT0020"
*HW_COUNTER_ID-2 "CUT0020"
*HW_COUNTER_ID-3 "CMC0021"
*HW_COUNTER_NAME-0 "SC-70|SC-70"
*HW_COUNTER_NAME-1 "None|None"
*HW_COUNTER_NAME-2 "None|None"
*HW_COUNTER_NAME-3 "検出器モノクロメータ|Detector monochromator"
*HW_COUNTER_SELECT_NAME "SC-70|SC-70"
*HW_ECP_HV "671.5000000000"
*HW_ECP_HV_UNIT "V"
*HW_GONIOMETER_ID "GON0070"
*HW_GONIOMETER_NAME "MiniFlex 300/600|MiniFlex 300/600"
*HW_GONIOMETER_RADIUS-0 "79.0"
*HW_GONIOMETER_RADIUS-1 "91.5"
*HW_GONIOMETER_RADIUS-2 "150.0"
*HW_GONIOMETER_RADIUS-3 "0"
*HW_GONIOMETER_RADIUS-4 "103.4"
*HW_GONIOMETER_RADIUS-5 "150.0"
*HW_GONIOMETER_RADIUS-6 "46.6"
*HW_GONIOMETER_RADIUS-7 "160.0"
*HW_I_OPT_ID-0 "ISL0021"
*HW_I_OPT_ID-1 "ISO0021"
*HW_I_OPT_NAME-0 "発散スリット|Divergence slit"
*HW_I_OPT_NAME-1 "入射平行スリット|Incident parallel slit"
*HW_R_ATTENUATER_AUTOMODE "0"
*HW_R_OPT_ID-0 "RSS0021"
*HW_R_OPT_ID-1 "RSO0021"
*HW_R_OPT_ID-2 "RRS0021"
*HW_R_OPT_NAME-0 "散乱スリット|Scattering slit"
*HW_R_OPT_NAME-1 "受光平行スリット|Receiving soller slit"
*HW_R_OPT_NAME-2 "受光スリット|Receiving slit"
*HW_SAMPLE_HOLDER_ID "SMP0000"
*HW_SAMPLE_HOLDER_NAME "無し|None"
*HW_XG_CURRENT_MAX "15"
*HW_XG_CURRENT_MIN "2"
*HW_XG_CURRENT_RESOLUTION "1"
*HW_XG_CURRENT_UNIT "mA"
*HW_XG_FOCUS "1mm x 10mm"
*HW_XG_FOCUS_TYPE "Normal"
*HW_XG_ID "1060"
*HW_XG_NAME "300W/600W 封入管-B|300W/600W Sealed tube-B"
*HW_XG_TARGET_ATOMIC_NUMBER "29.0000000000"
*HW_XG_TARGET_NAME "Cu"
*HW_XG_TYPE "Hermetic"
*HW_XG_VOLTAGE_MAX "40"
*HW_XG_VOLTAGE_MIN "20"
*HW_XG_VOLTAGE_RESOLUTION "1"
*HW_XG_VOLTAGE_UNIT "kV"
*HW_XG_WATT_MAX "0.600"
*HW_XG_WATT_UNIT "kW"
*HW_XG_WAVE_LENGTH_ALPHA1 "1.540593"
*HW_XG_WAVE_LENGTH_ALPHA2 "1.544414"
*HW_XG_WAVE_LENGTH_BETA "1.392250"
*MEAS_COND_AXIS_NAME-0 "Theta/2-Theta"
*MEAS_COND_AXIS_NAME-1 "Spin"
*MEAS_COND_AXIS_NAME-2 "Change"
*MEAS_COND_AXIS_NAME-3 "Soller(inc.)"
*MEAS_COND_AXIS_NAME-4 "IHS"
*MEAS_COND_AXIS_NAME-5 "DS"
*MEAS_COND_AXIS_NAME-6 "SS"
*MEAS_COND_AXIS_NAME-7 "Soller(rec.)"
*MEAS_COND_AXIS_NAME-8 "RS"
*MEAS_COND_AXIS_NAME-9 "Filter"
*MEAS_COND_AXIS_NAME-10 "Monochromator"
*MEAS_COND_AXIS_NAME-11 "HV"
*MEAS_COND_AXIS_NAME-12 "PHA"
*MEAS_COND_AXIS_NAME_INTERNAL-0 "TwoThetaTheta"
*MEAS_COND_AXIS_NAME_INTERNAL-1 "Spin"
*MEAS_COND_AXIS_NAME_INTERNAL-2 "Change"
*MEAS_COND_AXIS_NAME_INTERNAL-3 "IncidentSollerSlit"
*MEAS_COND_AXIS_NAME_INTERNAL-4 "IncidentAxdSlit"
*MEAS_COND_AXIS_NAME_INTERNAL-5 "IncidentSlitBox"
*MEAS_COND_AXIS_NAME_INTERNAL-6 "ReceivingSlitBox1"
*MEAS_COND_AXIS_NAME_INTERNAL-7 "ReceivingSollerSlit"
*MEAS_COND_AXIS_NAME_INTERNAL-8 "ReceivingSlitBox2"
*MEAS_COND_AXIS_NAME_INTERNAL-9 "Filter"
*MEAS_COND_AXIS_NAME_INTERNAL-10 "CounterMonochromator"
*MEAS_COND_AXIS_NAME_INTERNAL-11 "HV"
*MEAS_COND_AXIS_NAME_INTERNAL-12 "PHA"
*MEAS_COND_AXIS_NAME_MAGICNO-0 "268632064.0000000000"
*MEAS_COND_AXIS_NAME_MAGICNO-1 "16842752.0000000000"
*MEAS_COND_AXIS_NAME_MAGICNO-2 "16842752.0000000000"
*MEAS_COND_AXIS_NAME_MAGICNO-3 "20971521.0000000000"
*MEAS_COND_AXIS_NAME_MAGICNO-4 "22020097.0000000000"
*MEAS_COND_AXIS_NAME_MAGICNO-5 "22020097.0000000000"
*MEAS_COND_AXIS_NAME_MAGICNO-6 "23068673.0000000000"
*MEAS_COND_AXIS_NAME_MAGICNO-7 "20971521.0000000000"
*MEAS_COND_AXIS_NAME_MAGICNO-8 "23068673.0000000000"
*MEAS_COND_AXIS_NAME_MAGICNO-9 "20971521.0000000000"
*MEAS_COND_AXIS_NAME_MAGICNO-10 "20971521.0000000000"
*MEAS_COND_AXIS_NAME_MAGICNO-11 "0.0000000000"
*MEAS_COND_AXIS_NAME_MAGICNO-12 "0.0000000000"
*MEAS_COND_AXIS_OFFSET-0 "0.0000000000"
*MEAS_COND_AXIS_OFFSET-1 "-"
*MEAS_COND_AXIS_OFFSET-2 "-"
*MEAS_COND_AXIS_OFFSET-3 "-"
*MEAS_COND_AXIS_OFFSET-4 "-"
*MEAS_COND_AXIS_OFFSET-5 "-"
*MEAS_COND_AXIS_OFFSET-6 "-"
*MEAS_COND_AXIS_OFFSET-7 "-"
*MEAS_COND_AXIS_OFFSET-8 "-"
*MEAS_COND_AXIS_OFFSET-9 "-"
*MEAS_COND_AXIS_OFFSET-10 "-"
*MEAS_COND_AXIS_OFFSET-11 "-"
*MEAS_COND_AXIS_OFFSET-12 "-"
*MEAS_COND_AXIS_POSITION-0 "65.0000000000"
*MEAS_COND_AXIS_POSITION-1 "0.0000000000"
*MEAS_COND_AXIS_POSITION-2 "1.0000000000"
*MEAS_COND_AXIS_POSITION-3 "5.0deg"
*MEAS_COND_AXIS_POSITION-4 "10.0mm"
*MEAS_COND_AXIS_POSITION-5 "1.250deg"
*MEAS_COND_AXIS_POSITION-6 "1.250deg"
*MEAS_COND_AXIS_POSITION-7 "5.0deg"
*MEAS_COND_AXIS_POSITION-8 "0.3mm"
*MEAS_COND_AXIS_POSITION-9 "None"
*MEAS_COND_AXIS_POSITION-10 "Bent"
*MEAS_COND_AXIS_POSITION-11 "671.5000000000"
*MEAS_COND_AXIS_POSITION-12 "551.2500000000"
*MEAS_COND_AXIS_UNIT-0 "deg"
*MEAS_COND_AXIS_UNIT-1 ""
*MEAS_COND_AXIS_UNIT-2 ""
*MEAS_COND_AXIS_UNIT-3 ""
*MEAS_COND_AXIS_UNIT-4 ""
*MEAS_COND_AXIS_UNIT-5 ""
*MEAS_COND_AXIS_UNIT-6 ""
*MEAS_COND_AXIS_UNIT-7 ""
*MEAS_COND_AXIS_UNIT-8 ""
*MEAS_COND_AXIS_UNIT-9 ""
*MEAS_COND_AXIS_UNIT-10 ""
*MEAS_COND_AXIS_UNIT-11 "V"
*MEAS_COND_AXIS_UNIT-12 "mV"
*MEAS_COND_CORRECTION_SLIT_COUNTERMONO "None"
*MEAS_COND_CORRECTION_SLIT_DS "1.250deg"
*MEAS_COND_CORRECTION_SLIT_FILTER "None"
*MEAS_COND_CORRECTION_SLIT_IHS "10.0mm"
*MEAS_COND_CORRECTION_SLIT_RS "0.3mm"
*MEAS_COND_CORRECTION_SLIT_SOLLER_INC "5.0deg"
*MEAS_COND_CORRECTION_SLIT_SOLLER_REC "5.0deg"
*MEAS_COND_CORRECTION_SLIT_SS "1.250deg"
*MEAS_COND_COUNTER_CNTLOSS_CORR "0.0000000000"
*MEAS_COND_COUNTER_PHABASE "551.2500000000"
*MEAS_COND_COUNTER_PHAWINDOW "926.2500000000"
*MEAS_COND_COUNTER_PHA_UNIT "mV"
*MEAS_COND_COUNTER_TAUDIFF "0.2500000000"
*MEAS_COND_COUNTER_TAUINT "0.7500000000"
*MEAS_COND_IRRADIATION_MODE "OFF"
*MEAS_COND_IRRADIATION_WIDTH ""
*MEAS_COND_OPT_ATTR " "
*MEAS_COND_OPT_NAME ""
*MEAS_COND_UNSYMMETRIC_MODE "OFF"
*MEAS_COND_XG_CURRENT "15.0000000000"
*MEAS_COND_XG_VOLTAGE "40.0000000000"
*MEAS_COND_XG_WAVE_TYPE "Ka"
*MEAS_DATA_COUNT "3001.0000000000"
*MEAS_SCAN_AXIS_X "Theta/2-Theta"
*MEAS_SCAN_AXIS_X_INTERNAL "TwoThetaTheta"
*MEAS_SCAN_END_TIME "07/17/25 05:30:08"
*MEAS_SCAN_MODE "STEP"
*MEAS_SCAN_MONITOR "0"
*MEAS_SCAN_RESOLUTION_X "0.0025"
*MEAS_SCAN_SPEED "2.00"
*MEAS_SCAN_SPEED_UNIT "sec."
*MEAS_SCAN_SPEED_USER "2.00"
*MEAS_SCAN_START "5.0000000000"
*MEAS_SCAN_START_TIME "07/17/25 03:44:52"
*MEAS_SCAN_STEP "0.0200000000"
*MEAS_SCAN_STOP "65.0000000000"
*MEAS_SCAN_UNIT_X "deg"
*MEAS_SCAN_UNIT_Y "counts"
*SLIT_SYSTEM "0"
*RAS_HEADER_END
*RAS_INT_START
5.0000 1311.0000 1.0000
5.0200 1324.0000 1.0000
5.0400 1334.0000 1.0000
5.0600 1384.0000 1.0000
5.0800 1287.0000 1.0000
5.1000 1241.0000 1.0000
5.1200 1225.0000 1.0000
5.1400 1246.0000 1.0000
5.1600 1299.0000 1.0000
5.1800 1265.0000 1.0000
5.2000 1282.0000 1.0000
5.2200 1138.0000 1.0000
5.2400 1197.0000 1.0000
5.2600 1267.0000 1.0000
5.2800 1298.0000 1.0000
5.3000 1290.0000 1.0000
5.3200 1271.0000 1.0000
5.3400 1126.0000 1.0000
5.3600 1097.0000 1.0000
5.3800 1194.0000 1.0000
5.4000 1183.0000 1.0000
5.4200 1199.0000 1.0000
5.4400 1153.0000 1.0000
5.4600 1149.0000 1.0000
5.4800 1152.0000 1.0000
5.5000 1253.0000 1.0000
5.5200 1198.0000 1.0000
5.5400 1217.0000 1.0000
5.5600 1098.0000 1.0000
5.5800 1078.0000 1.0000
5.6000 1107.0000 1.0000
5.6200 1107.0000 1.0000
5.6400 1142.0000 1.0000
5.6600 1161.0000 1.0000
5.6800 1078.0000 1.0000
5.7000 1042.0000 1.0000
5.7200 1087.0000 1.0000
5.7400 1087.0000 1.0000
5.7600 1135.0000 1.0000
5.7800 1115.0000 1.0000
5.8000 1127.0000 1.0000
5.8200 1117.0000 1.0000
5.8400 1142.0000 1.0000
5.8600 1205.0000 1.0000
5.8800 1156.0000 1.0000
5.9000 1127.0000 1.0000
5.9200 1041.0000 1.0000
5.9400 1063.0000 1.0000
5.9600 1122.0000 1.0000
5.9800 1109.0000 1.0000
6.0000 1124.0000 1.0000
6.0200 1135.0000 1.0000
6.0400 1144.0000 1.0000
6.0600 1088.0000 1.0000
6.0800 1140.0000 1.0000
6.1000 1142.0000 1.0000
6.1200 1187.0000 1.0000
6.1400 1119.0000 1.0000
6.1600 1064.0000 1.0000
6.1800 1052.0000 1.0000
6.2000 1066.0000 1.0000
6.2200 1018.0000 1.0000
6.2400 964.0000 1.0000
6.2600 958.0000 1.0000
6.2800 981.0000 1.0000
6.3000 981.0000 1.0000
6.3200 895.0000 1.0000
6.3400 907.0000 1.0000
6.3600 922.0000 1.0000
6.3800 902.0000 1.0000
6.4000 919.0000 1.0000
6.4200 876.0000 1.0000
6.4400 841.0000 1.0000
6.4600 856.0000 1.0000
6.4800 893.0000 1.0000
6.5000 888.0000 1.0000
6.5200 842.0000 1.0000
6.5400 871.0000 1.0000
6.5600 894.0000 1.0000
6.5800 925.0000 1.0000
6.6000 877.0000 1.0000
6.6200 835.0000 1.0000
6.6400 810.0000 1.0000
6.6600 799.0000 1.0000
6.6800 833.0000 1.0000
6.7000 839.0000 1.0000
6.7200 795.0000 1.0000
6.7400 745.0000 1.0000
6.7600 699.0000 1.0000
6.7800 719.0000 1.0000
6.8000 788.0000 1.0000
6.8200 874.0000 1.0000
6.8400 797.0000 1.0000
6.8600 741.0000 1.0000
6.8800 814.0000 1.0000
6.9000 782.0000 1.0000
6.9200 723.0000 1.0000
6.9400 729.0000 1.0000
6.9600 733.0000 1.0000
6.9800 757.0000 1.0000
7.0000 760.0000 1.0000
7.0200 780.0000 1.0000
7.0400 759.0000 1.0000
7.0600 714.0000 1.0000
7.0800 728.0000 1.0000
7.1000 755.0000 1.0000
7.1200 784.0000 1.0000
7.1400 761.0000 1.0000
7.1600 736.0000 1.0000
7.1800 734.0000 1.0000
7.2000 706.0000 1.0000
7.2200 755.0000 1.0000
7.2400 769.0000 1.0000
7.2600 749.0000 1.0000
7.2800 757.0000 1.0000
7.3000 678.0000 1.0000
7.3200 656.0000 1.0000
7.3400 713.0000 1.0000
7.3600 695.0000 1.0000
7.3800 673.0000 1.0000
7.4000 724.0000 1.0000
7.4200 715.0000 1.0000
7.4400 683.0000 1.0000
7.4600 686.0000 1.0000
7.4800 722.0000 1.0000
7.5000 707.0000 1.0000
7.5200 673.0000 1.0000
7.5400 637.0000 1.0000
7.5600 615.0000 1.0000
7.5800 641.0000 1.0000
7.6000 681.0000 1.0000
7.6200 711.0000 1.0000
7.6400 680.0000 1.0000
7.6600 634.0000 1.0000
7.6800 623.0000 1.0000
7.7000 619.0000 1.0000
7.7200 656.0000 1.0000
7.7400 681.0000 1.0000
7.7600 662.0000 1.0000
7.7800 675.0000 1.0000
7.8000 690.0000 1.0000
7.8200 669.0000 1.0000
7.8400 600.0000 1.0000
7.8600 637.0000 1.0000
7.8800 680.0000 1.0000
7.9000 717.0000 1.0000
7.9200 741.0000 1.0000
7.9400 736.0000 1.0000
7.9600 725.0000 1.0000
7.9800 707.0000 1.0000
8.0000 663.0000 1.0000
8.0200 648.0000 1.0000
8.0400 665.0000 1.0000
8.0600 714.0000 1.0000
8.0800 677.0000 1.0000
8.1000 667.0000 1.0000
8.1200 663.0000 1.0000
8.1400 650.0000 1.0000
8.1600 664.0000 1.0000
8.1800 678.0000 1.0000
8.2000 684.0000 1.0000
8.2200 673.0000 1.0000
8.2400 714.0000 1.0000
8.2600 706.0000 1.0000
8.2800 684.0000 1.0000
8.3000 698.0000 1.0000
8.3200 696.0000 1.0000
8.3400 686.0000 1.0000
8.3600 708.0000 1.0000
8.3800 736.0000 1.0000
8.4000 763.0000 1.0000
8.4200 719.0000 1.0000
8.4400 753.0000 1.0000
8.4600 799.0000 1.0000
8.4800 782.0000 1.0000
8.5000 807.0000 1.0000
8.5200 794.0000 1.0000
8.5400 799.0000 1.0000
8.5600 871.0000 1.0000
8.5800 880.0000 1.0000
8.6000 882.0000 1.0000
8.6200 1019.0000 1.0000
8.6400 975.0000 1.0000
8.6600 1014.0000 1.0000
8.6800 1057.0000 1.0000
8.7000 1097.0000 1.0000
8.7200 1086.0000 1.0000
8.7400 1078.0000 1.0000
8.7600 1032.0000 1.0000
8.7800 941.0000 1.0000
8.8000 792.0000 1.0000
8.8200 697.0000 1.0000
8.8400 653.0000 1.0000
8.8600 588.0000 1.0000
8.8800 526.0000 1.0000
8.9000 527.0000 1.0000
8.9200 515.0000 1.0000
8.9400 516.0000 1.0000
8.9600 511.0000 1.0000
8.9800 506.0000 1.0000
9.0000 502.0000 1.0000
9.0200 485.0000 1.0000
9.0400 486.0000 1.0000
9.0600 514.0000 1.0000
9.0800 510.0000 1.0000
9.1000 491.0000 1.0000
9.1200 533.0000 1.0000
9.1400 538.0000 1.0000
9.1600 557.0000 1.0000
9.1800 603.0000 1.0000
9.2000 607.0000 1.0000
9.2200 568.0000 1.0000
9.2400 572.0000 1.0000
9.2600 519.0000 1.0000
9.2800 516.0000 1.0000
9.3000 440.0000 1.0000
9.3200 419.0000 1.0000
9.3400 384.0000 1.0000
9.3600 381.0000 1.0000
9.3800 359.0000 1.0000
9.4000 364.0000 1.0000
9.4200 381.0000 1.0000
9.4400 329.0000 1.0000
9.4600 342.0000 1.0000
9.4800 363.0000 1.0000
9.5000 342.0000 1.0000
9.5200 361.0000 1.0000
9.5400 407.0000 1.0000
9.5600 332.0000 1.0000
9.5800 337.0000 1.0000
9.6000 327.0000 1.0000
9.6200 340.0000 1.0000
9.6400 333.0000 1.0000
9.6600 290.0000 1.0000
9.6800 309.0000 1.0000
9.7000 310.0000 1.0000
9.7200 298.0000 1.0000
9.7400 303.0000 1.0000
9.7600 283.0000 1.0000
9.7800 308.0000 1.0000
9.8000 326.0000 1.0000
9.8200 295.0000 1.0000
9.8400 296.0000 1.0000
9.8600 288.0000 1.0000
9.8800 291.0000 1.0000
9.9000 253.0000 1.0000
9.9200 279.0000 1.0000
9.9400 297.0000 1.0000
9.9600 265.0000 1.0000
9.9800 277.0000 1.0000
10.0000 278.0000 1.0000
10.0200 246.0000 1.0000
10.0400 248.0000 1.0000
10.0600 256.0000 1.0000
10.0800 261.0000 1.0000
10.1000 231.0000 1.0000
10.1200 262.0000 1.0000
10.1400 269.0000 1.0000
10.1600 263.0000 1.0000
10.1800 277.0000 1.0000
10.2000 284.0000 1.0000
10.2200 274.0000 1.0000
10.2400 246.0000 1.0000
10.2600 255.0000 1.0000
10.2800 276.0000 1.0000
10.3000 258.0000 1.0000
10.3200 277.0000 1.0000
10.3400 262.0000 1.0000
10.3600 280.0000 1.0000
10.3800 225.0000 1.0000
10.4000 248.0000 1.0000
10.4200 257.0000 1.0000
10.4400 272.0000 1.0000
10.4600 225.0000 1.0000
10.4800 237.0000 1.0000
10.5000 246.0000 1.0000
10.5200 293.0000 1.0000
10.5400 200.0000 1.0000
10.5600 234.0000 1.0000
10.5800 223.0000 1.0000
10.6000 236.0000 1.0000
10.6200 245.0000 1.0000
10.6400 248.0000 1.0000
10.6600 256.0000 1.0000
10.6800 263.0000 1.0000
10.7000 248.0000 1.0000
10.7200 244.0000 1.0000
10.7400 266.0000 1.0000
10.7600 245.0000 1.0000
10.7800 219.0000 1.0000
10.8000 244.0000 1.0000
10.8200 235.0000 1.0000
10.8400 240.0000 1.0000
10.8600 212.0000 1.0000
10.8800 256.0000 1.0000
10.9000 233.0000 1.0000
10.9200 248.0000 1.0000
10.9400 220.0000 1.0000
10.9600 256.0000 1.0000
10.9800 252.0000 1.0000
11.0000 248.0000 1.0000
11.0200 253.0000 1.0000
11.0400 239.0000 1.0000
11.0600 264.0000 1.0000
11.0800 245.0000 1.0000
11.1000 263.0000 1.0000
11.1200 217.0000 1.0000
11.1400 218.0000 1.0000
11.1600 228.0000 1.0000
11.1800 196.0000 1.0000
11.2000 222.0000 1.0000
11.2200 215.0000 1.0000
11.2400 250.0000 1.0000
11.2600 224.0000 1.0000
11.2800 217.0000 1.0000
11.3000 233.0000 1.0000
11.3200 195.0000 1.0000
11.3400 209.0000 1.0000
11.3600 202.0000 1.0000
11.3800 214.0000 1.0000
11.4000 220.0000 1.0000
11.4200 167.0000 1.0000
11.4400 263.0000 1.0000
11.4600 210.0000 1.0000
11.4800 212.0000 1.0000
11.5000 208.0000 1.0000
11.5200 234.0000 1.0000
11.5400 188.0000 1.0000
11.5600 233.0000 1.0000
11.5800 173.0000 1.0000
11.6000 208.0000 1.0000
11.6200 219.0000 1.0000
11.6400 201.0000 1.0000
11.6600 212.0000 1.0000
11.6800 229.0000 1.0000
11.7000 213.0000 1.0000
11.7200 190.0000 1.0000
11.7400 213.0000 1.0000
11.7600 186.0000 1.0000
11.7800 233.0000 1.0000
11.8000 216.0000 1.0000
11.8200 225.0000 1.0000
11.8400 231.0000 1.0000
11.8600 243.0000 1.0000
11.8800 211.0000 1.0000
11.9000 217.0000 1.0000
11.9200 227.0000 1.0000
11.9400 262.0000 1.0000
11.9600 242.0000 1.0000
11.9800 228.0000 1.0000
12.0000 206.0000 1.0000
12.0200 212.0000 1.0000
12.0400 225.0000 1.0000
12.0600 240.0000 1.0000
12.0800 209.0000 1.0000
12.1000 261.0000 1.0000
12.1200 241.0000 1.0000
12.1400 260.0000 1.0000
12.1600 258.0000 1.0000
12.1800 275.0000 1.0000
12.2000 287.0000 1.0000
12.2200 243.0000 1.0000
12.2400 300.0000 1.0000
12.2600 319.0000 1.0000
12.2800 297.0000 1.0000
12.3000 292.0000 1.0000
12.3200 354.0000 1.0000
12.3400 343.0000 1.0000
12.3600 334.0000 1.0000
12.3800 337.0000 1.0000
12.4000 333.0000 1.0000
12.4200 325.0000 1.0000
12.4400 289.0000 1.0000
12.4600 272.0000 1.0000
12.4800 273.0000 1.0000
12.5000 226.0000 1.0000
12.5200 232.0000 1.0000
12.5400 213.0000 1.0000
12.5600 201.0000 1.0000
12.5800 204.0000 1.0000
12.6000 203.0000 1.0000
12.6200 206.0000 1.0000
12.6400 213.0000 1.0000
12.6600 217.0000 1.0000
12.6800 230.0000 1.0000
12.7000 237.0000 1.0000
12.7200 225.0000 1.0000
12.7400 233.0000 1.0000
12.7600 259.0000 1.0000
12.7800 253.0000 1.0000
12.8000 275.0000 1.0000
12.8200 254.0000 1.0000
12.8400 221.0000 1.0000
12.8600 233.0000 1.0000
12.8800 228.0000 1.0000
12.9000 197.0000 1.0000
12.9200 174.0000 1.0000
12.9400 171.0000 1.0000
12.9600 167.0000 1.0000
12.9800 159.0000 1.0000
13.0000 157.0000 1.0000
13.0200 182.0000 1.0000
13.0400 188.0000 1.0000
13.0600 180.0000 1.0000
13.0800 149.0000 1.0000
13.1000 159.0000 1.0000
13.1200 171.0000 1.0000
13.1400 181.0000 1.0000
13.1600 178.0000 1.0000
13.1800 166.0000 1.0000
13.2000 173.0000 1.0000
13.2200 185.0000 1.0000
13.2400 184.0000 1.0000
13.2600 171.0000 1.0000
13.2800 193.0000 1.0000
13.3000 197.0000 1.0000
13.3200 173.0000 1.0000
13.3400 170.0000 1.0000
13.3600 188.0000 1.0000
13.3800 186.0000 1.0000
13.4000 198.0000 1.0000
13.4200 198.0000 1.0000
13.4400 202.0000 1.0000
13.4600 224.0000 1.0000
13.4800 210.0000 1.0000
13.5000 218.0000 1.0000
13.5200 231.0000 1.0000
13.5400 232.0000 1.0000
13.5600 239.0000 1.0000
13.5800 225.0000 1.0000
13.6000 238.0000 1.0000
13.6200 234.0000 1.0000
13.6400 232.0000 1.0000
13.6600 240.0000 1.0000
13.6800 264.0000 1.0000
13.7000 284.0000 1.0000
13.7200 299.0000 1.0000
13.7400 309.0000 1.0000
13.7600 301.0000 1.0000
13.7800 310.0000 1.0000
13.8000 279.0000 1.0000
13.8200 234.0000 1.0000
13.8400 216.0000 1.0000
13.8600 181.0000 1.0000
13.8800 177.0000 1.0000
13.9000 174.0000 1.0000
13.9200 177.0000 1.0000
13.9400 165.0000 1.0000
13.9600 164.0000 1.0000
13.9800 173.0000 1.0000
14.0000 162.0000 1.0000
14.0200 163.0000 1.0000
14.0400 152.0000 1.0000
14.0600 148.0000 1.0000
14.0800 152.0000 1.0000
14.1000 149.0000 1.0000
14.1200 143.0000 1.0000
14.1400 165.0000 1.0000
14.1600 176.0000 1.0000
14.1800 161.0000 1.0000
14.2000 158.0000 1.0000
14.2200 165.0000 1.0000
14.2400 164.0000 1.0000
14.2600 159.0000 1.0000
14.2800 151.0000 1.0000
14.3000 140.0000 1.0000
14.3200 146.0000 1.0000
14.3400 141.0000 1.0000
14.3600 151.0000 1.0000
14.3800 137.0000 1.0000
14.4000 118.0000 1.0000
14.4200 129.0000 1.0000
14.4400 131.0000 1.0000
14.4600 133.0000 1.0000
14.4800 145.0000 1.0000
14.5000 136.0000 1.0000
14.5200 130.0000 1.0000
14.5400 126.0000 1.0000
14.5600 129.0000 1.0000
14.5800 134.0000 1.0000
14.6000 144.0000 1.0000
14.6200 146.0000 1.0000
14.6400 151.0000 1.0000
14.6600 155.0000 1.0000
14.6800 140.0000 1.0000
14.7000 145.0000 1.0000
14.7200 162.0000 1.0000
14.7400 185.0000 1.0000
14.7600 194.0000 1.0000
14.7800 174.0000 1.0000
14.8000 176.0000 1.0000
14.8200 177.0000 1.0000
14.8400 173.0000 1.0000
14.8600 164.0000 1.0000
14.8800 169.0000 1.0000
14.9000 182.0000 1.0000
14.9200 196.0000 1.0000
14.9400 187.0000 1.0000
14.9600 168.0000 1.0000
14.9800 166.0000 1.0000
15.0000 171.0000 1.0000
15.0200 175.0000 1.0000
15.0400 167.0000 1.0000
15.0600 159.0000 1.0000
15.0800 164.0000 1.0000
15.1000 156.0000 1.0000
15.1200 136.0000 1.0000
15.1400 131.0000 1.0000
15.1600 133.0000 1.0000
15.1800 137.0000 1.0000
15.2000 143.0000 1.0000
15.2200 143.0000 1.0000
15.2400 145.0000 1.0000
15.2600 142.0000 1.0000
15.2800 127.0000 1.0000
15.3000 122.0000 1.0000
15.3200 120.0000 1.0000
15.3400 133.0000 1.0000
15.3600 149.0000 1.0000
15.3800 133.0000 1.0000
15.4000 128.0000 1.0000
15.4200 140.0000 1.0000
15.4400 137.0000 1.0000
15.4600 127.0000 1.0000
15.4800 143.0000 1.0000
15.5000 151.0000 1.0000
15.5200 139.0000 1.0000
15.5400 139.0000 1.0000
15.5600 149.0000 1.0000
15.5800 153.0000 1.0000
15.6000 154.0000 1.0000
15.6200 149.0000 1.0000
15.6400 135.0000 1.0000
15.6600 139.0000 1.0000
15.6800 146.0000 1.0000
15.7000 148.0000 1.0000
15.7200 149.0000 1.0000
15.7400 150.0000 1.0000
15.7600 146.0000 1.0000
15.7800 153.0000 1.0000
15.8000 142.0000 1.0000
15.8200 133.0000 1.0000
15.8400 131.0000 1.0000
15.8600 123.0000 1.0000
15.8800 124.0000 1.0000
15.9000 124.0000 1.0000
15.9200 131.0000 1.0000
15.9400 136.0000 1.0000
15.9600 129.0000 1.0000
15.9800 122.0000 1.0000
16.0000 130.0000 1.0000
16.0200 134.0000 1.0000
16.0400 125.0000 1.0000
16.0600 121.0000 1.0000
16.0800 112.0000 1.0000
16.1000 124.0000 1.0000
16.1200 136.0000 1.0000
16.1400 126.0000 1.0000
16.1600 130.0000 1.0000
16.1800 134.0000 1.0000
16.2000 117.0000 1.0000
16.2200 132.0000 1.0000
16.2400 134.0000 1.0000
16.2600 136.0000 1.0000
16.2800 143.0000 1.0000
16.3000 147.0000 1.0000
16.3200 134.0000 1.0000
16.3400 125.0000 1.0000
16.3600 134.0000 1.0000
16.3800 158.0000 1.0000
16.4000 145.0000 1.0000
16.4200 138.0000 1.0000
16.4400 141.0000 1.0000
16.4600 135.0000 1.0000
16.4800 124.0000 1.0000
16.5000 127.0000 1.0000
16.5200 128.0000 1.0000
16.5400 136.0000 1.0000
16.5600 138.0000 1.0000
16.5800 147.0000 1.0000
16.6000 156.0000 1.0000
16.6200 142.0000 1.0000
16.6400 146.0000 1.0000
16.6600 144.0000 1.0000
16.6800 147.0000 1.0000
16.7000 131.0000 1.0000
16.7200 137.0000 1.0000
16.7400 157.0000 1.0000
16.7600 152.0000 1.0000
16.7800 149.0000 1.0000
16.8000 142.0000 1.0000
16.8200 133.0000 1.0000
16.8400 130.0000 1.0000
16.8600 146.0000 1.0000
16.8800 171.0000 1.0000
16.9000 142.0000 1.0000
16.9200 134.0000 1.0000
16.9400 134.0000 1.0000
16.9600 137.0000 1.0000
16.9800 136.0000 1.0000
17.0000 136.0000 1.0000
17.0200 132.0000 1.0000
17.0400 146.0000 1.0000
17.0600 138.0000 1.0000
17.0800 134.0000 1.0000
17.1000 130.0000 1.0000
17.1200 144.0000 1.0000
17.1400 161.0000 1.0000
17.1600 155.0000 1.0000
17.1800 155.0000 1.0000
17.2000 169.0000 1.0000
17.2200 150.0000 1.0000
17.2400 147.0000 1.0000
17.2600 159.0000 1.0000
17.2800 155.0000 1.0000
17.3000 157.0000 1.0000
17.3200 162.0000 1.0000
17.3400 168.0000 1.0000
17.3600 174.0000 1.0000
17.3800 185.0000 1.0000
17.4000 193.0000 1.0000
17.4200 185.0000 1.0000
17.4400 207.0000 1.0000
17.4600 186.0000 1.0000
17.4800 187.0000 1.0000
17.5000 205.0000 1.0000
17.5200 205.0000 1.0000
17.5400 227.0000 1.0000
17.5600 208.0000 1.0000
17.5800 191.0000 1.0000
17.6000 212.0000 1.0000
17.6200 207.0000 1.0000
17.6400 210.0000 1.0000
17.6600 202.0000 1.0000
17.6800 207.0000 1.0000
17.7000 198.0000 1.0000
17.7200 191.0000 1.0000
17.7400 189.0000 1.0000
17.7600 193.0000 1.0000
17.7800 177.0000 1.0000
17.8000 178.0000 1.0000
17.8200 161.0000 1.0000
17.8400 158.0000 1.0000
17.8600 162.0000 1.0000
17.8800 157.0000 1.0000
17.9000 148.0000 1.0000
17.9200 151.0000 1.0000
17.9400 187.0000 1.0000
17.9600 171.0000 1.0000
17.9800 136.0000 1.0000
18.0000 157.0000 1.0000
18.0200 146.0000 1.0000
18.0400 134.0000 1.0000
18.0600 119.0000 1.0000
18.0800 125.0000 1.0000
18.1000 159.0000 1.0000
18.1200 140.0000 1.0000
18.1400 154.0000 1.0000
18.1600 136.0000 1.0000
18.1800 137.0000 1.0000
18.2000 139.0000 1.0000
18.2200 158.0000 1.0000
18.2400 138.0000 1.0000
18.2600 140.0000 1.0000
18.2800 144.0000 1.0000
18.3000 150.0000 1.0000
18.3200 147.0000 1.0000
18.3400 155.0000 1.0000
18.3600 141.0000 1.0000
18.3800 145.0000 1.0000
18.4000 148.0000 1.0000
18.4200 155.0000 1.0000
18.4400 155.0000 1.0000
18.4600 166.0000 1.0000
18.4800 168.0000 1.0000
18.5000 145.0000 1.0000
18.5200 143.0000 1.0000
18.5400 153.0000 1.0000
18.5600 149.0000 1.0000
18.5800 181.0000 1.0000
18.6000 180.0000 1.0000
18.6200 170.0000 1.0000
18.6400 184.0000 1.0000
18.6600 193.0000 1.0000
18.6800 203.0000 1.0000
18.7000 169.0000 1.0000
18.7200 184.0000 1.0000
18.7400 186.0000 1.0000
18.7600 183.0000 1.0000
18.7800 187.0000 1.0000
18.8000 187.0000 1.0000
18.8200 182.0000 1.0000
18.8400 175.0000 1.0000
18.8600 175.0000 1.0000
18.8800 164.0000 1.0000
18.9000 173.0000 1.0000
18.9200 188.0000 1.0000
18.9400 181.0000 1.0000
18.9600 165.0000 1.0000
18.9800 151.0000 1.0000
19.0000 187.0000 1.0000
19.0200 186.0000 1.0000
19.0400 183.0000 1.0000
19.0600 213.0000 1.0000
19.0800 207.0000 1.0000
19.1000 228.0000 1.0000
19.1200 222.0000 1.0000
19.1400 205.0000 1.0000
19.1600 216.0000 1.0000
19.1800 220.0000 1.0000
19.2000 212.0000 1.0000
19.2200 220.0000 1.0000
19.2400 251.0000 1.0000
19.2600 238.0000 1.0000
19.2800 206.0000 1.0000
19.3000 226.0000 1.0000
19.3200 227.0000 1.0000
19.3400 266.0000 1.0000
19.3600 262.0000 1.0000
19.3800 270.0000 1.0000
19.4000 300.0000 1.0000
19.4200 299.0000 1.0000
19.4400 307.0000 1.0000
19.4600 319.0000 1.0000
19.4800 344.0000 1.0000
19.5000 382.0000 1.0000
19.5200 404.0000 1.0000
19.5400 411.0000 1.0000
19.5600 460.0000 1.0000
19.5800 501.0000 1.0000
19.6000 559.0000 1.0000
19.6200 557.0000 1.0000
19.6400 566.0000 1.0000
19.6600 544.0000 1.0000
19.6800 612.0000 1.0000
19.7000 556.0000 1.0000
19.7200 555.0000 1.0000
19.7400 570.0000 1.0000
19.7600 503.0000 1.0000
19.7800 481.0000 1.0000
19.8000 460.0000 1.0000
19.8200 464.0000 1.0000
19.8400 399.0000 1.0000
19.8600 389.0000 1.0000
19.8800 366.0000 1.0000
19.9000 378.0000 1.0000
19.9200 399.0000 1.0000
19.9400 331.0000 1.0000
19.9600 333.0000 1.0000
19.9800 350.0000 1.0000
20.0000 338.0000 1.0000
20.0200 338.0000 1.0000
20.0400 299.0000 1.0000
20.0600 325.0000 1.0000
20.0800 309.0000 1.0000
20.1000 290.0000 1.0000
20.1200 278.0000 1.0000
20.1400 284.0000 1.0000
20.1600 316.0000 1.0000
20.1800 293.0000 1.0000
20.2000 288.0000 1.0000
20.2200 281.0000 1.0000
20.2400 284.0000 1.0000
20.2600 318.0000 1.0000
20.2800 297.0000 1.0000
20.3000 293.0000 1.0000
20.3200 303.0000 1.0000
20.3400 305.0000 1.0000
20.3600 342.0000 1.0000
20.3800 343.0000 1.0000
20.4000 339.0000 1.0000
20.4200 355.0000 1.0000
20.4400 352.0000 1.0000
20.4600 353.0000 1.0000
20.4800 358.0000 1.0000
20.5000 383.0000 1.0000
20.5200 433.0000 1.0000
20.5400 423.0000 1.0000
20.5600 476.0000 1.0000
20.5800 543.0000 1.0000
20.6000 623.0000 1.0000
20.6200 697.0000 1.0000
20.6400 806.0000 1.0000
20.6600 938.0000 1.0000
20.6800 1134.0000 1.0000
20.7000 1268.0000 1.0000
20.7200 1489.0000 1.0000
20.7400 1570.0000 1.0000
20.7600 1567.0000 1.0000
20.7800 1511.0000 1.0000
20.8000 1378.0000 1.0000
20.8200 1088.0000 1.0000
20.8400 854.0000 1.0000
20.8600 703.0000 1.0000
20.8800 602.0000 1.0000
20.9000 483.0000 1.0000
20.9200 392.0000 1.0000
20.9400 387.0000 1.0000
20.9600 386.0000 1.0000
20.9800 334.0000 1.0000
21.0000 306.0000 1.0000
21.0200 346.0000 1.0000
21.0400 313.0000 1.0000
21.0600 317.0000 1.0000
21.0800 321.0000 1.0000
21.1000 297.0000 1.0000
21.1200 283.0000 1.0000
21.1400 341.0000 1.0000
21.1600 330.0000 1.0000
21.1800 319.0000 1.0000
21.2000 328.0000 1.0000
21.2200 313.0000 1.0000
21.2400 326.0000 1.0000
21.2600 294.0000 1.0000
21.2800 286.0000 1.0000
21.3000 282.0000 1.0000
21.3200 252.0000 1.0000
21.3400 278.0000 1.0000
21.3600 264.0000 1.0000
21.3800 255.0000 1.0000
21.4000 214.0000 1.0000
21.4200 233.0000 1.0000
21.4400 238.0000 1.0000
21.4600 254.0000 1.0000
21.4800 257.0000 1.0000
21.5000 238.0000 1.0000
21.5200 257.0000 1.0000
21.5400 240.0000 1.0000
21.5600 251.0000 1.0000
21.5800 243.0000 1.0000
21.6000 256.0000 1.0000
21.6200 256.0000 1.0000
21.6400 273.0000 1.0000
21.6600 289.0000 1.0000
21.6800 300.0000 1.0000
21.7000 312.0000 1.0000
21.7200 323.0000 1.0000
21.7400 347.0000 1.0000
21.7600 402.0000 1.0000
21.7800 446.0000 1.0000
21.8000 481.0000 1.0000
21.8200 541.0000 1.0000
21.8400 573.0000 1.0000
21.8600 628.0000 1.0000
21.8800 698.0000 1.0000
21.9000 734.0000 1.0000
21.9200 703.0000 1.0000
21.9400 716.0000 1.0000
21.9600 627.0000 1.0000
21.9800 559.0000 1.0000
22.0000 493.0000 1.0000
22.0200 416.0000 1.0000
22.0400 364.0000 1.0000
22.0600 299.0000 1.0000
22.0800 274.0000 1.0000
22.1000 246.0000 1.0000
22.1200 254.0000 1.0000
22.1400 243.0000 1.0000
22.1600 233.0000 1.0000
22.1800 222.0000 1.0000
22.2000 230.0000 1.0000
22.2200 213.0000 1.0000
22.2400 238.0000 1.0000
22.2600 241.0000 1.0000
22.2800 245.0000 1.0000
22.3000 242.0000 1.0000
22.3200 236.0000 1.0000
22.3400 230.0000 1.0000
22.3600 275.0000 1.0000
22.3800 229.0000 1.0000
22.4000 218.0000 1.0000
22.4200 233.0000 1.0000
22.4400 238.0000 1.0000
22.4600 261.0000 1.0000
22.4800 226.0000 1.0000
22.5000 240.0000 1.0000
22.5200 228.0000 1.0000
22.5400 243.0000 1.0000
22.5600 249.0000 1.0000
22.5800 229.0000 1.0000
22.6000 250.0000 1.0000
22.6200 256.0000 1.0000
22.6400 265.0000 1.0000
22.6600 277.0000 1.0000
22.6800 251.0000 1.0000
22.7000 255.0000 1.0000
22.7200 278.0000 1.0000
22.7400 278.0000 1.0000
22.7600 262.0000 1.0000
22.7800 277.0000 1.0000
22.8000 285.0000 1.0000
22.8200 301.0000 1.0000
22.8400 318.0000 1.0000
22.8600 328.0000 1.0000
22.8800 303.0000 1.0000
22.9000 346.0000 1.0000
22.9200 363.0000 1.0000
22.9400 351.0000 1.0000
22.9600 333.0000 1.0000
22.9800 340.0000 1.0000
23.0000 333.0000 1.0000
23.0200 284.0000 1.0000
23.0400 272.0000 1.0000
23.0600 286.0000 1.0000
23.0800 261.0000 1.0000
23.1000 274.0000 1.0000
23.1200 260.0000 1.0000
23.1400 265.0000 1.0000
23.1600 251.0000 1.0000
23.1800 285.0000 1.0000
23.2000 283.0000 1.0000
23.2200 254.0000 1.0000
23.2400 296.0000 1.0000
23.2600 311.0000 1.0000
23.2800 329.0000 1.0000
23.3000 331.0000 1.0000
23.3200 366.0000 1.0000
23.3400 419.0000 1.0000
23.3600 455.0000 1.0000
23.3800 482.0000 1.0000
23.4000 508.0000 1.0000
23.4200 536.0000 1.0000
23.4400 570.0000 1.0000
23.4600 598.0000 1.0000
23.4800 616.0000 1.0000
23.5000 584.0000 1.0000
23.5200 575.0000 1.0000
23.5400 489.0000 1.0000
23.5600 435.0000 1.0000
23.5800 445.0000 1.0000
23.6000 432.0000 1.0000
23.6200 402.0000 1.0000
23.6400 373.0000 1.0000
23.6600 344.0000 1.0000
23.6800 343.0000 1.0000
23.7000 334.0000 1.0000
23.7200 295.0000 1.0000
23.7400 293.0000 1.0000
23.7600 285.0000 1.0000
23.7800 275.0000 1.0000
23.8000 306.0000 1.0000
23.8200 309.0000 1.0000
23.8400 292.0000 1.0000
23.8600 295.0000 1.0000
23.8800 307.0000 1.0000
23.9000 308.0000 1.0000
23.9200 306.0000 1.0000
23.9400 348.0000 1.0000
23.9600 372.0000 1.0000
23.9800 423.0000 1.0000
24.0000 426.0000 1.0000
24.0200 444.0000 1.0000
24.0400 499.0000 1.0000
24.0600 530.0000 1.0000
24.0800 562.0000 1.0000
24.1000 539.0000 1.0000
24.1200 595.0000 1.0000
24.1400 595.0000 1.0000
24.1600 563.0000 1.0000
24.1800 573.0000 1.0000
24.2000 544.0000 1.0000
24.2200 520.0000 1.0000
24.2400 512.0000 1.0000
24.2600 468.0000 1.0000
24.2800 453.0000 1.0000
24.3000 420.0000 1.0000
24.3200 400.0000 1.0000
24.3400 341.0000 1.0000
24.3600 328.0000 1.0000
24.3800 333.0000 1.0000
24.4000 335.0000 1.0000
24.4200 310.0000 1.0000
24.4400 315.0000 1.0000
24.4600 306.0000 1.0000
24.4800 292.0000 1.0000
24.5000 261.0000 1.0000
24.5200 284.0000 1.0000
24.5400 275.0000 1.0000
24.5600 254.0000 1.0000
24.5800 237.0000 1.0000
24.6000 242.0000 1.0000
24.6200 247.0000 1.0000
24.6400 240.0000 1.0000
24.6600 225.0000 1.0000
24.6800 240.0000 1.0000
24.7000 257.0000 1.0000
24.7200 255.0000 1.0000
24.7400 252.0000 1.0000
24.7600 265.0000 1.0000
24.7800 265.0000 1.0000
24.8000 273.0000 1.0000
24.8200 246.0000 1.0000
24.8400 267.0000 1.0000
24.8600 263.0000 1.0000
24.8800 256.0000 1.0000
24.9000 282.0000 1.0000
24.9200 277.0000 1.0000
24.9400 284.0000 1.0000
24.9600 319.0000 1.0000
24.9800 326.0000 1.0000
25.0000 328.0000 1.0000
25.0200 323.0000 1.0000
25.0400 338.0000 1.0000
25.0600 365.0000 1.0000
25.0800 368.0000 1.0000
25.1000 360.0000 1.0000
25.1200 364.0000 1.0000
25.1400 392.0000 1.0000
25.1600 421.0000 1.0000
25.1800 448.0000 1.0000
25.2000 444.0000 1.0000
25.2200 495.0000 1.0000
25.2400 543.0000 1.0000
25.2600 555.0000 1.0000
25.2800 596.0000 1.0000
25.3000 631.0000 1.0000
25.3200 708.0000 1.0000
25.3400 763.0000 1.0000
25.3600 845.0000 1.0000
25.3800 956.0000 1.0000
25.4000 1088.0000 1.0000
25.4200 1222.0000 1.0000
25.4400 1313.0000 1.0000
25.4600 1404.0000 1.0000
25.4800 1399.0000 1.0000
25.5000 1328.0000 1.0000
25.5200 1179.0000 1.0000
25.5400 1010.0000 1.0000
25.5600 914.0000 1.0000
25.5800 707.0000 1.0000
25.6000 591.0000 1.0000
25.6200 514.0000 1.0000
25.6400 423.0000 1.0000
25.6600 397.0000 1.0000
25.6800 370.0000 1.0000
25.7000 351.0000 1.0000
25.7200 348.0000 1.0000
25.7400 346.0000 1.0000
25.7600 339.0000 1.0000
25.7800 332.0000 1.0000
25.8000 337.0000 1.0000
25.8200 323.0000 1.0000
25.8400 321.0000 1.0000
25.8600 312.0000 1.0000
25.8800 324.0000 1.0000
25.9000 330.0000 1.0000
25.9200 320.0000 1.0000
25.9400 344.0000 1.0000
25.9600 360.0000 1.0000
25.9800 365.0000 1.0000
26.0000 364.0000 1.0000
26.0200 374.0000 1.0000
26.0400 381.0000 1.0000
26.0600 389.0000 1.0000
26.0800 424.0000 1.0000
26.1000 467.0000 1.0000
26.1200 493.0000 1.0000
26.1400 503.0000 1.0000
26.1600 539.0000 1.0000
26.1800 589.0000 1.0000
26.2000 603.0000 1.0000
26.2200 658.0000 1.0000
26.2400 772.0000 1.0000
26.2600 837.0000 1.0000
26.2800 886.0000 1.0000
26.3000 1049.0000 1.0000
26.3200 1235.0000 1.0000
26.3400 1384.0000 1.0000
26.3600 1671.0000 1.0000
26.3800 2011.0000 1.0000
26.4000 2460.0000 1.0000
26.4200 3051.0000 1.0000
26.4400 3750.0000 1.0000
26.4600 4666.0000 1.0000
26.4800 5638.0000 1.0000
26.5000 6363.0000 1.0000
26.5200 6854.0000 1.0000
26.5400 6984.0000 1.0000
26.5600 6646.0000 1.0000
26.5800 5882.0000 1.0000
26.6000 4894.0000 1.0000
26.6200 3815.0000 1.0000
26.6400 2890.0000 1.0000
26.6600 2115.0000 1.0000
26.6800 1527.0000 1.0000
26.7000 1164.0000 1.0000
26.7200 985.0000 1.0000
26.7400 906.0000 1.0000
26.7600 848.0000 1.0000
26.7800 759.0000 1.0000
26.8000 689.0000 1.0000
26.8200 676.0000 1.0000
26.8400 686.0000 1.0000
26.8600 676.0000 1.0000
26.8800 632.0000 1.0000
26.9000 619.0000 1.0000
26.9200 599.0000 1.0000
26.9400 576.0000 1.0000
26.9600 535.0000 1.0000
26.9800 509.0000 1.0000
27.0000 495.0000 1.0000
27.0200 489.0000 1.0000
27.0400 484.0000 1.0000
27.0600 483.0000 1.0000
27.0800 491.0000 1.0000
27.1000 451.0000 1.0000
27.1200 444.0000 1.0000
27.1400 443.0000 1.0000
27.1600 432.0000 1.0000
27.1800 442.0000 1.0000
27.2000 424.0000 1.0000
27.2200 422.0000 1.0000
27.2400 452.0000 1.0000
27.2600 480.0000 1.0000
27.2800 492.0000 1.0000
27.3000 523.0000 1.0000
27.3200 577.0000 1.0000
27.3400 620.0000 1.0000
27.3600 651.0000 1.0000
27.3800 666.0000 1.0000
27.4000 686.0000 1.0000
27.4200 709.0000 1.0000
27.4400 711.0000 1.0000
27.4600 717.0000 1.0000
27.4800 728.0000 1.0000
27.5000 759.0000 1.0000
27.5200 788.0000 1.0000
27.5400 789.0000 1.0000
27.5600 841.0000 1.0000
27.5800 905.0000 1.0000
27.6000 945.0000 1.0000
27.6200 979.0000 1.0000
27.6400 1028.0000 1.0000
27.6600 1089.0000 1.0000
27.6800 1126.0000 1.0000
27.7000 1178.0000 1.0000
27.7200 1214.0000 1.0000
27.7400 1294.0000 1.0000
27.7600 1381.0000 1.0000
27.7800 1460.0000 1.0000
27.8000 1512.0000 1.0000
27.8200 1510.0000 1.0000
27.8400 1564.0000 1.0000
27.8600 1540.0000 1.0000
27.8800 1478.0000 1.0000
27.9000 1399.0000 1.0000
27.9200 1233.0000 1.0000
27.9400 1067.0000 1.0000
27.9600 958.0000 1.0000
27.9800 857.0000 1.0000
28.0000 747.0000 1.0000
28.0200 697.0000 1.0000
28.0400 665.0000 1.0000
28.0600 637.0000 1.0000
28.0800 612.0000 1.0000
28.1000 581.0000 1.0000
28.1200 574.0000 1.0000
28.1400 560.0000 1.0000
28.1600 516.0000 1.0000
28.1800 518.0000 1.0000
28.2000 491.0000 1.0000
28.2200 445.0000 1.0000
28.2400 434.0000 1.0000
28.2600 401.0000 1.0000
28.2800 381.0000 1.0000
28.3000 367.0000 1.0000
28.3200 346.0000 1.0000
28.3400 336.0000 1.0000
28.3600 318.0000 1.0000
28.3800 294.0000 1.0000
28.4000 301.0000 1.0000
28.4200 272.0000 1.0000
28.4400 244.0000 1.0000
28.4600 248.0000 1.0000
28.4800 242.0000 1.0000
28.5000 240.0000 1.0000
28.5200 226.0000 1.0000
28.5400 242.0000 1.0000
28.5600 247.0000 1.0000
28.5800 223.0000 1.0000
28.6000 225.0000 1.0000
28.6200 243.0000 1.0000
28.6400 232.0000 1.0000
28.6600 215.0000 1.0000
28.6800 216.0000 1.0000
28.7000 214.0000 1.0000
28.7200 214.0000 1.0000
28.7400 218.0000 1.0000
28.7600 217.0000 1.0000
28.7800 222.0000 1.0000
28.8000 201.0000 1.0000
28.8200 198.0000 1.0000
28.8400 231.0000 1.0000
28.8600 237.0000 1.0000
28.8800 242.0000 1.0000
28.9000 248.0000 1.0000
28.9200 249.0000 1.0000
28.9400 255.0000 1.0000
28.9600 253.0000 1.0000
28.9800 250.0000 1.0000
29.0000 272.0000 1.0000
29.0200 288.0000 1.0000
29.0400 258.0000 1.0000
29.0600 273.0000 1.0000
29.0800 301.0000 1.0000
29.1000 300.0000 1.0000
29.1200 312.0000 1.0000
29.1400 348.0000 1.0000
29.1600 360.0000 1.0000
29.1800 393.0000 1.0000
29.2000 462.0000 1.0000
29.2200 524.0000 1.0000
29.2400 548.0000 1.0000
29.2600 544.0000 1.0000
29.2800 585.0000 1.0000
29.3000 630.0000 1.0000
29.3200 602.0000 1.0000
29.3400 560.0000 1.0000
29.3600 539.0000 1.0000
29.3800 505.0000 1.0000
29.4000 469.0000 1.0000
29.4200 451.0000 1.0000
29.4400 441.0000 1.0000
29.4600 431.0000 1.0000
29.4800 389.0000 1.0000
29.5000 386.0000 1.0000
29.5200 403.0000 1.0000
29.5400 404.0000 1.0000
29.5600 401.0000 1.0000
29.5800 396.0000 1.0000
29.6000 439.0000 1.0000
29.6200 451.0000 1.0000
29.6400 433.0000 1.0000
29.6600 460.0000 1.0000
29.6800 468.0000 1.0000
29.7000 478.0000 1.0000
29.7200 490.0000 1.0000
29.7400 508.0000 1.0000
29.7600 493.0000 1.0000
29.7800 458.0000 1.0000
29.8000 441.0000 1.0000
29.8200 412.0000 1.0000
29.8400 421.0000 1.0000
29.8600 404.0000 1.0000
29.8800 387.0000 1.0000
29.9000 382.0000 1.0000
29.9200 410.0000 1.0000
29.9400 421.0000 1.0000
29.9600 419.0000 1.0000
29.9800 396.0000 1.0000
30.0000 417.0000 1.0000
30.0200 419.0000 1.0000
30.0400 405.0000 1.0000
30.0600 406.0000 1.0000
30.0800 410.0000 1.0000
30.1000 430.0000 1.0000
30.1200 437.0000 1.0000
30.1400 430.0000 1.0000
30.1600 416.0000 1.0000
30.1800 459.0000 1.0000
30.2000 406.0000 1.0000
30.2200 399.0000 1.0000
30.2400 392.0000 1.0000
30.2600 393.0000 1.0000
30.2800 397.0000 1.0000
30.3000 376.0000 1.0000
30.3200 408.0000 1.0000
30.3400 434.0000 1.0000
30.3600 419.0000 1.0000
30.3800 431.0000 1.0000
30.4000 396.0000 1.0000
30.4200 406.0000 1.0000
30.4400 382.0000 1.0000
30.4600 349.0000 1.0000
30.4800 319.0000 1.0000
30.5000 312.0000 1.0000
30.5200 311.0000 1.0000
30.5400 312.0000 1.0000
30.5600 280.0000 1.0000
30.5800 316.0000 1.0000
30.6000 297.0000 1.0000
30.6200 302.0000 1.0000
30.6400 305.0000 1.0000
30.6600 314.0000 1.0000
30.6800 304.0000 1.0000
30.7000 299.0000 1.0000
30.7200 314.0000 1.0000
30.7400 317.0000 1.0000
30.7600 294.0000 1.0000
30.7800 308.0000 1.0000
30.8000 321.0000 1.0000
30.8200 274.0000 1.0000
30.8400 254.0000 1.0000
30.8600 285.0000 1.0000
30.8800 286.0000 1.0000
30.9000 267.0000 1.0000
30.9200 265.0000 1.0000
30.9400 250.0000 1.0000
30.9600 219.0000 1.0000
30.9800 252.0000 1.0000
31.0000 270.0000 1.0000
31.0200 265.0000 1.0000
31.0400 251.0000 1.0000
31.0600 259.0000 1.0000
31.0800 289.0000 1.0000
31.1000 276.0000 1.0000
31.1200 269.0000 1.0000
31.1400 258.0000 1.0000
31.1600 270.0000 1.0000
31.1800 243.0000 1.0000
31.2000 263.0000 1.0000
31.2200 270.0000 1.0000
31.2400 257.0000 1.0000
31.2600 250.0000 1.0000
31.2800 242.0000 1.0000
31.3000 230.0000 1.0000
31.3200 232.0000 1.0000
31.3400 259.0000 1.0000
31.3600 236.0000 1.0000
31.3800 233.0000 1.0000
31.4000 244.0000 1.0000
31.4200 230.0000 1.0000
31.4400 231.0000 1.0000
31.4600 230.0000 1.0000
31.4800 239.0000 1.0000
31.5000 212.0000 1.0000
31.5200 200.0000 1.0000
31.5400 216.0000 1.0000
31.5600 221.0000 1.0000
31.5800 224.0000 1.0000
31.6000 196.0000 1.0000
31.6200 205.0000 1.0000
31.6400 197.0000 1.0000
31.6600 172.0000 1.0000
31.6800 171.0000 1.0000
31.7000 201.0000 1.0000
31.7200 182.0000 1.0000
31.7400 189.0000 1.0000
31.7600 191.0000 1.0000
31.7800 196.0000 1.0000
31.8000 198.0000 1.0000
31.8200 206.0000 1.0000
31.8400 201.0000 1.0000
31.8600 198.0000 1.0000
31.8800 213.0000 1.0000
31.9000 209.0000 1.0000
31.9200 199.0000 1.0000
31.9400 202.0000 1.0000
31.9600 197.0000 1.0000
31.9800 194.0000 1.0000
32.0000 176.0000 1.0000
32.0200 221.0000 1.0000
32.0400 208.0000 1.0000
32.0600 197.0000 1.0000
32.0800 194.0000 1.0000
32.1000 175.0000 1.0000
32.1200 188.0000 1.0000
32.1400 181.0000 1.0000
32.1600 197.0000 1.0000
32.1800 184.0000 1.0000
32.2000 181.0000 1.0000
32.2200 177.0000 1.0000
32.2400 174.0000 1.0000
32.2600 191.0000 1.0000
32.2800 178.0000 1.0000
32.3000 179.0000 1.0000
32.3200 166.0000 1.0000
32.3400 185.0000 1.0000
32.3600 178.0000 1.0000
32.3800 168.0000 1.0000
32.4000 164.0000 1.0000
32.4200 159.0000 1.0000
32.4400 166.0000 1.0000
32.4600 162.0000 1.0000
32.4800 153.0000 1.0000
32.5000 155.0000 1.0000
32.5200 148.0000 1.0000
32.5400 150.0000 1.0000
32.5600 159.0000 1.0000
32.5800 158.0000 1.0000
32.6000 154.0000 1.0000
32.6200 149.0000 1.0000
32.6400 136.0000 1.0000
32.6600 149.0000 1.0000
32.6800 161.0000 1.0000
32.7000 135.0000 1.0000
32.7200 149.0000 1.0000
32.7400 146.0000 1.0000
32.7600 155.0000 1.0000
32.7800 145.0000 1.0000
32.8000 152.0000 1.0000
32.8200 175.0000 1.0000
32.8400 158.0000 1.0000
32.8600 152.0000 1.0000
32.8800 161.0000 1.0000
32.9000 171.0000 1.0000
32.9200 173.0000 1.0000
32.9400 205.0000 1.0000
32.9600 195.0000 1.0000
32.9800 183.0000 1.0000
33.0000 195.0000 1.0000
33.0200 202.0000 1.0000
33.0400 176.0000 1.0000
33.0600 189.0000 1.0000
33.0800 202.0000 1.0000
33.1000 211.0000 1.0000
33.1200 203.0000 1.0000
33.1400 177.0000 1.0000
33.1600 181.0000 1.0000
33.1800 151.0000 1.0000
33.2000 148.0000 1.0000
33.2200 163.0000 1.0000
33.2400 153.0000 1.0000
33.2600 208.0000 1.0000
33.2800 170.0000 1.0000
33.3000 163.0000 1.0000
33.3200 161.0000 1.0000
33.3400 193.0000 1.0000
33.3600 167.0000 1.0000
33.3800 163.0000 1.0000
33.4000 161.0000 1.0000
33.4200 178.0000 1.0000
33.4400 180.0000 1.0000
33.4600 177.0000 1.0000
33.4800 163.0000 1.0000
33.5000 158.0000 1.0000
33.5200 173.0000 1.0000
33.5400 181.0000 1.0000
33.5600 176.0000 1.0000
33.5800 192.0000 1.0000
33.6000 220.0000 1.0000
33.6200 186.0000 1.0000
33.6400 176.0000 1.0000
33.6600 193.0000 1.0000
33.6800 200.0000 1.0000
33.7000 201.0000 1.0000
33.7200 210.0000 1.0000
33.7400 243.0000 1.0000
33.7600 212.0000 1.0000
33.7800 234.0000 1.0000
33.8000 219.0000 1.0000
33.8200 227.0000 1.0000
33.8400 223.0000 1.0000
33.8600 208.0000 1.0000
33.8800 200.0000 1.0000
33.9000 225.0000 1.0000
33.9200 194.0000 1.0000
33.9400 220.0000 1.0000
33.9600 214.0000 1.0000
33.9800 203.0000 1.0000
34.0000 200.0000 1.0000
34.0200 215.0000 1.0000
34.0400 192.0000 1.0000
34.0600 219.0000 1.0000
34.0800 229.0000 1.0000
34.1000 223.0000 1.0000
34.1200 216.0000 1.0000
34.1400 245.0000 1.0000
34.1600 254.0000 1.0000
34.1800 257.0000 1.0000
34.2000 261.0000 1.0000
34.2200 275.0000 1.0000
34.2400 257.0000 1.0000
34.2600 301.0000 1.0000
34.2800 356.0000 1.0000
34.3000 320.0000 1.0000
34.3200 350.0000 1.0000
34.3400 344.0000 1.0000
34.3600 367.0000 1.0000
34.3800 389.0000 1.0000
34.4000 352.0000 1.0000
34.4200 415.0000 1.0000
34.4400 395.0000 1.0000
34.4600 407.0000 1.0000
34.4800 410.0000 1.0000
34.5000 426.0000 1.0000
34.5200 461.0000 1.0000
34.5400 431.0000 1.0000
34.5600 447.0000 1.0000
34.5800 465.0000 1.0000
34.6000 496.0000 1.0000
34.6200 503.0000 1.0000
34.6400 540.0000 1.0000
34.6600 525.0000 1.0000
34.6800 504.0000 1.0000
34.7000 585.0000 1.0000
34.7200 575.0000 1.0000
34.7400 589.0000 1.0000
34.7600 631.0000 1.0000
34.7800 684.0000 1.0000
34.8000 669.0000 1.0000
34.8200 656.0000 1.0000
34.8400 709.0000 1.0000
34.8600 746.0000 1.0000
34.8800 762.0000 1.0000
34.9000 887.0000 1.0000
34.9200 953.0000 1.0000
34.9400 1128.0000 1.0000
34.9600 1292.0000 1.0000
34.9800 1521.0000 1.0000
35.0000 1590.0000 1.0000
35.0200 1794.0000 1.0000
35.0400 1883.0000 1.0000
35.0600 1895.0000 1.0000
35.0800 1796.0000 1.0000
35.1000 1634.0000 1.0000
35.1200 1510.0000 1.0000
35.1400 1322.0000 1.0000
35.1600 1110.0000 1.0000
35.1800 925.0000 1.0000
35.2000 767.0000 1.0000
35.2200 686.0000 1.0000
35.2400 544.0000 1.0000
35.2600 495.0000 1.0000
35.2800 474.0000 1.0000
35.3000 469.0000 1.0000
35.3200 423.0000 1.0000
35.3400 460.0000 1.0000
35.3600 434.0000 1.0000
35.3800 464.0000 1.0000
35.4000 491.0000 1.0000
35.4200 447.0000 1.0000
35.4400 445.0000 1.0000
35.4600 450.0000 1.0000
35.4800 434.0000 1.0000
35.5000 445.0000 1.0000
35.5200 450.0000 1.0000
35.5400 421.0000 1.0000
35.5600 413.0000 1.0000
35.5800 405.0000 1.0000
35.6000 379.0000 1.0000
35.6200 403.0000 1.0000
35.6400 364.0000 1.0000
35.6600 349.0000 1.0000
35.6800 338.0000 1.0000
35.7000 342.0000 1.0000
35.7200 328.0000 1.0000
35.7400 302.0000 1.0000
35.7600 305.0000 1.0000
35.7800 315.0000 1.0000
35.8000 292.0000 1.0000
35.8200 325.0000 1.0000
35.8400 306.0000 1.0000
35.8600 320.0000 1.0000
35.8800 318.0000 1.0000
35.9000 322.0000 1.0000
35.9200 323.0000 1.0000
35.9400 302.0000 1.0000
35.9600 298.0000 1.0000
35.9800 292.0000 1.0000
36.0000 265.0000 1.0000
36.0200 286.0000 1.0000
36.0400 253.0000 1.0000
36.0600 288.0000 1.0000
36.0800 317.0000 1.0000
36.1000 278.0000 1.0000
36.1200 256.0000 1.0000
36.1400 268.0000 1.0000
36.1600 287.0000 1.0000
36.1800 313.0000 1.0000
36.2000 278.0000 1.0000
36.2200 329.0000 1.0000
36.2400 294.0000 1.0000
36.2600 332.0000 1.0000
36.2800 373.0000 1.0000
36.3000 378.0000 1.0000
36.3200 419.0000 1.0000
36.3400 484.0000 1.0000
36.3600 509.0000 1.0000
36.3800 588.0000 1.0000
36.4000 642.0000 1.0000
36.4200 705.0000 1.0000
36.4400 713.0000 1.0000
36.4600 729.0000 1.0000
36.4800 735.0000 1.0000
36.5000 656.0000 1.0000
36.5200 650.0000 1.0000
36.5400 549.0000 1.0000
36.5600 550.0000 1.0000
36.5800 455.0000 1.0000
36.6000 423.0000 1.0000
36.6200 398.0000 1.0000
36.6400 379.0000 1.0000
36.6600 367.0000 1.0000
36.6800 350.0000 1.0000
36.7000 318.0000 1.0000
36.7200 313.0000 1.0000
36.7400 302.0000 1.0000
36.7600 292.0000 1.0000
36.7800 301.0000 1.0000
36.8000 302.0000 1.0000
36.8200 275.0000 1.0000
36.8400 265.0000 1.0000
36.8600 275.0000 1.0000
36.8800 283.0000 1.0000
36.9000 279.0000 1.0000
36.9200 280.0000 1.0000
36.9400 244.0000 1.0000
36.9600 237.0000 1.0000
36.9800 248.0000 1.0000
37.0000 247.0000 1.0000
37.0200 243.0000 1.0000
37.0400 233.0000 1.0000
37.0600 247.0000 1.0000
37.0800 268.0000 1.0000
37.1000 262.0000 1.0000
37.1200 249.0000 1.0000
37.1400 257.0000 1.0000
37.1600 266.0000 1.0000
37.1800 262.0000 1.0000
37.2000 268.0000 1.0000
37.2200 268.0000 1.0000
37.2400 276.0000 1.0000
37.2600 297.0000 1.0000
37.2800 271.0000 1.0000
37.3000 276.0000 1.0000
37.3200 289.0000 1.0000
37.3400 316.0000 1.0000
37.3600 308.0000 1.0000
37.3800 286.0000 1.0000
37.4000 294.0000 1.0000
37.4200 290.0000 1.0000
37.4400 312.0000 1.0000
37.4600 312.0000 1.0000
37.4800 345.0000 1.0000
37.5000 334.0000 1.0000
37.5200 366.0000 1.0000
37.5400 425.0000 1.0000
37.5600 487.0000 1.0000
37.5800 560.0000 1.0000
37.6000 648.0000 1.0000
37.6200 706.0000 1.0000
37.6400 822.0000 1.0000
37.6600 839.0000 1.0000
37.6800 843.0000 1.0000
37.7000 818.0000 1.0000
37.7200 837.0000 1.0000
37.7400 717.0000 1.0000
37.7600 619.0000 1.0000
37.7800 529.0000 1.0000
37.8000 440.0000 1.0000
37.8200 388.0000 1.0000
37.8400 331.0000 1.0000
37.8600 285.0000 1.0000
37.8800 255.0000 1.0000
37.9000 235.0000 1.0000
37.9200 223.0000 1.0000
37.9400 199.0000 1.0000
37.9600 184.0000 1.0000
37.9800 189.0000 1.0000
38.0000 202.0000 1.0000
38.0200 193.0000 1.0000
38.0400 197.0000 1.0000
38.0600 191.0000 1.0000
38.0800 169.0000 1.0000
38.1000 175.0000 1.0000
38.1200 168.0000 1.0000
38.1400 154.0000 1.0000
38.1600 171.0000 1.0000
38.1800 171.0000 1.0000
38.2000 162.0000 1.0000
38.2200 161.0000 1.0000
38.2400 169.0000 1.0000
38.2600 165.0000 1.0000
38.2800 156.0000 1.0000
38.3000 146.0000 1.0000
38.3200 155.0000 1.0000
38.3400 154.0000 1.0000
38.3600 145.0000 1.0000
38.3800 151.0000 1.0000
38.4000 150.0000 1.0000
38.4200 152.0000 1.0000
38.4400 146.0000 1.0000
38.4600 155.0000 1.0000
38.4800 157.0000 1.0000
38.5000 147.0000 1.0000
38.5200 164.0000 1.0000
38.5400 186.0000 1.0000
38.5600 186.0000 1.0000
38.5800 166.0000 1.0000
38.6000 152.0000 1.0000
38.6200 167.0000 1.0000
38.6400 175.0000 1.0000
38.6600 176.0000 1.0000
38.6800 194.0000 1.0000
38.7000 202.0000 1.0000
38.7200 199.0000 1.0000
38.7400 194.0000 1.0000
38.7600 181.0000 1.0000
38.7800 175.0000 1.0000
38.8000 193.0000 1.0000
38.8200 179.0000 1.0000
38.8400 174.0000 1.0000
38.8600 182.0000 1.0000
38.8800 185.0000 1.0000
38.9000 173.0000 1.0000
38.9200 161.0000 1.0000
38.9400 173.0000 1.0000
38.9600 175.0000 1.0000
38.9800 172.0000 1.0000
39.0000 175.0000 1.0000
39.0200 176.0000 1.0000
39.0400 179.0000 1.0000
39.0600 172.0000 1.0000
39.0800 173.0000 1.0000
39.1000 189.0000 1.0000
39.1200 201.0000 1.0000
39.1400 200.0000 1.0000
39.1600 218.0000 1.0000
39.1800 242.0000 1.0000
39.2000 257.0000 1.0000
39.2200 257.0000 1.0000
39.2400 297.0000 1.0000
39.2600 356.0000 1.0000
39.2800 385.0000 1.0000
39.3000 441.0000 1.0000
39.3200 526.0000 1.0000
39.3400 556.0000 1.0000
39.3600 575.0000 1.0000
39.3800 600.0000 1.0000
39.4000 598.0000 1.0000
39.4200 546.0000 1.0000
39.4400 494.0000 1.0000
39.4600 451.0000 1.0000
39.4800 398.0000 1.0000
39.5000 364.0000 1.0000
39.5200 326.0000 1.0000
39.5400 281.0000 1.0000
39.5600 245.0000 1.0000
39.5800 230.0000 1.0000
39.6000 225.0000 1.0000
39.6200 209.0000 1.0000
39.6400 208.0000 1.0000
39.6600 203.0000 1.0000
39.6800 195.0000 1.0000
39.7000 196.0000 1.0000
39.7200 199.0000 1.0000
39.7400 199.0000 1.0000
39.7600 189.0000 1.0000
39.7800 202.0000 1.0000
39.8000 204.0000 1.0000
39.8200 198.0000 1.0000
39.8400 195.0000 1.0000
39.8600 193.0000 1.0000
39.8800 196.0000 1.0000
39.9000 186.0000 1.0000
39.9200 187.0000 1.0000
39.9400 193.0000 1.0000
39.9600 201.0000 1.0000
39.9800 206.0000 1.0000
40.0000 202.0000 1.0000
40.0200 213.0000 1.0000
40.0400 225.0000 1.0000
40.0600 231.0000 1.0000
40.0800 242.0000 1.0000
40.1000 242.0000 1.0000
40.1200 276.0000 1.0000
40.1400 323.0000 1.0000
40.1600 337.0000 1.0000
40.1800 344.0000 1.0000
40.2000 355.0000 1.0000
40.2200 360.0000 1.0000
40.2400 332.0000 1.0000
40.2600 307.0000 1.0000
40.2800 297.0000 1.0000
40.3000 257.0000 1.0000
40.3200 240.0000 1.0000
40.3400 234.0000 1.0000
40.3600 234.0000 1.0000
40.3800 211.0000 1.0000
40.4000 179.0000 1.0000
40.4200 182.0000 1.0000
40.4400 177.0000 1.0000
40.4600 175.0000 1.0000
40.4800 178.0000 1.0000
40.5000 184.0000 1.0000
40.5200 185.0000 1.0000
40.5400 190.0000 1.0000
40.5600 192.0000 1.0000
40.5800 190.0000 1.0000
40.6000 196.0000 1.0000
40.6200 192.0000 1.0000
40.6400 204.0000 1.0000
40.6600 207.0000 1.0000
40.6800 193.0000 1.0000
40.7000 190.0000 1.0000
40.7200 193.0000 1.0000
40.7400 204.0000 1.0000
40.7600 208.0000 1.0000
40.7800 213.0000 1.0000
40.8000 202.0000 1.0000
40.8200 196.0000 1.0000
40.8400 195.0000 1.0000
40.8600 197.0000 1.0000
40.8800 189.0000 1.0000
40.9000 176.0000 1.0000
40.9200 184.0000 1.0000
40.9400 186.0000 1.0000
40.9600 182.0000 1.0000
40.9800 163.0000 1.0000
41.0000 174.0000 1.0000
41.0200 186.0000 1.0000
41.0400 191.0000 1.0000
41.0600 197.0000 1.0000
41.0800 194.0000 1.0000
41.1000 203.0000 1.0000
41.1200 199.0000 1.0000
41.1400 183.0000 1.0000
41.1600 192.0000 1.0000
41.1800 186.0000 1.0000
41.2000 159.0000 1.0000
41.2200 166.0000 1.0000
41.2400 196.0000 1.0000
41.2600 188.0000 1.0000
41.2800 177.0000 1.0000
41.3000 174.0000 1.0000
41.3200 160.0000 1.0000
41.3400 160.0000 1.0000
41.3600 169.0000 1.0000
41.3800 170.0000 1.0000
41.4000 173.0000 1.0000
41.4200 171.0000 1.0000
41.4400 184.0000 1.0000
41.4600 195.0000 1.0000
41.4800 201.0000 1.0000
41.5000 193.0000 1.0000
41.5200 184.0000 1.0000
41.5400 213.0000 1.0000
41.5600 230.0000 1.0000
41.5800 229.0000 1.0000
41.6000 221.0000 1.0000
41.6200 214.0000 1.0000
41.6400 237.0000 1.0000
41.6600 226.0000 1.0000
41.6800 217.0000 1.0000
41.7000 220.0000 1.0000
41.7200 227.0000 1.0000
41.7400 230.0000 1.0000
41.7600 256.0000 1.0000
41.7800 251.0000 1.0000
41.8000 249.0000 1.0000
41.8200 247.0000 1.0000
41.8400 227.0000 1.0000
41.8600 216.0000 1.0000
41.8800 220.0000 1.0000
41.9000 245.0000 1.0000
41.9200 228.0000 1.0000
41.9400 221.0000 1.0000
41.9600 222.0000 1.0000
41.9800 212.0000 1.0000
42.0000 229.0000 1.0000
42.0200 241.0000 1.0000
42.0400 242.0000 1.0000
42.0600 265.0000 1.0000
42.0800 270.0000 1.0000
42.1000 274.0000 1.0000
42.1200 270.0000 1.0000
42.1400 274.0000 1.0000
42.1600 287.0000 1.0000
42.1800 291.0000 1.0000
42.2000 306.0000 1.0000
42.2200 325.0000 1.0000
42.2400 375.0000 1.0000
42.2600 421.0000 1.0000
42.2800 460.0000 1.0000
42.3000 483.0000 1.0000
42.3200 535.0000 1.0000
42.3400 548.0000 1.0000
42.3600 560.0000 1.0000
42.3800 538.0000 1.0000
42.4000 483.0000 1.0000
42.4200 468.0000 1.0000
42.4400 444.0000 1.0000
42.4600 410.0000 1.0000
42.4800 379.0000 1.0000
42.5000 353.0000 1.0000
42.5200 343.0000 1.0000
42.5400 276.0000 1.0000
42.5600 287.0000 1.0000
42.5800 286.0000 1.0000
42.6000 268.0000 1.0000
42.6200 236.0000 1.0000
42.6400 227.0000 1.0000
42.6600 222.0000 1.0000
42.6800 233.0000 1.0000
42.7000 236.0000 1.0000
42.7200 243.0000 1.0000
42.7400 229.0000 1.0000
42.7600 218.0000 1.0000
42.7800 224.0000 1.0000
42.8000 226.0000 1.0000
42.8200 220.0000 1.0000
42.8400 228.0000 1.0000
42.8600 246.0000 1.0000
42.8800 245.0000 1.0000
42.9000 251.0000 1.0000
42.9200 262.0000 1.0000
42.9400 271.0000 1.0000
42.9600 290.0000 1.0000
42.9800 276.0000 1.0000
43.0000 306.0000 1.0000
43.0200 306.0000 1.0000
43.0400 323.0000 1.0000
43.0600 399.0000 1.0000
43.0800 426.0000 1.0000
43.1000 513.0000 1.0000
43.1200 618.0000 1.0000
43.1400 734.0000 1.0000
43.1600 895.0000 1.0000
43.1800 1092.0000 1.0000
43.2000 1282.0000 1.0000
43.2200 1499.0000 1.0000
43.2400 1699.0000 1.0000
43.2600 1789.0000 1.0000
43.2800 1687.0000 1.0000
43.3000 1587.0000 1.0000
43.3200 1394.0000 1.0000
43.3400 1288.0000 1.0000
43.3600 1081.0000 1.0000
43.3800 961.0000 1.0000
43.4000 804.0000 1.0000
43.4200 725.0000 1.0000
43.4400 604.0000 1.0000
43.4600 467.0000 1.0000
43.4800 328.0000 1.0000
43.5000 272.0000 1.0000
43.5200 284.0000 1.0000
43.5400 238.0000 1.0000
43.5600 225.0000 1.0000
43.5800 226.0000 1.0000
43.6000 231.0000 1.0000
43.6200 211.0000 1.0000
43.6400 192.0000 1.0000
43.6600 182.0000 1.0000
43.6800 190.0000 1.0000
43.7000 172.0000 1.0000
43.7200 178.0000 1.0000
43.7400 191.0000 1.0000
43.7600 169.0000 1.0000
43.7800 182.0000 1.0000
43.8000 175.0000 1.0000
43.8200 173.0000 1.0000
43.8400 161.0000 1.0000
43.8600 179.0000 1.0000
43.8800 144.0000 1.0000
43.9000 164.0000 1.0000
43.9200 159.0000 1.0000
43.9400 158.0000 1.0000
43.9600 171.0000 1.0000
43.9800 181.0000 1.0000
44.0000 164.0000 1.0000
44.0200 141.0000 1.0000
44.0400 143.0000 1.0000
44.0600 162.0000 1.0000
44.0800 161.0000 1.0000
44.1000 149.0000 1.0000
44.1200 181.0000 1.0000
44.1400 155.0000 1.0000
44.1600 162.0000 1.0000
44.1800 141.0000 1.0000
44.2000 183.0000 1.0000
44.2200 153.0000 1.0000
44.2400 155.0000 1.0000
44.2600 174.0000 1.0000
44.2800 165.0000 1.0000
44.3000 146.0000 1.0000
44.3200 166.0000 1.0000
44.3400 155.0000 1.0000
44.3600 144.0000 1.0000
44.3800 149.0000 1.0000
44.4000 169.0000 1.0000
44.4200 169.0000 1.0000
44.4400 136.0000 1.0000
44.4600 164.0000 1.0000
44.4800 166.0000 1.0000
44.5000 152.0000 1.0000
44.5200 172.0000 1.0000
44.5400 195.0000 1.0000
44.5600 162.0000 1.0000
44.5800 137.0000 1.0000
44.6000 156.0000 1.0000
44.6200 180.0000 1.0000
44.6400 174.0000 1.0000
44.6600 172.0000 1.0000
44.6800 169.0000 1.0000
44.7000 156.0000 1.0000
44.7200 167.0000 1.0000
44.7400 144.0000 1.0000
44.7600 163.0000 1.0000
44.7800 151.0000 1.0000
44.8000 165.0000 1.0000
44.8200 169.0000 1.0000
44.8400 171.0000 1.0000
44.8600 162.0000 1.0000
44.8800 172.0000 1.0000
44.9000 182.0000 1.0000
44.9200 196.0000 1.0000
44.9400 193.0000 1.0000
44.9600 184.0000 1.0000
44.9800 158.0000 1.0000
45.0000 194.0000 1.0000
45.0200 190.0000 1.0000
45.0400 190.0000 1.0000
45.0600 213.0000 1.0000
45.0800 194.0000 1.0000
45.1000 210.0000 1.0000
45.1200 190.0000 1.0000
45.1400 197.0000 1.0000
45.1600 205.0000 1.0000
45.1800 222.0000 1.0000
45.2000 211.0000 1.0000
45.2200 200.0000 1.0000
45.2400 211.0000 1.0000
45.2600 230.0000 1.0000
45.2800 222.0000 1.0000
45.3000 199.0000 1.0000
45.3200 207.0000 1.0000
45.3400 252.0000 1.0000
45.3600 201.0000 1.0000
45.3800 197.0000 1.0000
45.4000 218.0000 1.0000
45.4200 242.0000 1.0000
45.4400 211.0000 1.0000
45.4600 248.0000 1.0000
45.4800 248.0000 1.0000
45.5000 219.0000 1.0000
45.5200 246.0000 1.0000
45.5400 217.0000 1.0000
45.5600 229.0000 1.0000
45.5800 227.0000 1.0000
45.6000 271.0000 1.0000
45.6200 291.0000 1.0000
45.6400 287.0000 1.0000
45.6600 344.0000 1.0000
45.6800 349.0000 1.0000
45.7000 352.0000 1.0000
45.7200 357.0000 1.0000
45.7400 343.0000 1.0000
45.7600 345.0000 1.0000
45.7800 319.0000 1.0000
45.8000 296.0000 1.0000
45.8200 281.0000 1.0000
45.8400 283.0000 1.0000
45.8600 234.0000 1.0000
45.8800 214.0000 1.0000
45.9000 216.0000 1.0000
45.9200 166.0000 1.0000
45.9400 185.0000 1.0000
45.9600 168.0000 1.0000
45.9800 178.0000 1.0000
46.0000 188.0000 1.0000
46.0200 185.0000 1.0000
46.0400 187.0000 1.0000
46.0600 183.0000 1.0000
46.0800 172.0000 1.0000
46.1000 200.0000 1.0000
46.1200 183.0000 1.0000
46.1400 162.0000 1.0000
46.1600 169.0000 1.0000
46.1800 154.0000 1.0000
46.2000 156.0000 1.0000
46.2200 160.0000 1.0000
46.2400 149.0000 1.0000
46.2600 144.0000 1.0000
46.2800 146.0000 1.0000
46.3000 146.0000 1.0000
46.3200 153.0000 1.0000
46.3400 146.0000 1.0000
46.3600 160.0000 1.0000
46.3800 152.0000 1.0000
46.4000 139.0000 1.0000
46.4200 128.0000 1.0000
46.4400 128.0000 1.0000
46.4600 141.0000 1.0000
46.4800 136.0000 1.0000
46.5000 133.0000 1.0000
46.5200 133.0000 1.0000
46.5400 141.0000 1.0000
46.5600 143.0000 1.0000
46.5800 137.0000 1.0000
46.6000 148.0000 1.0000
46.6200 138.0000 1.0000
46.6400 147.0000 1.0000
46.6600 117.0000 1.0000
46.6800 121.0000 1.0000
46.7000 127.0000 1.0000
46.7200 142.0000 1.0000
46.7400 115.0000 1.0000
46.7600 132.0000 1.0000
46.7800 137.0000 1.0000
46.8000 145.0000 1.0000
46.8200 137.0000 1.0000
46.8400 140.0000 1.0000
46.8600 157.0000 1.0000
46.8800 152.0000 1.0000
46.9000 152.0000 1.0000
46.9200 146.0000 1.0000
46.9400 139.0000 1.0000
46.9600 153.0000 1.0000
46.9800 157.0000 1.0000
47.0000 162.0000 1.0000
47.0200 161.0000 1.0000
47.0400 160.0000 1.0000
47.0600 169.0000 1.0000
47.0800 172.0000 1.0000
47.1000 176.0000 1.0000
47.1200 150.0000 1.0000
47.1400 159.0000 1.0000
47.1600 152.0000 1.0000
47.1800 162.0000 1.0000
47.2000 161.0000 1.0000
47.2200 162.0000 1.0000
47.2400 155.0000 1.0000
47.2600 151.0000 1.0000
47.2800 142.0000 1.0000
47.3000 153.0000 1.0000
47.3200 163.0000 1.0000
47.3400 159.0000 1.0000
47.3600 152.0000 1.0000
47.3800 151.0000 1.0000
47.4000 159.0000 1.0000
47.4200 154.0000 1.0000
47.4400 141.0000 1.0000
47.4600 157.0000 1.0000
47.4800 159.0000 1.0000
47.5000 151.0000 1.0000
47.5200 157.0000 1.0000
47.5400 155.0000 1.0000
47.5600 168.0000 1.0000
47.5800 166.0000 1.0000
47.6000 138.0000 1.0000
47.6200 133.0000 1.0000
47.6400 143.0000 1.0000
47.6600 157.0000 1.0000
47.6800 143.0000 1.0000
47.7000 147.0000 1.0000
47.7200 134.0000 1.0000
47.7400 150.0000 1.0000
47.7600 149.0000 1.0000
47.7800 135.0000 1.0000
47.8000 133.0000 1.0000
47.8200 156.0000 1.0000
47.8400 157.0000 1.0000
47.8600 141.0000 1.0000
47.8800 153.0000 1.0000
47.9000 162.0000 1.0000
47.9200 157.0000 1.0000
47.9400 162.0000 1.0000
47.9600 154.0000 1.0000
47.9800 155.0000 1.0000
48.0000 150.0000 1.0000
48.0200 151.0000 1.0000
48.0400 174.0000 1.0000
48.0600 167.0000 1.0000
48.0800 156.0000 1.0000
48.1000 169.0000 1.0000
48.1200 187.0000 1.0000
48.1400 169.0000 1.0000
48.1600 157.0000 1.0000
48.1800 171.0000 1.0000
48.2000 169.0000 1.0000
48.2200 154.0000 1.0000
48.2400 159.0000 1.0000
48.2600 164.0000 1.0000
48.2800 171.0000 1.0000
48.3000 177.0000 1.0000
48.3200 165.0000 1.0000
48.3400 164.0000 1.0000
48.3600 166.0000 1.0000
48.3800 179.0000 1.0000
48.4000 186.0000 1.0000
48.4200 180.0000 1.0000
48.4400 173.0000 1.0000
48.4600 161.0000 1.0000
48.4800 163.0000 1.0000
48.5000 162.0000 1.0000
48.5200 166.0000 1.0000
48.5400 168.0000 1.0000
48.5600 159.0000 1.0000
48.5800 144.0000 1.0000
48.6000 146.0000 1.0000
48.6200 148.0000 1.0000
48.6400 139.0000 1.0000
48.6600 135.0000 1.0000
48.6800 128.0000 1.0000
48.7000 122.0000 1.0000
48.7200 131.0000 1.0000
48.7400 136.0000 1.0000
48.7600 130.0000 1.0000
48.7800 124.0000 1.0000
48.8000 131.0000 1.0000
48.8200 131.0000 1.0000
48.8400 131.0000 1.0000
48.8600 144.0000 1.0000
48.8800 146.0000 1.0000
48.9000 138.0000 1.0000
48.9200 140.0000 1.0000
48.9400 148.0000 1.0000
48.9600 146.0000 1.0000
48.9800 160.0000 1.0000
49.0000 170.0000 1.0000
49.0200 164.0000 1.0000
49.0400 176.0000 1.0000
49.0600 189.0000 1.0000
49.0800 184.0000 1.0000
49.1000 195.0000 1.0000
49.1200 200.0000 1.0000
49.1400 179.0000 1.0000
49.1600 185.0000 1.0000
49.1800 181.0000 1.0000
49.2000 171.0000 1.0000
49.2200 169.0000 1.0000
49.2400 165.0000 1.0000
49.2600 170.0000 1.0000
49.2800 167.0000 1.0000
49.3000 177.0000 1.0000
49.3200 179.0000 1.0000
49.3400 181.0000 1.0000
49.3600 184.0000 1.0000
49.3800 197.0000 1.0000
49.4000 192.0000 1.0000
49.4200 177.0000 1.0000
49.4400 172.0000 1.0000
49.4600 166.0000 1.0000
49.4800 177.0000 1.0000
49.5000 180.0000 1.0000
49.5200 185.0000 1.0000
49.5400 190.0000 1.0000
49.5600 196.0000 1.0000
49.5800 198.0000 1.0000
49.6000 221.0000 1.0000
49.6200 211.0000 1.0000
49.6400 213.0000 1.0000
49.6600 235.0000 1.0000
49.6800 235.0000 1.0000
49.7000 239.0000 1.0000
49.7200 238.0000 1.0000
49.7400 223.0000 1.0000
49.7600 255.0000 1.0000
49.7800 256.0000 1.0000
49.8000 266.0000 1.0000
49.8200 271.0000 1.0000
49.8400 278.0000 1.0000
49.8600 289.0000 1.0000
49.8800 318.0000 1.0000
49.9000 392.0000 1.0000
49.9200 414.0000 1.0000
49.9400 429.0000 1.0000
49.9600 535.0000 1.0000
49.9800 634.0000 1.0000
50.0000 720.0000 1.0000
50.0200 806.0000 1.0000
50.0400 851.0000 1.0000
50.0600 855.0000 1.0000
50.0800 824.0000 1.0000
50.1000 735.0000 1.0000
50.1200 667.0000 1.0000
50.1400 630.0000 1.0000
50.1600 563.0000 1.0000
50.1800 522.0000 1.0000
50.2000 451.0000 1.0000
50.2200 390.0000 1.0000
50.2400 362.0000 1.0000
50.2600 322.0000 1.0000
50.2800 271.0000 1.0000
50.3000 231.0000 1.0000
50.3200 194.0000 1.0000
50.3400 191.0000 1.0000
50.3600 190.0000 1.0000
50.3800 197.0000 1.0000
50.4000 179.0000 1.0000
50.4200 192.0000 1.0000
50.4400 189.0000 1.0000
50.4600 190.0000 1.0000
50.4800 203.0000 1.0000
50.5000 204.0000 1.0000
50.5200 225.0000 1.0000
50.5400 257.0000 1.0000
50.5600 228.0000 1.0000
50.5800 220.0000 1.0000
50.6000 214.0000 1.0000
50.6200 204.0000 1.0000
50.6400 206.0000 1.0000
50.6600 216.0000 1.0000
50.6800 203.0000 1.0000
50.7000 200.0000 1.0000
50.7200 195.0000 1.0000
50.7400 185.0000 1.0000
50.7600 197.0000 1.0000
50.7800 188.0000 1.0000
50.8000 170.0000 1.0000
50.8200 165.0000 1.0000
50.8400 168.0000 1.0000
50.8600 166.0000 1.0000
50.8800 164.0000 1.0000
50.9000 158.0000 1.0000
50.9200 151.0000 1.0000
50.9400 181.0000 1.0000
50.9600 165.0000 1.0000
50.9800 158.0000 1.0000
51.0000 156.0000 1.0000
51.0200 183.0000 1.0000
51.0400 205.0000 1.0000
51.0600 205.0000 1.0000
51.0800 193.0000 1.0000
51.1000 203.0000 1.0000
51.1200 208.0000 1.0000
51.1400 178.0000 1.0000
51.1600 170.0000 1.0000
51.1800 174.0000 1.0000
51.2000 194.0000 1.0000
51.2200 179.0000 1.0000
51.2400 174.0000 1.0000
51.2600 162.0000 1.0000
51.2800 167.0000 1.0000
51.3000 146.0000 1.0000
51.3200 153.0000 1.0000
51.3400 154.0000 1.0000
51.3600 136.0000 1.0000
51.3800 149.0000 1.0000
51.4000 153.0000 1.0000
51.4200 150.0000 1.0000
51.4400 138.0000 1.0000
51.4600 142.0000 1.0000
51.4800 151.0000 1.0000
51.5000 157.0000 1.0000
51.5200 165.0000 1.0000
51.5400 123.0000 1.0000
51.5600 123.0000 1.0000
51.5800 151.0000 1.0000
51.6000 146.0000 1.0000
51.6200 133.0000 1.0000
51.6400 142.0000 1.0000
51.6600 140.0000 1.0000
51.6800 131.0000 1.0000
51.7000 135.0000 1.0000
51.7200 127.0000 1.0000
51.7400 136.0000 1.0000
51.7600 134.0000 1.0000
51.7800 143.0000 1.0000
51.8000 122.0000 1.0000
51.8200 134.0000 1.0000
51.8400 148.0000 1.0000
51.8600 132.0000 1.0000
51.8800 136.0000 1.0000
51.9000 141.0000 1.0000
51.9200 139.0000 1.0000
51.9400 138.0000 1.0000
51.9600 160.0000 1.0000
51.9800 148.0000 1.0000
52.0000 154.0000 1.0000
52.0200 142.0000 1.0000
52.0400 142.0000 1.0000
52.0600 169.0000 1.0000
52.0800 176.0000 1.0000
52.1000 175.0000 1.0000
52.1200 174.0000 1.0000
52.1400 191.0000 1.0000
52.1600 171.0000 1.0000
52.1800 200.0000 1.0000
52.2000 203.0000 1.0000
52.2200 219.0000 1.0000
52.2400 189.0000 1.0000
52.2600 228.0000 1.0000
52.2800 232.0000 1.0000
52.3000 256.0000 1.0000
52.3200 311.0000 1.0000
52.3400 358.0000 1.0000
52.3600 407.0000 1.0000
52.3800 484.0000 1.0000
52.4000 522.0000 1.0000
52.4200 633.0000 1.0000
52.4400 725.0000 1.0000
52.4600 777.0000 1.0000
52.4800 756.0000 1.0000
52.5000 760.0000 1.0000
52.5200 681.0000 1.0000
52.5400 619.0000 1.0000
52.5600 562.0000 1.0000
52.5800 549.0000 1.0000
52.6000 520.0000 1.0000
52.6200 490.0000 1.0000
52.6400 458.0000 1.0000
52.6600 391.0000 1.0000
52.6800 349.0000 1.0000
52.7000 277.0000 1.0000
52.7200 234.0000 1.0000
52.7400 208.0000 1.0000
52.7600 207.0000 1.0000
52.7800 196.0000 1.0000
52.8000 169.0000 1.0000
52.8200 177.0000 1.0000
52.8400 163.0000 1.0000
52.8600 158.0000 1.0000
52.8800 195.0000 1.0000
52.9000 164.0000 1.0000
52.9200 173.0000 1.0000
52.9400 171.0000 1.0000
52.9600 167.0000 1.0000
52.9800 167.0000 1.0000
53.0000 179.0000 1.0000
53.0200 167.0000 1.0000
53.0400 171.0000 1.0000
53.0600 172.0000 1.0000
53.0800 205.0000 1.0000
53.1000 180.0000 1.0000
53.1200 176.0000 1.0000
53.1400 198.0000 1.0000
53.1600 184.0000 1.0000
53.1800 165.0000 1.0000
53.2000 173.0000 1.0000
53.2200 197.0000 1.0000
53.2400 183.0000 1.0000
53.2600 174.0000 1.0000
53.2800 174.0000 1.0000
53.3000 175.0000 1.0000
53.3200 169.0000 1.0000
53.3400 158.0000 1.0000
53.3600 174.0000 1.0000
53.3800 160.0000 1.0000
53.4000 164.0000 1.0000
53.4200 147.0000 1.0000
53.4400 162.0000 1.0000
53.4600 193.0000 1.0000
53.4800 170.0000 1.0000
53.5000 161.0000 1.0000
53.5200 172.0000 1.0000
53.5400 154.0000 1.0000
53.5600 150.0000 1.0000
53.5800 158.0000 1.0000
53.6000 159.0000 1.0000
53.6200 167.0000 1.0000
53.6400 175.0000 1.0000
53.6600 171.0000 1.0000
53.6800 174.0000 1.0000
53.7000 164.0000 1.0000
53.7200 167.0000 1.0000
53.7400 163.0000 1.0000
53.7600 161.0000 1.0000
53.7800 163.0000 1.0000
53.8000 160.0000 1.0000
53.8200 169.0000 1.0000
53.8400 173.0000 1.0000
53.8600 175.0000 1.0000
53.8800 202.0000 1.0000
53.9000 198.0000 1.0000
53.9200 174.0000 1.0000
53.9400 195.0000 1.0000
53.9600 167.0000 1.0000
53.9800 162.0000 1.0000
54.0000 165.0000 1.0000
54.0200 174.0000 1.0000
54.0400 177.0000 1.0000
54.0600 187.0000 1.0000
54.0800 183.0000 1.0000
54.1000 184.0000 1.0000
54.1200 178.0000 1.0000
54.1400 170.0000 1.0000
54.1600 187.0000 1.0000
54.1800 180.0000 1.0000
54.2000 192.0000 1.0000
54.2200 178.0000 1.0000
54.2400 161.0000 1.0000
54.2600 166.0000 1.0000
54.2800 181.0000 1.0000
54.3000 188.0000 1.0000
54.3200 191.0000 1.0000
54.3400 180.0000 1.0000
54.3600 190.0000 1.0000
54.3800 182.0000 1.0000
54.4000 173.0000 1.0000
54.4200 162.0000 1.0000
54.4400 179.0000 1.0000
54.4600 162.0000 1.0000
54.4800 149.0000 1.0000
54.5000 176.0000 1.0000
54.5200 182.0000 1.0000
54.5400 196.0000 1.0000
54.5600 191.0000 1.0000
54.5800 185.0000 1.0000
54.6000 196.0000 1.0000
54.6200 201.0000 1.0000
54.6400 220.0000 1.0000
54.6600 237.0000 1.0000
54.6800 265.0000 1.0000
54.7000 311.0000 1.0000
54.7200 308.0000 1.0000
54.7400 320.0000 1.0000
54.7600 367.0000 1.0000
54.7800 382.0000 1.0000
54.8000 359.0000 1.0000
54.8200 357.0000 1.0000
54.8400 346.0000 1.0000
54.8600 311.0000 1.0000
54.8800 297.0000 1.0000
54.9000 309.0000 1.0000
54.9200 300.0000 1.0000
54.9400 280.0000 1.0000
54.9600 262.0000 1.0000
54.9800 249.0000 1.0000
55.0000 254.0000 1.0000
55.0200 252.0000 1.0000
55.0400 214.0000 1.0000
55.0600 220.0000 1.0000
55.0800 228.0000 1.0000
55.1000 216.0000 1.0000
55.1200 212.0000 1.0000
55.1400 214.0000 1.0000
55.1600 221.0000 1.0000
55.1800 237.0000 1.0000
55.2000 264.0000 1.0000
55.2200 269.0000 1.0000
55.2400 255.0000 1.0000
55.2600 265.0000 1.0000
55.2800 276.0000 1.0000
55.3000 269.0000 1.0000
55.3200 254.0000 1.0000
55.3400 239.0000 1.0000
55.3600 235.0000 1.0000
55.3800 220.0000 1.0000
55.4000 203.0000 1.0000
55.4200 192.0000 1.0000
55.4400 177.0000 1.0000
55.4600 186.0000 1.0000
55.4800 192.0000 1.0000
55.5000 181.0000 1.0000
55.5200 163.0000 1.0000
55.5400 176.0000 1.0000
55.5600 195.0000 1.0000
55.5800 178.0000 1.0000
55.6000 173.0000 1.0000
55.6200 179.0000 1.0000
55.6400 167.0000 1.0000
55.6600 165.0000 1.0000
55.6800 174.0000 1.0000
55.7000 163.0000 1.0000
55.7200 166.0000 1.0000
55.7400 178.0000 1.0000
55.7600 166.0000 1.0000
55.7800 160.0000 1.0000
55.8000 168.0000 1.0000
55.8200 187.0000 1.0000
55.8400 191.0000 1.0000
55.8600 174.0000 1.0000
55.8800 175.0000 1.0000
55.9000 179.0000 1.0000
55.9200 159.0000 1.0000
55.9400 162.0000 1.0000
55.9600 176.0000 1.0000
55.9800 172.0000 1.0000
56.0000 182.0000 1.0000
56.0200 189.0000 1.0000
56.0400 176.0000 1.0000
56.0600 170.0000 1.0000
56.0800 183.0000 1.0000
56.1000 171.0000 1.0000
56.1200 157.0000 1.0000
56.1400 164.0000 1.0000
56.1600 173.0000 1.0000
56.1800 185.0000 1.0000
56.2000 189.0000 1.0000
56.2200 173.0000 1.0000
56.2400 175.0000 1.0000
56.2600 185.0000 1.0000
56.2800 189.0000 1.0000
56.3000 191.0000 1.0000
56.3200 185.0000 1.0000
56.3400 179.0000 1.0000
56.3600 171.0000 1.0000
56.3800 169.0000 1.0000
56.4000 175.0000 1.0000
56.4200 190.0000 1.0000
56.4400 194.0000 1.0000
56.4600 196.0000 1.0000
56.4800 193.0000 1.0000
56.5000 193.0000 1.0000
56.5200 194.0000 1.0000
56.5400 198.0000 1.0000
56.5600 190.0000 1.0000
56.5800 177.0000 1.0000
56.6000 183.0000 1.0000
56.6200 183.0000 1.0000
56.6400 207.0000 1.0000
56.6600 216.0000 1.0000
56.6800 195.0000 1.0000
56.7000 173.0000 1.0000
56.7200 166.0000 1.0000
56.7400 180.0000 1.0000
56.7600 167.0000 1.0000
56.7800 162.0000 1.0000
56.8000 167.0000 1.0000
56.8200 161.0000 1.0000
56.8400 166.0000 1.0000
56.8600 177.0000 1.0000
56.8800 167.0000 1.0000
56.9000 156.0000 1.0000
56.9200 159.0000 1.0000
56.9400 192.0000 1.0000
56.9600 184.0000 1.0000
56.9800 191.0000 1.0000
57.0000 208.0000 1.0000
57.0200 211.0000 1.0000
57.0400 210.0000 1.0000
57.0600 213.0000 1.0000
57.0800 217.0000 1.0000
57.1000 218.0000 1.0000
57.1200 218.0000 1.0000
57.1400 236.0000 1.0000
57.1600 253.0000 1.0000
57.1800 273.0000 1.0000
57.2000 276.0000 1.0000
57.2200 292.0000 1.0000
57.2400 324.0000 1.0000
57.2600 392.0000 1.0000
57.2800 482.0000 1.0000
57.3000 588.0000 1.0000
57.3200 702.0000 1.0000
57.3400 890.0000 1.0000
57.3600 1042.0000 1.0000
57.3800 1201.0000 1.0000
57.4000 1304.0000 1.0000
57.4200 1334.0000 1.0000
57.4400 1315.0000 1.0000
57.4600 1222.0000 1.0000
57.4800 1099.0000 1.0000
57.5000 992.0000 1.0000
57.5200 944.0000 1.0000
57.5400 914.0000 1.0000
57.5600 880.0000 1.0000
57.5800 847.0000 1.0000
57.6000 732.0000 1.0000
57.6200 662.0000 1.0000
57.6400 533.0000 1.0000
57.6600 428.0000 1.0000
57.6800 366.0000 1.0000
57.7000 327.0000 1.0000
57.7200 282.0000 1.0000
57.7400 252.0000 1.0000
57.7600 239.0000 1.0000
57.7800 228.0000 1.0000
57.8000 211.0000 1.0000
57.8200 193.0000 1.0000
57.8400 173.0000 1.0000
57.8600 173.0000 1.0000
57.8800 167.0000 1.0000
57.9000 172.0000 1.0000
57.9200 179.0000 1.0000
57.9400 162.0000 1.0000
57.9600 157.0000 1.0000
57.9800 179.0000 1.0000
58.0000 170.0000 1.0000
58.0200 159.0000 1.0000
58.0400 142.0000 1.0000
58.0600 144.0000 1.0000
58.0800 155.0000 1.0000
58.1000 147.0000 1.0000
58.1200 156.0000 1.0000
58.1400 163.0000 1.0000
58.1600 158.0000 1.0000
58.1800 159.0000 1.0000
58.2000 143.0000 1.0000
58.2200 140.0000 1.0000
58.2400 140.0000 1.0000
58.2600 147.0000 1.0000
58.2800 135.0000 1.0000
58.3000 150.0000 1.0000
58.3200 140.0000 1.0000
58.3400 137.0000 1.0000
58.3600 152.0000 1.0000
58.3800 131.0000 1.0000
58.4000 136.0000 1.0000
58.4200 151.0000 1.0000
58.4400 153.0000 1.0000
58.4600 140.0000 1.0000
58.4800 132.0000 1.0000
58.5000 135.0000 1.0000
58.5200 145.0000 1.0000
58.5400 157.0000 1.0000
58.5600 146.0000 1.0000
58.5800 151.0000 1.0000
58.6000 151.0000 1.0000
58.6200 153.0000 1.0000
58.6400 158.0000 1.0000
58.6600 168.0000 1.0000
58.6800 155.0000 1.0000
58.7000 140.0000 1.0000
58.7200 145.0000 1.0000
58.7400 141.0000 1.0000
58.7600 167.0000 1.0000
58.7800 153.0000 1.0000
58.8000 156.0000 1.0000
58.8200 159.0000 1.0000
58.8400 171.0000 1.0000
58.8600 158.0000 1.0000
58.8800 142.0000 1.0000
58.9000 130.0000 1.0000
58.9200 152.0000 1.0000
58.9400 158.0000 1.0000
58.9600 141.0000 1.0000
58.9800 160.0000 1.0000
59.0000 140.0000 1.0000
59.0200 143.0000 1.0000
59.0400 141.0000 1.0000
59.0600 150.0000 1.0000
59.0800 142.0000 1.0000
59.1000 162.0000 1.0000
59.1200 160.0000 1.0000
59.1400 143.0000 1.0000
59.1600 161.0000 1.0000
59.1800 159.0000 1.0000
59.2000 151.0000 1.0000
59.2200 169.0000 1.0000
59.2400 141.0000 1.0000
59.2600 155.0000 1.0000
59.2800 167.0000 1.0000
59.3000 152.0000 1.0000
59.3200 170.0000 1.0000
59.3400 167.0000 1.0000
59.3600 162.0000 1.0000
59.3800 150.0000 1.0000
59.4000 138.0000 1.0000
59.4200 164.0000 1.0000
59.4400 178.0000 1.0000
59.4600 160.0000 1.0000
59.4800 161.0000 1.0000
59.5000 168.0000 1.0000
59.5200 189.0000 1.0000
59.5400 164.0000 1.0000
59.5600 199.0000 1.0000
59.5800 187.0000 1.0000
59.6000 216.0000 1.0000
59.6200 248.0000 1.0000
59.6400 240.0000 1.0000
59.6600 225.0000 1.0000
59.6800 268.0000 1.0000
59.7000 243.0000 1.0000
59.7200 315.0000 1.0000
59.7400 306.0000 1.0000
59.7600 345.0000 1.0000
59.7800 399.0000 1.0000
59.8000 452.0000 1.0000
59.8200 507.0000 1.0000
59.8400 590.0000 1.0000
59.8600 614.0000 1.0000
59.8800 586.0000 1.0000
59.9000 592.0000 1.0000
59.9200 538.0000 1.0000
59.9400 502.0000 1.0000
59.9600 465.0000 1.0000
59.9800 425.0000 1.0000
60.0000 449.0000 1.0000
60.0200 412.0000 1.0000
60.0400 399.0000 1.0000
60.0600 340.0000 1.0000
60.0800 316.0000 1.0000
60.1000 299.0000 1.0000
60.1200 298.0000 1.0000
60.1400 259.0000 1.0000
60.1600 245.0000 1.0000
60.1800 211.0000 1.0000
60.2000 216.0000 1.0000
60.2200 208.0000 1.0000
60.2400 186.0000 1.0000
60.2600 200.0000 1.0000
60.2800 210.0000 1.0000
60.3000 200.0000 1.0000
60.3200 200.0000 1.0000
60.3400 184.0000 1.0000
60.3600 179.0000 1.0000
60.3800 192.0000 1.0000
60.4000 208.0000 1.0000
60.4200 186.0000 1.0000
60.4400 191.0000 1.0000
60.4600 182.0000 1.0000
60.4800 189.0000 1.0000
60.5000 197.0000 1.0000
60.5200 178.0000 1.0000
60.5400 200.0000 1.0000
60.5600 197.0000 1.0000
60.5800 176.0000 1.0000
60.6000 176.0000 1.0000
60.6200 181.0000 1.0000
60.6400 184.0000 1.0000
60.6600 197.0000 1.0000
60.6800 206.0000 1.0000
60.7000 195.0000 1.0000
60.7200 190.0000 1.0000
60.7400 172.0000 1.0000
60.7600 189.0000 1.0000
60.7800 188.0000 1.0000
60.8000 181.0000 1.0000
60.8200 208.0000 1.0000
60.8400 180.0000 1.0000
60.8600 183.0000 1.0000
60.8800 177.0000 1.0000
60.9000 203.0000 1.0000
60.9200 197.0000 1.0000
60.9400 215.0000 1.0000
60.9600 218.0000 1.0000
60.9800 223.0000 1.0000
61.0000 225.0000 1.0000
61.0200 225.0000 1.0000
61.0400 210.0000 1.0000
61.0600 226.0000 1.0000
61.0800 227.0000 1.0000
61.1000 224.0000 1.0000
61.1200 262.0000 1.0000
61.1400 254.0000 1.0000
61.1600 306.0000 1.0000
61.1800 308.0000 1.0000
61.2000 296.0000 1.0000
61.2200 300.0000 1.0000
61.2400 331.0000 1.0000
61.2600 284.0000 1.0000
61.2800 289.0000 1.0000
61.3000 279.0000 1.0000
61.3200 314.0000 1.0000
61.3400 281.0000 1.0000
61.3600 291.0000 1.0000
61.3800 293.0000 1.0000
61.4000 300.0000 1.0000
61.4200 304.0000 1.0000
61.4400 281.0000 1.0000
61.4600 294.0000 1.0000
61.4800 282.0000 1.0000
61.5000 268.0000 1.0000
61.5200 337.0000 1.0000
61.5400 276.0000 1.0000
61.5600 288.0000 1.0000
61.5800 251.0000 1.0000
61.6000 293.0000 1.0000
61.6200 288.0000 1.0000
61.6400 300.0000 1.0000
61.6600 268.0000 1.0000
61.6800 273.0000 1.0000
61.7000 298.0000 1.0000
61.7200 276.0000 1.0000
61.7400 261.0000 1.0000
61.7600 251.0000 1.0000
61.7800 279.0000 1.0000
61.8000 260.0000 1.0000
61.8200 246.0000 1.0000
61.8400 248.0000 1.0000
61.8600 231.0000 1.0000
61.8800 266.0000 1.0000
61.9000 231.0000 1.0000
61.9200 248.0000 1.0000
61.9400 246.0000 1.0000
61.9600 250.0000 1.0000
61.9800 234.0000 1.0000
62.0000 227.0000 1.0000
62.0200 217.0000 1.0000
62.0400 206.0000 1.0000
62.0600 222.0000 1.0000
62.0800 210.0000 1.0000
62.1000 221.0000 1.0000
62.1200 210.0000 1.0000
62.1400 221.0000 1.0000
62.1600 193.0000 1.0000
62.1800 208.0000 1.0000
62.2000 215.0000 1.0000
62.2200 197.0000 1.0000
62.2400 210.0000 1.0000
62.2600 192.0000 1.0000
62.2800 208.0000 1.0000
62.3000 187.0000 1.0000
62.3200 174.0000 1.0000
62.3400 212.0000 1.0000
62.3600 191.0000 1.0000
62.3800 183.0000 1.0000
62.4000 180.0000 1.0000
62.4200 205.0000 1.0000
62.4400 181.0000 1.0000
62.4600 166.0000 1.0000
62.4800 186.0000 1.0000
62.5000 193.0000 1.0000
62.5200 172.0000 1.0000
62.5400 177.0000 1.0000
62.5600 163.0000 1.0000
62.5800 165.0000 1.0000
62.6000 176.0000 1.0000
62.6200 169.0000 1.0000
62.6400 153.0000 1.0000
62.6600 159.0000 1.0000
62.6800 143.0000 1.0000
62.7000 145.0000 1.0000
62.7200 141.0000 1.0000
62.7400 156.0000 1.0000
62.7600 162.0000 1.0000
62.7800 145.0000 1.0000
62.8000 165.0000 1.0000
62.8200 137.0000 1.0000
62.8400 150.0000 1.0000
62.8600 170.0000 1.0000
62.8800 133.0000 1.0000
62.9000 163.0000 1.0000
62.9200 139.0000 1.0000
62.9400 154.0000 1.0000
62.9600 163.0000 1.0000
62.9800 157.0000 1.0000
63.0000 132.0000 1.0000
63.0200 148.0000 1.0000
63.0400 139.0000 1.0000
63.0600 146.0000 1.0000
63.0800 154.0000 1.0000
63.1000 140.0000 1.0000
63.1200 138.0000 1.0000
63.1400 130.0000 1.0000
63.1600 152.0000 1.0000
63.1800 138.0000 1.0000
63.2000 154.0000 1.0000
63.2200 146.0000 1.0000
63.2400 169.0000 1.0000
63.2600 147.0000 1.0000
63.2800 145.0000 1.0000
63.3000 154.0000 1.0000
63.3200 159.0000 1.0000
63.3400 146.0000 1.0000
63.3600 146.0000 1.0000
63.3800 157.0000 1.0000
63.4000 152.0000 1.0000
63.4200 145.0000 1.0000
63.4400 158.0000 1.0000
63.4600 152.0000 1.0000
63.4800 149.0000 1.0000
63.5000 142.0000 1.0000
63.5200 138.0000 1.0000
63.5400 158.0000 1.0000
63.5600 168.0000 1.0000
63.5800 164.0000 1.0000
63.6000 149.0000 1.0000
63.6200 157.0000 1.0000
63.6400 182.0000 1.0000
63.6600 186.0000 1.0000
63.6800 171.0000 1.0000
63.7000 161.0000 1.0000
63.7200 172.0000 1.0000
63.7400 173.0000 1.0000
63.7600 181.0000 1.0000
63.7800 160.0000 1.0000
63.8000 192.0000 1.0000
63.8200 203.0000 1.0000
63.8400 230.0000 1.0000
63.8600 230.0000 1.0000
63.8800 226.0000 1.0000
63.9000 222.0000 1.0000
63.9200 227.0000 1.0000
63.9400 244.0000 1.0000
63.9600 250.0000 1.0000
63.9800 243.0000 1.0000
64.0000 209.0000 1.0000
64.0200 181.0000 1.0000
64.0400 174.0000 1.0000
64.0600 197.0000 1.0000
64.0800 200.0000 1.0000
64.1000 189.0000 1.0000
64.1200 183.0000 1.0000
64.1400 178.0000 1.0000
64.1600 181.0000 1.0000
64.1800 173.0000 1.0000
64.2000 174.0000 1.0000
64.2200 166.0000 1.0000
64.2400 146.0000 1.0000
64.2600 143.0000 1.0000
64.2800 148.0000 1.0000
64.3000 145.0000 1.0000
64.3200 138.0000 1.0000
64.3400 139.0000 1.0000
64.3600 136.0000 1.0000
64.3800 133.0000 1.0000
64.4000 133.0000 1.0000
64.4200 136.0000 1.0000
64.4400 134.0000 1.0000
64.4600 138.0000 1.0000
64.4800 138.0000 1.0000
64.5000 150.0000 1.0000
64.5200 143.0000 1.0000
64.5400 153.0000 1.0000
64.5600 144.0000 1.0000
64.5800 162.0000 1.0000
64.6000 147.0000 1.0000
64.6200 150.0000 1.0000
64.6400 143.0000 1.0000
64.6600 132.0000 1.0000
64.6800 151.0000 1.0000
64.7000 145.0000 1.0000
64.7200 144.0000 1.0000
64.7400 166.0000 1.0000
64.7600 158.0000 1.0000
64.7800 152.0000 1.0000
64.8000 157.0000 1.0000
64.8200 141.0000 1.0000
64.8400 154.0000 1.0000
64.8600 158.0000 1.0000
64.8800 150.0000 1.0000
64.9000 153.0000 1.0000
64.9200 165.0000 1.0000
64.9400 160.0000 1.0000
64.9600 156.0000 1.0000
64.9800 156.0000 1.0000
65.0000 156.0000 1.0000
*RAS_INT_END
*RAS_DATA_END
