*RAS_DATA_START
*RAS_HEADER_START
*CORR_POS_DB_NAME "Angle Correction ASC6 SC WITH Mono_04082019"
*CORR_POS_GONIO_RADIUS ""
*CORR_POS_NODE_INDEX01 ""
*CORR_POS_NODE_INDEX02 ""
*CORR_POS_NODE_INDEX03 ""
*CORR_POS_NODE_INDEX04 ""
*CORR_POS_NODE_INDEX05 ""
*CORR_POS_NODE_INDEX06 ""
*CORR_POS_NODE_INDEX07 ""
*CORR_POS_NODE_INDEX08 ""
*CORR_POS_NODE_INDEX09 ""
*CORR_POS_NODE_INDEX10 ""
*CORR_POS_NODE_INDEX11 ""
*CORR_POS_NODE_LABEL01 "Si(111)"
*CORR_POS_NODE_LABEL02 "Si(220)"
*CORR_POS_NODE_LABEL03 "Si(311)"
*CORR_POS_NODE_LABEL04 "Si(400)"
*CORR_POS_NODE_LABEL05 "Si(331)"
*CORR_POS_NODE_LABEL06 "Si(422)"
*CORR_POS_NODE_LABEL07 "Si(511)"
*CORR_POS_NODE_LABEL08 "Si(440)"
*CORR_POS_NODE_LABEL09 "Si(531)"
*CORR_POS_NODE_LABEL10 "Si(620)"
*CORR_POS_NODE_LABEL11 "Si(533)"
*CORR_POS_NODE_POS_CALC01 "28.377"
*CORR_POS_NODE_POS_CALC02 "47.2506"
*CORR_POS_NODE_POS_CALC03 "56.0725"
*CORR_POS_NODE_POS_CALC04 "69.0822"
*CORR_POS_NODE_POS_CALC05 "76.3294"
*CORR_POS_NODE_POS_CALC06 "87.9853"
*CORR_POS_NODE_POS_CALC07 "94.9091"
*CORR_POS_NODE_POS_CALC08 "106.668"
*CORR_POS_NODE_POS_CALC09 "114.054"
*CORR_POS_NODE_POS_CALC10 "127.511"
*CORR_POS_NODE_POS_CALC11 "136.864"
*CORR_POS_NODE_POS_MEAS01 "28.5058"
*CORR_POS_NODE_POS_MEAS02 "47.345"
*CORR_POS_NODE_POS_MEAS03 "56.1421"
*CORR_POS_NODE_POS_MEAS04 "69.1304"
*CORR_POS_NODE_POS_MEAS05 "76.366"
*CORR_POS_NODE_POS_MEAS06 "88.0213"
*CORR_POS_NODE_POS_MEAS07 "94.9406"
*CORR_POS_NODE_POS_MEAS08 "106.689"
*CORR_POS_NODE_POS_MEAS09 "114.065"
*CORR_POS_NODE_POS_MEAS10 "127.518"
*CORR_POS_NODE_POS_MEAS11 "136.869"
*CORR_POS_OPT_ATTR "集中法"
*CORR_POS_PARAM_MU ""
*CORR_POS_PARAM_PL ""
*CORR_POS_SEMODEL_TYPE "0"
*CORR_POS_STANDARD_TYPE ""
*CORR_POS_VALUE_ANALYZER "None"
*CORR_POS_VALUE_CMONO "None"
*CORR_POS_VALUE_IMONO "None"
*CORR_POS_VALUE_IS "1.250deg"
*CORR_POS_VALUE_ISL "10.0mm"
*CORR_POS_VALUE_ISOLLER "5.0deg"
*CORR_POS_VALUE_RS1 "1.250deg"
*CORR_POS_VALUE_RS2 "0.3mm"
*CORR_POS_VALUE_RSOLLER "5.0deg"
*CORR_POS_XG_FOCUS_L ""
*CORR_POS_XG_WAVE_TYPE ""
*CORR_POS_XG_WAVE_VALUE ""
*DISP_FMT_X "%.2f"
*DISP_FMT_Y "%.0f"
*DISP_FULLSCALE "4512.6000000000"
*DISP_LINE_COLOR "255.0000000000"
*DISP_LINE_STYLE "0.0000000000"
*DISP_LINE_WIDTH "0.2500000000"
*DISP_NOTE "Collected Data-17"
*DISP_OFFSET_Y "0.0000000000"
*DISP_PEAKSEARCH_UNIT_Y "CPS"
*DISP_RANGE_BOTTOM "0.0000000000"
*DISP_RANGE_LEFT "5.0000000000"
*DISP_RANGE_LOGCUTOFF "0.0100000000"
*DISP_RANGE_RIGHT "65.0000000000"
*DISP_RANGE_TOP "4512.6000000000"
*DISP_SCALE_MODE_Y "0.0000000000"
*DISP_TAB_NAME "Theta/2-Theta"
*DISP_TITLE_Y "Intensity"
*DISP_UNIT_Y "CPS"
*DISP_WINDOW_NAME "MSG_MACROENGINE"
*FILE_COMMENT " "
*FILE_MD5 ""
*FILE_MEMO " "
*FILE_OPERATOR "administrator"
*FILE_PART_ID "MEAS_PBEA_00223"
*FILE_SAMPLE " "
*FILE_TYPE "RAS_RAW"
*FILE_USERGROUP "System Manager"
*FILE_VERSION "1.0000000000"
*HW_ATTACHMENT_ID "ATT1031"
*HW_ATTACHMENT_NAME "6サンプルチェンジャ|ASC-6"
*HW_COUNTER_ID-0 "CUT0021"
*HW_COUNTER_ID-1 "CUT0020"
*HW_COUNTER_ID-2 "CUT0020"
*HW_COUNTER_ID-3 "CMC0021"
*HW_COUNTER_NAME-0 "SC-70|SC-70"
*HW_COUNTER_NAME-1 "None|None"
*HW_COUNTER_NAME-2 "None|None"
*HW_COUNTER_NAME-3 "検出器モノクロメータ|Detector monochromator"
*HW_COUNTER_SELECT_NAME "SC-70|SC-70"
*HW_ECP_HV "671.5000000000"
*HW_ECP_HV_UNIT "V"
*HW_GONIOMETER_ID "GON0070"
*HW_GONIOMETER_NAME "MiniFlex 300/600|MiniFlex 300/600"
*HW_GONIOMETER_RADIUS-0 "79.0"
*HW_GONIOMETER_RADIUS-1 "91.5"
*HW_GONIOMETER_RADIUS-2 "150.0"
*HW_GONIOMETER_RADIUS-3 "0"
*HW_GONIOMETER_RADIUS-4 "103.4"
*HW_GONIOMETER_RADIUS-5 "150.0"
*HW_GONIOMETER_RADIUS-6 "46.6"
*HW_GONIOMETER_RADIUS-7 "160.0"
*HW_I_OPT_ID-0 "ISL0021"
*HW_I_OPT_ID-1 "ISO0021"
*HW_I_OPT_NAME-0 "発散スリット|Divergence slit"
*HW_I_OPT_NAME-1 "入射平行スリット|Incident parallel slit"
*HW_R_ATTENUATER_AUTOMODE "0"
*HW_R_OPT_ID-0 "RSS0021"
*HW_R_OPT_ID-1 "RSO0021"
*HW_R_OPT_ID-2 "RRS0021"
*HW_R_OPT_NAME-0 "散乱スリット|Scattering slit"
*HW_R_OPT_NAME-1 "受光平行スリット|Receiving soller slit"
*HW_R_OPT_NAME-2 "受光スリット|Receiving slit"
*HW_SAMPLE_HOLDER_ID "SMP0000"
*HW_SAMPLE_HOLDER_NAME "無し|None"
*HW_XG_CURRENT_MAX "15"
*HW_XG_CURRENT_MIN "2"
*HW_XG_CURRENT_RESOLUTION "1"
*HW_XG_CURRENT_UNIT "mA"
*HW_XG_FOCUS "1mm x 10mm"
*HW_XG_FOCUS_TYPE "Normal"
*HW_XG_ID "1060"
*HW_XG_NAME "300W/600W 封入管-B|300W/600W Sealed tube-B"
*HW_XG_TARGET_ATOMIC_NUMBER "29.0000000000"
*HW_XG_TARGET_NAME "Cu"
*HW_XG_TYPE "Hermetic"
*HW_XG_VOLTAGE_MAX "40"
*HW_XG_VOLTAGE_MIN "20"
*HW_XG_VOLTAGE_RESOLUTION "1"
*HW_XG_VOLTAGE_UNIT "kV"
*HW_XG_WATT_MAX "0.600"
*HW_XG_WATT_UNIT "kW"
*HW_XG_WAVE_LENGTH_ALPHA1 "1.540593"
*HW_XG_WAVE_LENGTH_ALPHA2 "1.544414"
*HW_XG_WAVE_LENGTH_BETA "1.392250"
*MEAS_COND_AXIS_NAME-0 "Theta/2-Theta"
*MEAS_COND_AXIS_NAME-1 "Spin"
*MEAS_COND_AXIS_NAME-2 "Change"
*MEAS_COND_AXIS_NAME-3 "Soller(inc.)"
*MEAS_COND_AXIS_NAME-4 "IHS"
*MEAS_COND_AXIS_NAME-5 "DS"
*MEAS_COND_AXIS_NAME-6 "SS"
*MEAS_COND_AXIS_NAME-7 "Soller(rec.)"
*MEAS_COND_AXIS_NAME-8 "RS"
*MEAS_COND_AXIS_NAME-9 "Filter"
*MEAS_COND_AXIS_NAME-10 "Monochromator"
*MEAS_COND_AXIS_NAME-11 "HV"
*MEAS_COND_AXIS_NAME-12 "PHA"
*MEAS_COND_AXIS_NAME_INTERNAL-0 "TwoThetaTheta"
*MEAS_COND_AXIS_NAME_INTERNAL-1 "Spin"
*MEAS_COND_AXIS_NAME_INTERNAL-2 "Change"
*MEAS_COND_AXIS_NAME_INTERNAL-3 "IncidentSollerSlit"
*MEAS_COND_AXIS_NAME_INTERNAL-4 "IncidentAxdSlit"
*MEAS_COND_AXIS_NAME_INTERNAL-5 "IncidentSlitBox"
*MEAS_COND_AXIS_NAME_INTERNAL-6 "ReceivingSlitBox1"
*MEAS_COND_AXIS_NAME_INTERNAL-7 "ReceivingSollerSlit"
*MEAS_COND_AXIS_NAME_INTERNAL-8 "ReceivingSlitBox2"
*MEAS_COND_AXIS_NAME_INTERNAL-9 "Filter"
*MEAS_COND_AXIS_NAME_INTERNAL-10 "CounterMonochromator"
*MEAS_COND_AXIS_NAME_INTERNAL-11 "HV"
*MEAS_COND_AXIS_NAME_INTERNAL-12 "PHA"
*MEAS_COND_AXIS_NAME_MAGICNO-0 "268632064.0000000000"
*MEAS_COND_AXIS_NAME_MAGICNO-1 "16842752.0000000000"
*MEAS_COND_AXIS_NAME_MAGICNO-2 "16842752.0000000000"
*MEAS_COND_AXIS_NAME_MAGICNO-3 "20971521.0000000000"
*MEAS_COND_AXIS_NAME_MAGICNO-4 "22020097.0000000000"
*MEAS_COND_AXIS_NAME_MAGICNO-5 "22020097.0000000000"
*MEAS_COND_AXIS_NAME_MAGICNO-6 "23068673.0000000000"
*MEAS_COND_AXIS_NAME_MAGICNO-7 "20971521.0000000000"
*MEAS_COND_AXIS_NAME_MAGICNO-8 "23068673.0000000000"
*MEAS_COND_AXIS_NAME_MAGICNO-9 "20971521.0000000000"
*MEAS_COND_AXIS_NAME_MAGICNO-10 "20971521.0000000000"
*MEAS_COND_AXIS_NAME_MAGICNO-11 "0.0000000000"
*MEAS_COND_AXIS_NAME_MAGICNO-12 "0.0000000000"
*MEAS_COND_AXIS_OFFSET-0 "0.0000000000"
*MEAS_COND_AXIS_OFFSET-1 "-"
*MEAS_COND_AXIS_OFFSET-2 "-"
*MEAS_COND_AXIS_OFFSET-3 "-"
*MEAS_COND_AXIS_OFFSET-4 "-"
*MEAS_COND_AXIS_OFFSET-5 "-"
*MEAS_COND_AXIS_OFFSET-6 "-"
*MEAS_COND_AXIS_OFFSET-7 "-"
*MEAS_COND_AXIS_OFFSET-8 "-"
*MEAS_COND_AXIS_OFFSET-9 "-"
*MEAS_COND_AXIS_OFFSET-10 "-"
*MEAS_COND_AXIS_OFFSET-11 "-"
*MEAS_COND_AXIS_OFFSET-12 "-"
*MEAS_COND_AXIS_POSITION-0 "10.0000000000"
*MEAS_COND_AXIS_POSITION-1 "0.0000000000"
*MEAS_COND_AXIS_POSITION-2 "1.0000000000"
*MEAS_COND_AXIS_POSITION-3 "5.0deg"
*MEAS_COND_AXIS_POSITION-4 "10.0mm"
*MEAS_COND_AXIS_POSITION-5 "1.250deg"
*MEAS_COND_AXIS_POSITION-6 "1.250deg"
*MEAS_COND_AXIS_POSITION-7 "5.0deg"
*MEAS_COND_AXIS_POSITION-8 "0.3mm"
*MEAS_COND_AXIS_POSITION-9 "None"
*MEAS_COND_AXIS_POSITION-10 "Bent"
*MEAS_COND_AXIS_POSITION-11 "671.5000000000"
*MEAS_COND_AXIS_POSITION-12 "551.2500000000"
*MEAS_COND_AXIS_UNIT-0 "deg"
*MEAS_COND_AXIS_UNIT-1 ""
*MEAS_COND_AXIS_UNIT-2 ""
*MEAS_COND_AXIS_UNIT-3 ""
*MEAS_COND_AXIS_UNIT-4 ""
*MEAS_COND_AXIS_UNIT-5 ""
*MEAS_COND_AXIS_UNIT-6 ""
*MEAS_COND_AXIS_UNIT-7 ""
*MEAS_COND_AXIS_UNIT-8 ""
*MEAS_COND_AXIS_UNIT-9 ""
*MEAS_COND_AXIS_UNIT-10 ""
*MEAS_COND_AXIS_UNIT-11 "V"
*MEAS_COND_AXIS_UNIT-12 "mV"
*MEAS_COND_CORRECTION_SLIT_COUNTERMONO "None"
*MEAS_COND_CORRECTION_SLIT_DS "1.250deg"
*MEAS_COND_CORRECTION_SLIT_FILTER "None"
*MEAS_COND_CORRECTION_SLIT_IHS "10.0mm"
*MEAS_COND_CORRECTION_SLIT_RS "0.3mm"
*MEAS_COND_CORRECTION_SLIT_SOLLER_INC "5.0deg"
*MEAS_COND_CORRECTION_SLIT_SOLLER_REC "5.0deg"
*MEAS_COND_CORRECTION_SLIT_SS "1.250deg"
*MEAS_COND_COUNTER_CNTLOSS_CORR "0.0000000000"
*MEAS_COND_COUNTER_PHABASE "551.2500000000"
*MEAS_COND_COUNTER_PHAWINDOW "926.2500000000"
*MEAS_COND_COUNTER_PHA_UNIT "mV"
*MEAS_COND_COUNTER_TAUDIFF "0.2500000000"
*MEAS_COND_COUNTER_TAUINT "0.7500000000"
*MEAS_COND_IRRADIATION_MODE "OFF"
*MEAS_COND_IRRADIATION_WIDTH ""
*MEAS_COND_OPT_ATTR " "
*MEAS_COND_OPT_NAME ""
*MEAS_COND_UNSYMMETRIC_MODE "OFF"
*MEAS_COND_XG_CURRENT "15.0000000000"
*MEAS_COND_XG_VOLTAGE "40.0000000000"
*MEAS_COND_XG_WAVE_TYPE "Ka"
*MEAS_DATA_COUNT "3001.0000000000"
*MEAS_SCAN_AXIS_X "Theta/2-Theta"
*MEAS_SCAN_AXIS_X_INTERNAL "TwoThetaTheta"
*MEAS_SCAN_END_TIME "06/10/25 13:51:37"
*MEAS_SCAN_MODE "STEP"
*MEAS_SCAN_MONITOR "0"
*MEAS_SCAN_RESOLUTION_X "0.0025"
*MEAS_SCAN_SPEED "2.00"
*MEAS_SCAN_SPEED_UNIT "sec."
*MEAS_SCAN_SPEED_USER "2.00"
*MEAS_SCAN_START "5.0000000000"
*MEAS_SCAN_START_TIME "06/10/25 12:06:27"
*MEAS_SCAN_STEP "0.0200000000"
*MEAS_SCAN_STOP "65.0000000000"
*MEAS_SCAN_UNIT_X "deg"
*MEAS_SCAN_UNIT_Y "counts"
*SLIT_SYSTEM "0"
*RAS_HEADER_END
*RAS_INT_START
5.0000 896.0000 1.0000
5.0200 1008.0000 1.0000
5.0400 941.0000 1.0000
5.0600 1015.0000 1.0000
5.0800 886.0000 1.0000
5.1000 996.0000 1.0000
5.1200 1036.0000 1.0000
5.1400 992.0000 1.0000
5.1600 869.0000 1.0000
5.1800 955.0000 1.0000
5.2000 851.0000 1.0000
5.2200 937.0000 1.0000
5.2400 991.0000 1.0000
5.2600 962.0000 1.0000
5.2800 835.0000 1.0000
5.3000 895.0000 1.0000
5.3200 825.0000 1.0000
5.3400 913.0000 1.0000
5.3600 927.0000 1.0000
5.3800 899.0000 1.0000
5.4000 882.0000 1.0000
5.4200 882.0000 1.0000
5.4400 889.0000 1.0000
5.4600 876.0000 1.0000
5.4800 876.0000 1.0000
5.5000 835.0000 1.0000
5.5200 903.0000 1.0000
5.5400 930.0000 1.0000
5.5600 890.0000 1.0000
5.5800 954.0000 1.0000
5.6000 854.0000 1.0000
5.6200 881.0000 1.0000
5.6400 851.0000 1.0000
5.6600 861.0000 1.0000
5.6800 865.0000 1.0000
5.7000 849.0000 1.0000
5.7200 777.0000 1.0000
5.7400 859.0000 1.0000
5.7600 775.0000 1.0000
5.7800 850.0000 1.0000
5.8000 898.0000 1.0000
5.8200 831.0000 1.0000
5.8400 844.0000 1.0000
5.8600 857.0000 1.0000
5.8800 896.0000 1.0000
5.9000 893.0000 1.0000
5.9200 830.0000 1.0000
5.9400 824.0000 1.0000
5.9600 837.0000 1.0000
5.9800 824.0000 1.0000
6.0000 840.0000 1.0000
6.0200 828.0000 1.0000
6.0400 832.0000 1.0000
6.0600 884.0000 1.0000
6.0800 845.0000 1.0000
6.1000 824.0000 1.0000
6.1200 781.0000 1.0000
6.1400 779.0000 1.0000
6.1600 785.0000 1.0000
6.1800 731.0000 1.0000
6.2000 723.0000 1.0000
6.2200 736.0000 1.0000
6.2400 775.0000 1.0000
6.2600 755.0000 1.0000
6.2800 696.0000 1.0000
6.3000 741.0000 1.0000
6.3200 727.0000 1.0000
6.3400 739.0000 1.0000
6.3600 731.0000 1.0000
6.3800 679.0000 1.0000
6.4000 683.0000 1.0000
6.4200 655.0000 1.0000
6.4400 615.0000 1.0000
6.4600 679.0000 1.0000
6.4800 744.0000 1.0000
6.5000 718.0000 1.0000
6.5200 673.0000 1.0000
6.5400 628.0000 1.0000
6.5600 663.0000 1.0000
6.5800 670.0000 1.0000
6.6000 665.0000 1.0000
6.6200 632.0000 1.0000
6.6400 616.0000 1.0000
6.6600 634.0000 1.0000
6.6800 624.0000 1.0000
6.7000 583.0000 1.0000
6.7200 581.0000 1.0000
6.7400 621.0000 1.0000
6.7600 597.0000 1.0000
6.7800 609.0000 1.0000
6.8000 621.0000 1.0000
6.8200 581.0000 1.0000
6.8400 609.0000 1.0000
6.8600 607.0000 1.0000
6.8800 603.0000 1.0000
6.9000 598.0000 1.0000
6.9200 556.0000 1.0000
6.9400 560.0000 1.0000
6.9600 590.0000 1.0000
6.9800 578.0000 1.0000
7.0000 574.0000 1.0000
7.0200 564.0000 1.0000
7.0400 494.0000 1.0000
7.0600 500.0000 1.0000
7.0800 554.0000 1.0000
7.1000 550.0000 1.0000
7.1200 538.0000 1.0000
7.1400 510.0000 1.0000
7.1600 501.0000 1.0000
7.1800 559.0000 1.0000
7.2000 573.0000 1.0000
7.2200 510.0000 1.0000
7.2400 462.0000 1.0000
7.2600 499.0000 1.0000
7.2800 564.0000 1.0000
7.3000 512.0000 1.0000
7.3200 449.0000 1.0000
7.3400 473.0000 1.0000
7.3600 503.0000 1.0000
7.3800 529.0000 1.0000
7.4000 535.0000 1.0000
7.4200 504.0000 1.0000
7.4400 490.0000 1.0000
7.4600 481.0000 1.0000
7.4800 470.0000 1.0000
7.5000 491.0000 1.0000
7.5200 499.0000 1.0000
7.5400 513.0000 1.0000
7.5600 511.0000 1.0000
7.5800 473.0000 1.0000
7.6000 494.0000 1.0000
7.6200 510.0000 1.0000
7.6400 528.0000 1.0000
7.6600 517.0000 1.0000
7.6800 472.0000 1.0000
7.7000 463.0000 1.0000
7.7200 445.0000 1.0000
7.7400 427.0000 1.0000
7.7600 462.0000 1.0000
7.7800 492.0000 1.0000
7.8000 481.0000 1.0000
7.8200 480.0000 1.0000
7.8400 481.0000 1.0000
7.8600 485.0000 1.0000
7.8800 462.0000 1.0000
7.9000 464.0000 1.0000
7.9200 439.0000 1.0000
7.9400 452.0000 1.0000
7.9600 453.0000 1.0000
7.9800 461.0000 1.0000
8.0000 448.0000 1.0000
8.0200 445.0000 1.0000
8.0400 516.0000 1.0000
8.0600 512.0000 1.0000
8.0800 474.0000 1.0000
8.1000 464.0000 1.0000
8.1200 479.0000 1.0000
8.1400 468.0000 1.0000
8.1600 474.0000 1.0000
8.1800 475.0000 1.0000
8.2000 478.0000 1.0000
8.2200 466.0000 1.0000
8.2400 526.0000 1.0000
8.2600 532.0000 1.0000
8.2800 510.0000 1.0000
8.3000 482.0000 1.0000
8.3200 436.0000 1.0000
8.3400 466.0000 1.0000
8.3600 503.0000 1.0000
8.3800 562.0000 1.0000
8.4000 563.0000 1.0000
8.4200 504.0000 1.0000
8.4400 507.0000 1.0000
8.4600 550.0000 1.0000
8.4800 527.0000 1.0000
8.5000 569.0000 1.0000
8.5200 599.0000 1.0000
8.5400 606.0000 1.0000
8.5600 613.0000 1.0000
8.5800 645.0000 1.0000
8.6000 734.0000 1.0000
8.6200 735.0000 1.0000
8.6400 716.0000 1.0000
8.6600 753.0000 1.0000
8.6800 734.0000 1.0000
8.7000 698.0000 1.0000
8.7200 714.0000 1.0000
8.7400 680.0000 1.0000
8.7600 629.0000 1.0000
8.7800 568.0000 1.0000
8.8000 527.0000 1.0000
8.8200 475.0000 1.0000
8.8400 471.0000 1.0000
8.8600 384.0000 1.0000
8.8800 364.0000 1.0000
8.9000 449.0000 1.0000
8.9200 400.0000 1.0000
8.9400 355.0000 1.0000
8.9600 396.0000 1.0000
8.9800 383.0000 1.0000
9.0000 374.0000 1.0000
9.0200 377.0000 1.0000
9.0400 349.0000 1.0000
9.0600 338.0000 1.0000
9.0800 335.0000 1.0000
9.1000 353.0000 1.0000
9.1200 365.0000 1.0000
9.1400 352.0000 1.0000
9.1600 375.0000 1.0000
9.1800 373.0000 1.0000
9.2000 386.0000 1.0000
9.2200 401.0000 1.0000
9.2400 374.0000 1.0000
9.2600 349.0000 1.0000
9.2800 322.0000 1.0000
9.3000 295.0000 1.0000
9.3200 333.0000 1.0000
9.3400 314.0000 1.0000
9.3600 299.0000 1.0000
9.3800 329.0000 1.0000
9.4000 318.0000 1.0000
9.4200 313.0000 1.0000
9.4400 307.0000 1.0000
9.4600 263.0000 1.0000
9.4800 302.0000 1.0000
9.5000 311.0000 1.0000
9.5200 298.0000 1.0000
9.5400 327.0000 1.0000
9.5600 282.0000 1.0000
9.5800 297.0000 1.0000
9.6000 292.0000 1.0000
9.6200 286.0000 1.0000
9.6400 289.0000 1.0000
9.6600 288.0000 1.0000
9.6800 272.0000 1.0000
9.7000 285.0000 1.0000
9.7200 263.0000 1.0000
9.7400 259.0000 1.0000
9.7600 278.0000 1.0000
9.7800 277.0000 1.0000
9.8000 242.0000 1.0000
9.8200 247.0000 1.0000
9.8400 260.0000 1.0000
9.8600 265.0000 1.0000
9.8800 255.0000 1.0000
9.9000 227.0000 1.0000
9.9200 277.0000 1.0000
9.9400 229.0000 1.0000
9.9600 250.0000 1.0000
9.9800 249.0000 1.0000
10.0000 260.0000 1.0000
10.0200 270.0000 1.0000
10.0400 244.0000 1.0000
10.0600 271.0000 1.0000
10.0800 258.0000 1.0000
10.1000 224.0000 1.0000
10.1200 244.0000 1.0000
10.1400 269.0000 1.0000
10.1600 256.0000 1.0000
10.1800 261.0000 1.0000
10.2000 246.0000 1.0000
10.2200 249.0000 1.0000
10.2400 245.0000 1.0000
10.2600 242.0000 1.0000
10.2800 295.0000 1.0000
10.3000 278.0000 1.0000
10.3200 266.0000 1.0000
10.3400 260.0000 1.0000
10.3600 263.0000 1.0000
10.3800 225.0000 1.0000
10.4000 257.0000 1.0000
10.4200 226.0000 1.0000
10.4400 226.0000 1.0000
10.4600 234.0000 1.0000
10.4800 260.0000 1.0000
10.5000 233.0000 1.0000
10.5200 213.0000 1.0000
10.5400 216.0000 1.0000
10.5600 243.0000 1.0000
10.5800 207.0000 1.0000
10.6000 217.0000 1.0000
10.6200 197.0000 1.0000
10.6400 214.0000 1.0000
10.6600 182.0000 1.0000
10.6800 243.0000 1.0000
10.7000 185.0000 1.0000
10.7200 202.0000 1.0000
10.7400 186.0000 1.0000
10.7600 202.0000 1.0000
10.7800 232.0000 1.0000
10.8000 213.0000 1.0000
10.8200 192.0000 1.0000
10.8400 204.0000 1.0000
10.8600 213.0000 1.0000
10.8800 218.0000 1.0000
10.9000 175.0000 1.0000
10.9200 243.0000 1.0000
10.9400 226.0000 1.0000
10.9600 183.0000 1.0000
10.9800 233.0000 1.0000
11.0000 212.0000 1.0000
11.0200 180.0000 1.0000
11.0400 208.0000 1.0000
11.0600 193.0000 1.0000
11.0800 194.0000 1.0000
11.1000 204.0000 1.0000
11.1200 195.0000 1.0000
11.1400 213.0000 1.0000
11.1600 166.0000 1.0000
11.1800 196.0000 1.0000
11.2000 185.0000 1.0000
11.2200 197.0000 1.0000
11.2400 205.0000 1.0000
11.2600 193.0000 1.0000
11.2800 202.0000 1.0000
11.3000 172.0000 1.0000
11.3200 198.0000 1.0000
11.3400 201.0000 1.0000
11.3600 196.0000 1.0000
11.3800 174.0000 1.0000
11.4000 190.0000 1.0000
11.4200 162.0000 1.0000
11.4400 199.0000 1.0000
11.4600 188.0000 1.0000
11.4800 171.0000 1.0000
11.5000 190.0000 1.0000
11.5200 213.0000 1.0000
11.5400 177.0000 1.0000
11.5600 201.0000 1.0000
11.5800 187.0000 1.0000
11.6000 166.0000 1.0000
11.6200 209.0000 1.0000
11.6400 194.0000 1.0000
11.6600 186.0000 1.0000
11.6800 231.0000 1.0000
11.7000 209.0000 1.0000
11.7200 185.0000 1.0000
11.7400 198.0000 1.0000
11.7600 170.0000 1.0000
11.7800 184.0000 1.0000
11.8000 176.0000 1.0000
11.8200 199.0000 1.0000
11.8400 202.0000 1.0000
11.8600 188.0000 1.0000
11.8800 181.0000 1.0000
11.9000 217.0000 1.0000
11.9200 224.0000 1.0000
11.9400 200.0000 1.0000
11.9600 228.0000 1.0000
11.9800 197.0000 1.0000
12.0000 195.0000 1.0000
12.0200 208.0000 1.0000
12.0400 219.0000 1.0000
12.0600 220.0000 1.0000
12.0800 234.0000 1.0000
12.1000 257.0000 1.0000
12.1200 279.0000 1.0000
12.1400 277.0000 1.0000
12.1600 254.0000 1.0000
12.1800 244.0000 1.0000
12.2000 259.0000 1.0000
12.2200 292.0000 1.0000
12.2400 266.0000 1.0000
12.2600 307.0000 1.0000
12.2800 305.0000 1.0000
12.3000 304.0000 1.0000
12.3200 336.0000 1.0000
12.3400 321.0000 1.0000
12.3600 309.0000 1.0000
12.3800 299.0000 1.0000
12.4000 272.0000 1.0000
12.4200 282.0000 1.0000
12.4400 266.0000 1.0000
12.4600 237.0000 1.0000
12.4800 213.0000 1.0000
12.5000 220.0000 1.0000
12.5200 184.0000 1.0000
12.5400 191.0000 1.0000
12.5600 152.0000 1.0000
12.5800 152.0000 1.0000
12.6000 168.0000 1.0000
12.6200 172.0000 1.0000
12.6400 170.0000 1.0000
12.6600 164.0000 1.0000
12.6800 165.0000 1.0000
12.7000 187.0000 1.0000
12.7200 190.0000 1.0000
12.7400 162.0000 1.0000
12.7600 169.0000 1.0000
12.7800 167.0000 1.0000
12.8000 159.0000 1.0000
12.8200 161.0000 1.0000
12.8400 147.0000 1.0000
12.8600 160.0000 1.0000
12.8800 157.0000 1.0000
12.9000 155.0000 1.0000
12.9200 139.0000 1.0000
12.9400 150.0000 1.0000
12.9600 163.0000 1.0000
12.9800 151.0000 1.0000
13.0000 141.0000 1.0000
13.0200 142.0000 1.0000
13.0400 126.0000 1.0000
13.0600 145.0000 1.0000
13.0800 152.0000 1.0000
13.1000 150.0000 1.0000
13.1200 157.0000 1.0000
13.1400 155.0000 1.0000
13.1600 145.0000 1.0000
13.1800 166.0000 1.0000
13.2000 163.0000 1.0000
13.2200 164.0000 1.0000
13.2400 174.0000 1.0000
13.2600 161.0000 1.0000
13.2800 139.0000 1.0000
13.3000 166.0000 1.0000
13.3200 195.0000 1.0000
13.3400 192.0000 1.0000
13.3600 197.0000 1.0000
13.3800 221.0000 1.0000
13.4000 218.0000 1.0000
13.4200 195.0000 1.0000
13.4400 206.0000 1.0000
13.4600 257.0000 1.0000
13.4800 250.0000 1.0000
13.5000 254.0000 1.0000
13.5200 257.0000 1.0000
13.5400 245.0000 1.0000
13.5600 230.0000 1.0000
13.5800 227.0000 1.0000
13.6000 227.0000 1.0000
13.6200 235.0000 1.0000
13.6400 229.0000 1.0000
13.6600 237.0000 1.0000
13.6800 242.0000 1.0000
13.7000 244.0000 1.0000
13.7200 231.0000 1.0000
13.7400 221.0000 1.0000
13.7600 197.0000 1.0000
13.7800 193.0000 1.0000
13.8000 171.0000 1.0000
13.8200 172.0000 1.0000
13.8400 170.0000 1.0000
13.8600 163.0000 1.0000
13.8800 150.0000 1.0000
13.9000 149.0000 1.0000
13.9200 152.0000 1.0000
13.9400 157.0000 1.0000
13.9600 150.0000 1.0000
13.9800 135.0000 1.0000
14.0000 134.0000 1.0000
14.0200 128.0000 1.0000
14.0400 119.0000 1.0000
14.0600 144.0000 1.0000
14.0800 148.0000 1.0000
14.1000 129.0000 1.0000
14.1200 118.0000 1.0000
14.1400 115.0000 1.0000
14.1600 128.0000 1.0000
14.1800 127.0000 1.0000
14.2000 148.0000 1.0000
14.2200 140.0000 1.0000
14.2400 120.0000 1.0000
14.2600 116.0000 1.0000
14.2800 122.0000 1.0000
14.3000 131.0000 1.0000
14.3200 127.0000 1.0000
14.3400 128.0000 1.0000
14.3600 145.0000 1.0000
14.3800 148.0000 1.0000
14.4000 135.0000 1.0000
14.4200 121.0000 1.0000
14.4400 115.0000 1.0000
14.4600 135.0000 1.0000
14.4800 142.0000 1.0000
14.5000 139.0000 1.0000
14.5200 131.0000 1.0000
14.5400 109.0000 1.0000
14.5600 108.0000 1.0000
14.5800 127.0000 1.0000
14.6000 122.0000 1.0000
14.6200 118.0000 1.0000
14.6400 120.0000 1.0000
14.6600 120.0000 1.0000
14.6800 135.0000 1.0000
14.7000 148.0000 1.0000
14.7200 145.0000 1.0000
14.7400 140.0000 1.0000
14.7600 124.0000 1.0000
14.7800 119.0000 1.0000
14.8000 140.0000 1.0000
14.8200 155.0000 1.0000
14.8400 155.0000 1.0000
14.8600 152.0000 1.0000
14.8800 145.0000 1.0000
14.9000 142.0000 1.0000
14.9200 157.0000 1.0000
14.9400 173.0000 1.0000
14.9600 154.0000 1.0000
14.9800 136.0000 1.0000
15.0000 144.0000 1.0000
15.0200 130.0000 1.0000
15.0400 122.0000 1.0000
15.0600 139.0000 1.0000
15.0800 151.0000 1.0000
15.1000 154.0000 1.0000
15.1200 149.0000 1.0000
15.1400 129.0000 1.0000
15.1600 120.0000 1.0000
15.1800 132.0000 1.0000
15.2000 129.0000 1.0000
15.2200 122.0000 1.0000
15.2400 114.0000 1.0000
15.2600 119.0000 1.0000
15.2800 125.0000 1.0000
15.3000 114.0000 1.0000
15.3200 120.0000 1.0000
15.3400 118.0000 1.0000
15.3600 107.0000 1.0000
15.3800 119.0000 1.0000
15.4000 124.0000 1.0000
15.4200 128.0000 1.0000
15.4400 127.0000 1.0000
15.4600 116.0000 1.0000
15.4800 123.0000 1.0000
15.5000 128.0000 1.0000
15.5200 124.0000 1.0000
15.5400 124.0000 1.0000
15.5600 123.0000 1.0000
15.5800 125.0000 1.0000
15.6000 128.0000 1.0000
15.6200 120.0000 1.0000
15.6400 126.0000 1.0000
15.6600 128.0000 1.0000
15.6800 121.0000 1.0000
15.7000 122.0000 1.0000
15.7200 117.0000 1.0000
15.7400 101.0000 1.0000
15.7600 97.0000 1.0000
15.7800 103.0000 1.0000
15.8000 107.0000 1.0000
15.8200 118.0000 1.0000
15.8400 127.0000 1.0000
15.8600 115.0000 1.0000
15.8800 107.0000 1.0000
15.9000 118.0000 1.0000
15.9200 120.0000 1.0000
15.9400 103.0000 1.0000
15.9600 106.0000 1.0000
15.9800 117.0000 1.0000
16.0000 117.0000 1.0000
16.0200 104.0000 1.0000
16.0400 99.0000 1.0000
16.0600 113.0000 1.0000
16.0800 112.0000 1.0000
16.1000 112.0000 1.0000
16.1200 120.0000 1.0000
16.1400 110.0000 1.0000
16.1600 107.0000 1.0000
16.1800 105.0000 1.0000
16.2000 114.0000 1.0000
16.2200 127.0000 1.0000
16.2400 120.0000 1.0000
16.2600 111.0000 1.0000
16.2800 108.0000 1.0000
16.3000 115.0000 1.0000
16.3200 124.0000 1.0000
16.3400 122.0000 1.0000
16.3600 115.0000 1.0000
16.3800 112.0000 1.0000
16.4000 121.0000 1.0000
16.4200 119.0000 1.0000
16.4400 119.0000 1.0000
16.4600 110.0000 1.0000
16.4800 109.0000 1.0000
16.5000 118.0000 1.0000
16.5200 130.0000 1.0000
16.5400 126.0000 1.0000
16.5600 118.0000 1.0000
16.5800 103.0000 1.0000
16.6000 105.0000 1.0000
16.6200 124.0000 1.0000
16.6400 124.0000 1.0000
16.6600 125.0000 1.0000
16.6800 117.0000 1.0000
16.7000 110.0000 1.0000
16.7200 103.0000 1.0000
16.7400 123.0000 1.0000
16.7600 137.0000 1.0000
16.7800 124.0000 1.0000
16.8000 117.0000 1.0000
16.8200 120.0000 1.0000
16.8400 121.0000 1.0000
16.8600 133.0000 1.0000
16.8800 122.0000 1.0000
16.9000 110.0000 1.0000
16.9200 115.0000 1.0000
16.9400 126.0000 1.0000
16.9600 122.0000 1.0000
16.9800 119.0000 1.0000
17.0000 109.0000 1.0000
17.0200 101.0000 1.0000
17.0400 119.0000 1.0000
17.0600 125.0000 1.0000
17.0800 109.0000 1.0000
17.1000 116.0000 1.0000
17.1200 120.0000 1.0000
17.1400 119.0000 1.0000
17.1600 115.0000 1.0000
17.1800 109.0000 1.0000
17.2000 105.0000 1.0000
17.2200 121.0000 1.0000
17.2400 130.0000 1.0000
17.2600 130.0000 1.0000
17.2800 124.0000 1.0000
17.3000 120.0000 1.0000
17.3200 144.0000 1.0000
17.3400 138.0000 1.0000
17.3600 132.0000 1.0000
17.3800 150.0000 1.0000
17.4000 140.0000 1.0000
17.4200 139.0000 1.0000
17.4400 164.0000 1.0000
17.4600 146.0000 1.0000
17.4800 168.0000 1.0000
17.5000 157.0000 1.0000
17.5200 168.0000 1.0000
17.5400 166.0000 1.0000
17.5600 169.0000 1.0000
17.5800 163.0000 1.0000
17.6000 166.0000 1.0000
17.6200 169.0000 1.0000
17.6400 148.0000 1.0000
17.6600 156.0000 1.0000
17.6800 145.0000 1.0000
17.7000 135.0000 1.0000
17.7200 143.0000 1.0000
17.7400 142.0000 1.0000
17.7600 143.0000 1.0000
17.7800 138.0000 1.0000
17.8000 129.0000 1.0000
17.8200 123.0000 1.0000
17.8400 136.0000 1.0000
17.8600 127.0000 1.0000
17.8800 128.0000 1.0000
17.9000 124.0000 1.0000
17.9200 119.0000 1.0000
17.9400 113.0000 1.0000
17.9600 122.0000 1.0000
17.9800 129.0000 1.0000
18.0000 130.0000 1.0000
18.0200 129.0000 1.0000
18.0400 113.0000 1.0000
18.0600 117.0000 1.0000
18.0800 112.0000 1.0000
18.1000 107.0000 1.0000
18.1200 125.0000 1.0000
18.1400 118.0000 1.0000
18.1600 126.0000 1.0000
18.1800 129.0000 1.0000
18.2000 119.0000 1.0000
18.2200 131.0000 1.0000
18.2400 130.0000 1.0000
18.2600 127.0000 1.0000
18.2800 106.0000 1.0000
18.3000 123.0000 1.0000
18.3200 145.0000 1.0000
18.3400 118.0000 1.0000
18.3600 130.0000 1.0000
18.3800 130.0000 1.0000
18.4000 134.0000 1.0000
18.4200 136.0000 1.0000
18.4400 130.0000 1.0000
18.4600 154.0000 1.0000
18.4800 132.0000 1.0000
18.5000 129.0000 1.0000
18.5200 118.0000 1.0000
18.5400 147.0000 1.0000
18.5600 167.0000 1.0000
18.5800 144.0000 1.0000
18.6000 160.0000 1.0000
18.6200 175.0000 1.0000
18.6400 170.0000 1.0000
18.6600 157.0000 1.0000
18.6800 169.0000 1.0000
18.7000 174.0000 1.0000
18.7200 191.0000 1.0000
18.7400 210.0000 1.0000
18.7600 195.0000 1.0000
18.7800 210.0000 1.0000
18.8000 207.0000 1.0000
18.8200 180.0000 1.0000
18.8400 184.0000 1.0000
18.8600 192.0000 1.0000
18.8800 169.0000 1.0000
18.9000 155.0000 1.0000
18.9200 162.0000 1.0000
18.9400 157.0000 1.0000
18.9600 154.0000 1.0000
18.9800 154.0000 1.0000
19.0000 176.0000 1.0000
19.0200 185.0000 1.0000
19.0400 185.0000 1.0000
19.0600 176.0000 1.0000
19.0800 176.0000 1.0000
19.1000 190.0000 1.0000
19.1200 172.0000 1.0000
19.1400 187.0000 1.0000
19.1600 205.0000 1.0000
19.1800 199.0000 1.0000
19.2000 225.0000 1.0000
19.2200 205.0000 1.0000
19.2400 178.0000 1.0000
19.2600 226.0000 1.0000
19.2800 200.0000 1.0000
19.3000 192.0000 1.0000
19.3200 177.0000 1.0000
19.3400 174.0000 1.0000
19.3600 186.0000 1.0000
19.3800 181.0000 1.0000
19.4000 175.0000 1.0000
19.4200 183.0000 1.0000
19.4400 191.0000 1.0000
19.4600 194.0000 1.0000
19.4800 189.0000 1.0000
19.5000 206.0000 1.0000
19.5200 250.0000 1.0000
19.5400 254.0000 1.0000
19.5600 258.0000 1.0000
19.5800 253.0000 1.0000
19.6000 260.0000 1.0000
19.6200 280.0000 1.0000
19.6400 288.0000 1.0000
19.6600 298.0000 1.0000
19.6800 316.0000 1.0000
19.7000 326.0000 1.0000
19.7200 334.0000 1.0000
19.7400 318.0000 1.0000
19.7600 313.0000 1.0000
19.7800 284.0000 1.0000
19.8000 286.0000 1.0000
19.8200 263.0000 1.0000
19.8400 255.0000 1.0000
19.8600 242.0000 1.0000
19.8800 233.0000 1.0000
19.9000 239.0000 1.0000
19.9200 242.0000 1.0000
19.9400 235.0000 1.0000
19.9600 209.0000 1.0000
19.9800 245.0000 1.0000
20.0000 211.0000 1.0000
20.0200 210.0000 1.0000
20.0400 217.0000 1.0000
20.0600 186.0000 1.0000
20.0800 160.0000 1.0000
20.1000 171.0000 1.0000
20.1200 177.0000 1.0000
20.1400 196.0000 1.0000
20.1600 180.0000 1.0000
20.1800 165.0000 1.0000
20.2000 224.0000 1.0000
20.2200 196.0000 1.0000
20.2400 180.0000 1.0000
20.2600 210.0000 1.0000
20.2800 211.0000 1.0000
20.3000 197.0000 1.0000
20.3200 205.0000 1.0000
20.3400 220.0000 1.0000
20.3600 193.0000 1.0000
20.3800 224.0000 1.0000
20.4000 244.0000 1.0000
20.4200 239.0000 1.0000
20.4400 258.0000 1.0000
20.4600 283.0000 1.0000
20.4800 273.0000 1.0000
20.5000 308.0000 1.0000
20.5200 344.0000 1.0000
20.5400 380.0000 1.0000
20.5600 415.0000 1.0000
20.5800 477.0000 1.0000
20.6000 573.0000 1.0000
20.6200 651.0000 1.0000
20.6400 807.0000 1.0000
20.6600 1018.0000 1.0000
20.6800 1253.0000 1.0000
20.7000 1429.0000 1.0000
20.7200 1635.0000 1.0000
20.7400 1693.0000 1.0000
20.7600 1639.0000 1.0000
20.7800 1351.0000 1.0000
20.8000 1084.0000 1.0000
20.8200 807.0000 1.0000
20.8400 597.0000 1.0000
20.8600 459.0000 1.0000
20.8800 364.0000 1.0000
20.9000 353.0000 1.0000
20.9200 286.0000 1.0000
20.9400 246.0000 1.0000
20.9600 291.0000 1.0000
20.9800 252.0000 1.0000
21.0000 254.0000 1.0000
21.0200 224.0000 1.0000
21.0400 208.0000 1.0000
21.0600 194.0000 1.0000
21.0800 197.0000 1.0000
21.1000 210.0000 1.0000
21.1200 179.0000 1.0000
21.1400 186.0000 1.0000
21.1600 170.0000 1.0000
21.1800 169.0000 1.0000
21.2000 195.0000 1.0000
21.2200 185.0000 1.0000
21.2400 179.0000 1.0000
21.2600 150.0000 1.0000
21.2800 160.0000 1.0000
21.3000 185.0000 1.0000
21.3200 169.0000 1.0000
21.3400 182.0000 1.0000
21.3600 159.0000 1.0000
21.3800 182.0000 1.0000
21.4000 184.0000 1.0000
21.4200 181.0000 1.0000
21.4400 183.0000 1.0000
21.4600 192.0000 1.0000
21.4800 188.0000 1.0000
21.5000 199.0000 1.0000
21.5200 187.0000 1.0000
21.5400 174.0000 1.0000
21.5600 179.0000 1.0000
21.5800 191.0000 1.0000
21.6000 198.0000 1.0000
21.6200 225.0000 1.0000
21.6400 253.0000 1.0000
21.6600 246.0000 1.0000
21.6800 240.0000 1.0000
21.7000 268.0000 1.0000
21.7200 340.0000 1.0000
21.7400 386.0000 1.0000
21.7600 459.0000 1.0000
21.7800 484.0000 1.0000
21.8000 558.0000 1.0000
21.8200 585.0000 1.0000
21.8400 640.0000 1.0000
21.8600 669.0000 1.0000
21.8800 608.0000 1.0000
21.9000 558.0000 1.0000
21.9200 486.0000 1.0000
21.9400 435.0000 1.0000
21.9600 350.0000 1.0000
21.9800 330.0000 1.0000
22.0000 242.0000 1.0000
22.0200 215.0000 1.0000
22.0400 223.0000 1.0000
22.0600 186.0000 1.0000
22.0800 159.0000 1.0000
22.1000 178.0000 1.0000
22.1200 186.0000 1.0000
22.1400 172.0000 1.0000
22.1600 178.0000 1.0000
22.1800 160.0000 1.0000
22.2000 150.0000 1.0000
22.2200 148.0000 1.0000
22.2400 173.0000 1.0000
22.2600 161.0000 1.0000
22.2800 187.0000 1.0000
22.3000 169.0000 1.0000
22.3200 157.0000 1.0000
22.3400 170.0000 1.0000
22.3600 162.0000 1.0000
22.3800 157.0000 1.0000
22.4000 174.0000 1.0000
22.4200 193.0000 1.0000
22.4400 182.0000 1.0000
22.4600 179.0000 1.0000
22.4800 187.0000 1.0000
22.5000 186.0000 1.0000
22.5200 177.0000 1.0000
22.5400 179.0000 1.0000
22.5600 180.0000 1.0000
22.5800 188.0000 1.0000
22.6000 215.0000 1.0000
22.6200 206.0000 1.0000
22.6400 211.0000 1.0000
22.6600 252.0000 1.0000
22.6800 224.0000 1.0000
22.7000 215.0000 1.0000
22.7200 239.0000 1.0000
22.7400 210.0000 1.0000
22.7600 213.0000 1.0000
22.7800 203.0000 1.0000
22.8000 219.0000 1.0000
22.8200 256.0000 1.0000
22.8400 207.0000 1.0000
22.8600 206.0000 1.0000
22.8800 186.0000 1.0000
22.9000 176.0000 1.0000
22.9200 182.0000 1.0000
22.9400 188.0000 1.0000
22.9600 197.0000 1.0000
22.9800 198.0000 1.0000
23.0000 186.0000 1.0000
23.0200 171.0000 1.0000
23.0400 179.0000 1.0000
23.0600 175.0000 1.0000
23.0800 161.0000 1.0000
23.1000 191.0000 1.0000
23.1200 198.0000 1.0000
23.1400 179.0000 1.0000
23.1600 188.0000 1.0000
23.1800 189.0000 1.0000
23.2000 207.0000 1.0000
23.2200 204.0000 1.0000
23.2400 224.0000 1.0000
23.2600 232.0000 1.0000
23.2800 254.0000 1.0000
23.3000 266.0000 1.0000
23.3200 296.0000 1.0000
23.3400 336.0000 1.0000
23.3600 392.0000 1.0000
23.3800 432.0000 1.0000
23.4000 460.0000 1.0000
23.4200 530.0000 1.0000
23.4400 512.0000 1.0000
23.4600 572.0000 1.0000
23.4800 568.0000 1.0000
23.5000 584.0000 1.0000
23.5200 595.0000 1.0000
23.5400 556.0000 1.0000
23.5600 527.0000 1.0000
23.5800 491.0000 1.0000
23.6000 420.0000 1.0000
23.6200 372.0000 1.0000
23.6400 338.0000 1.0000
23.6600 317.0000 1.0000
23.6800 301.0000 1.0000
23.7000 269.0000 1.0000
23.7200 272.0000 1.0000
23.7400 248.0000 1.0000
23.7600 235.0000 1.0000
23.7800 230.0000 1.0000
23.8000 234.0000 1.0000
23.8200 219.0000 1.0000
23.8400 221.0000 1.0000
23.8600 232.0000 1.0000
23.8800 221.0000 1.0000
23.9000 237.0000 1.0000
23.9200 266.0000 1.0000
23.9400 251.0000 1.0000
23.9600 260.0000 1.0000
23.9800 291.0000 1.0000
24.0000 287.0000 1.0000
24.0200 277.0000 1.0000
24.0400 315.0000 1.0000
24.0600 317.0000 1.0000
24.0800 332.0000 1.0000
24.1000 332.0000 1.0000
24.1200 336.0000 1.0000
24.1400 378.0000 1.0000
24.1600 353.0000 1.0000
24.1800 372.0000 1.0000
24.2000 408.0000 1.0000
24.2200 399.0000 1.0000
24.2400 373.0000 1.0000
24.2600 388.0000 1.0000
24.2800 431.0000 1.0000
24.3000 416.0000 1.0000
24.3200 396.0000 1.0000
24.3400 390.0000 1.0000
24.3600 391.0000 1.0000
24.3800 350.0000 1.0000
24.4000 350.0000 1.0000
24.4200 330.0000 1.0000
24.4400 315.0000 1.0000
24.4600 286.0000 1.0000
24.4800 276.0000 1.0000
24.5000 249.0000 1.0000
24.5200 230.0000 1.0000
24.5400 205.0000 1.0000
24.5600 190.0000 1.0000
24.5800 186.0000 1.0000
24.6000 189.0000 1.0000
24.6200 208.0000 1.0000
24.6400 192.0000 1.0000
24.6600 179.0000 1.0000
24.6800 187.0000 1.0000
24.7000 174.0000 1.0000
24.7200 160.0000 1.0000
24.7400 162.0000 1.0000
24.7600 165.0000 1.0000
24.7800 169.0000 1.0000
24.8000 193.0000 1.0000
24.8200 202.0000 1.0000
24.8400 194.0000 1.0000
24.8600 207.0000 1.0000
24.8800 207.0000 1.0000
24.9000 210.0000 1.0000
24.9200 207.0000 1.0000
24.9400 216.0000 1.0000
24.9600 239.0000 1.0000
24.9800 259.0000 1.0000
25.0000 255.0000 1.0000
25.0200 275.0000 1.0000
25.0400 255.0000 1.0000
25.0600 241.0000 1.0000
25.0800 255.0000 1.0000
25.1000 247.0000 1.0000
25.1200 251.0000 1.0000
25.1400 241.0000 1.0000
25.1600 278.0000 1.0000
25.1800 293.0000 1.0000
25.2000 277.0000 1.0000
25.2200 305.0000 1.0000
25.2400 317.0000 1.0000
25.2600 342.0000 1.0000
25.2800 365.0000 1.0000
25.3000 448.0000 1.0000
25.3200 519.0000 1.0000
25.3400 588.0000 1.0000
25.3600 682.0000 1.0000
25.3800 874.0000 1.0000
25.4000 1042.0000 1.0000
25.4200 1148.0000 1.0000
25.4400 1269.0000 1.0000
25.4600 1309.0000 1.0000
25.4800 1261.0000 1.0000
25.5000 1158.0000 1.0000
25.5200 964.0000 1.0000
25.5400 794.0000 1.0000
25.5600 680.0000 1.0000
25.5800 568.0000 1.0000
25.6000 476.0000 1.0000
25.6200 381.0000 1.0000
25.6400 349.0000 1.0000
25.6600 337.0000 1.0000
25.6800 294.0000 1.0000
25.7000 263.0000 1.0000
25.7200 240.0000 1.0000
25.7400 243.0000 1.0000
25.7600 250.0000 1.0000
25.7800 262.0000 1.0000
25.8000 271.0000 1.0000
25.8200 249.0000 1.0000
25.8400 237.0000 1.0000
25.8600 241.0000 1.0000
25.8800 247.0000 1.0000
25.9000 250.0000 1.0000
25.9200 254.0000 1.0000
25.9400 270.0000 1.0000
25.9600 277.0000 1.0000
25.9800 283.0000 1.0000
26.0000 302.0000 1.0000
26.0200 313.0000 1.0000
26.0400 318.0000 1.0000
26.0600 328.0000 1.0000
26.0800 372.0000 1.0000
26.1000 379.0000 1.0000
26.1200 393.0000 1.0000
26.1400 439.0000 1.0000
26.1600 475.0000 1.0000
26.1800 499.0000 1.0000
26.2000 548.0000 1.0000
26.2200 601.0000 1.0000
26.2400 704.0000 1.0000
26.2600 801.0000 1.0000
26.2800 935.0000 1.0000
26.3000 1077.0000 1.0000
26.3200 1222.0000 1.0000
26.3400 1527.0000 1.0000
26.3600 1861.0000 1.0000
26.3800 2269.0000 1.0000
26.4000 2776.0000 1.0000
26.4200 3387.0000 1.0000
26.4400 4367.0000 1.0000
26.4600 5549.0000 1.0000
26.4800 6506.0000 1.0000
26.5000 7188.0000 1.0000
26.5200 7521.0000 1.0000
26.5400 7253.0000 1.0000
26.5600 6429.0000 1.0000
26.5800 5280.0000 1.0000
26.6000 4122.0000 1.0000
26.6200 3081.0000 1.0000
26.6400 2228.0000 1.0000
26.6600 1558.0000 1.0000
26.6800 1136.0000 1.0000
26.7000 893.0000 1.0000
26.7200 785.0000 1.0000
26.7400 745.0000 1.0000
26.7600 695.0000 1.0000
26.7800 639.0000 1.0000
26.8000 597.0000 1.0000
26.8200 596.0000 1.0000
26.8400 573.0000 1.0000
26.8600 540.0000 1.0000
26.8800 514.0000 1.0000
26.9000 512.0000 1.0000
26.9200 486.0000 1.0000
26.9400 463.0000 1.0000
26.9600 444.0000 1.0000
26.9800 431.0000 1.0000
27.0000 423.0000 1.0000
27.0200 411.0000 1.0000
27.0400 415.0000 1.0000
27.0600 416.0000 1.0000
27.0800 403.0000 1.0000
27.1000 397.0000 1.0000
27.1200 402.0000 1.0000
27.1400 395.0000 1.0000
27.1600 396.0000 1.0000
27.1800 403.0000 1.0000
27.2000 409.0000 1.0000
27.2200 437.0000 1.0000
27.2400 493.0000 1.0000
27.2600 536.0000 1.0000
27.2800 551.0000 1.0000
27.3000 600.0000 1.0000
27.3200 676.0000 1.0000
27.3400 695.0000 1.0000
27.3600 731.0000 1.0000
27.3800 769.0000 1.0000
27.4000 825.0000 1.0000
27.4200 856.0000 1.0000
27.4400 854.0000 1.0000
27.4600 872.0000 1.0000
27.4800 908.0000 1.0000
27.5000 957.0000 1.0000
27.5200 996.0000 1.0000
27.5400 1013.0000 1.0000
27.5600 1046.0000 1.0000
27.5800 1107.0000 1.0000
27.6000 1201.0000 1.0000
27.6200 1343.0000 1.0000
27.6400 1459.0000 1.0000
27.6600 1553.0000 1.0000
27.6800 1595.0000 1.0000
27.7000 1603.0000 1.0000
27.7200 1580.0000 1.0000
27.7400 1538.0000 1.0000
27.7600 1498.0000 1.0000
27.7800 1469.0000 1.0000
27.8000 1484.0000 1.0000
27.8200 1483.0000 1.0000
27.8400 1523.0000 1.0000
27.8600 1629.0000 1.0000
27.8800 1628.0000 1.0000
27.9000 1600.0000 1.0000
27.9200 1566.0000 1.0000
27.9400 1443.0000 1.0000
27.9600 1262.0000 1.0000
27.9800 1070.0000 1.0000
28.0000 920.0000 1.0000
28.0200 793.0000 1.0000
28.0400 653.0000 1.0000
28.0600 582.0000 1.0000
28.0800 550.0000 1.0000
28.1000 483.0000 1.0000
28.1200 460.0000 1.0000
28.1400 447.0000 1.0000
28.1600 420.0000 1.0000
28.1800 424.0000 1.0000
28.2000 405.0000 1.0000
28.2200 411.0000 1.0000
28.2400 402.0000 1.0000
28.2600 382.0000 1.0000
28.2800 396.0000 1.0000
28.3000 392.0000 1.0000
28.3200 388.0000 1.0000
28.3400 351.0000 1.0000
28.3600 335.0000 1.0000
28.3800 331.0000 1.0000
28.4000 321.0000 1.0000
28.4200 292.0000 1.0000
28.4400 277.0000 1.0000
28.4600 267.0000 1.0000
28.4800 238.0000 1.0000
28.5000 208.0000 1.0000
28.5200 197.0000 1.0000
28.5400 198.0000 1.0000
28.5600 190.0000 1.0000
28.5800 190.0000 1.0000
28.6000 170.0000 1.0000
28.6200 166.0000 1.0000
28.6400 176.0000 1.0000
28.6600 176.0000 1.0000
28.6800 182.0000 1.0000
28.7000 179.0000 1.0000
28.7200 190.0000 1.0000
28.7400 197.0000 1.0000
28.7600 180.0000 1.0000
28.7800 160.0000 1.0000
28.8000 167.0000 1.0000
28.8200 191.0000 1.0000
28.8400 215.0000 1.0000
28.8600 219.0000 1.0000
28.8800 205.0000 1.0000
28.9000 208.0000 1.0000
28.9200 225.0000 1.0000
28.9400 226.0000 1.0000
28.9600 212.0000 1.0000
28.9800 212.0000 1.0000
29.0000 219.0000 1.0000
29.0200 228.0000 1.0000
29.0400 222.0000 1.0000
29.0600 210.0000 1.0000
29.0800 212.0000 1.0000
29.1000 211.0000 1.0000
29.1200 213.0000 1.0000
29.1400 224.0000 1.0000
29.1600 215.0000 1.0000
29.1800 219.0000 1.0000
29.2000 218.0000 1.0000
29.2200 239.0000 1.0000
29.2400 265.0000 1.0000
29.2600 272.0000 1.0000
29.2800 274.0000 1.0000
29.3000 302.0000 1.0000
29.3200 332.0000 1.0000
29.3400 352.0000 1.0000
29.3600 383.0000 1.0000
29.3800 402.0000 1.0000
29.4000 399.0000 1.0000
29.4200 427.0000 1.0000
29.4400 434.0000 1.0000
29.4600 459.0000 1.0000
29.4800 496.0000 1.0000
29.5000 507.0000 1.0000
29.5200 564.0000 1.0000
29.5400 600.0000 1.0000
29.5600 633.0000 1.0000
29.5800 708.0000 1.0000
29.6000 775.0000 1.0000
29.6200 836.0000 1.0000
29.6400 876.0000 1.0000
29.6600 869.0000 1.0000
29.6800 910.0000 1.0000
29.7000 917.0000 1.0000
29.7200 888.0000 1.0000
29.7400 859.0000 1.0000
29.7600 761.0000 1.0000
29.7800 694.0000 1.0000
29.8000 632.0000 1.0000
29.8200 569.0000 1.0000
29.8400 524.0000 1.0000
29.8600 471.0000 1.0000
29.8800 457.0000 1.0000
29.9000 455.0000 1.0000
29.9200 431.0000 1.0000
29.9400 409.0000 1.0000
29.9600 423.0000 1.0000
29.9800 444.0000 1.0000
30.0000 448.0000 1.0000
30.0200 484.0000 1.0000
30.0400 512.0000 1.0000
30.0600 510.0000 1.0000
30.0800 562.0000 1.0000
30.1000 613.0000 1.0000
30.1200 604.0000 1.0000
30.1400 660.0000 1.0000
30.1600 681.0000 1.0000
30.1800 688.0000 1.0000
30.2000 672.0000 1.0000
30.2200 645.0000 1.0000
30.2400 629.0000 1.0000
30.2600 561.0000 1.0000
30.2800 510.0000 1.0000
30.3000 525.0000 1.0000
30.3200 526.0000 1.0000
30.3400 509.0000 1.0000
30.3600 454.0000 1.0000
30.3800 464.0000 1.0000
30.4000 446.0000 1.0000
30.4200 420.0000 1.0000
30.4400 368.0000 1.0000
30.4600 396.0000 1.0000
30.4800 344.0000 1.0000
30.5000 361.0000 1.0000
30.5200 384.0000 1.0000
30.5400 389.0000 1.0000
30.5600 391.0000 1.0000
30.5800 386.0000 1.0000
30.6000 416.0000 1.0000
30.6200 450.0000 1.0000
30.6400 483.0000 1.0000
30.6600 544.0000 1.0000
30.6800 527.0000 1.0000
30.7000 546.0000 1.0000
30.7200 581.0000 1.0000
30.7400 564.0000 1.0000
30.7600 551.0000 1.0000
30.7800 548.0000 1.0000
30.8000 544.0000 1.0000
30.8200 537.0000 1.0000
30.8400 505.0000 1.0000
30.8600 445.0000 1.0000
30.8800 393.0000 1.0000
30.9000 385.0000 1.0000
30.9200 353.0000 1.0000
30.9400 327.0000 1.0000
30.9600 305.0000 1.0000
30.9800 279.0000 1.0000
31.0000 279.0000 1.0000
31.0200 227.0000 1.0000
31.0400 222.0000 1.0000
31.0600 218.0000 1.0000
31.0800 216.0000 1.0000
31.1000 222.0000 1.0000
31.1200 208.0000 1.0000
31.1400 223.0000 1.0000
31.1600 226.0000 1.0000
31.1800 238.0000 1.0000
31.2000 249.0000 1.0000
31.2200 204.0000 1.0000
31.2400 208.0000 1.0000
31.2600 227.0000 1.0000
31.2800 253.0000 1.0000
31.3000 251.0000 1.0000
31.3200 263.0000 1.0000
31.3400 289.0000 1.0000
31.3600 298.0000 1.0000
31.3800 303.0000 1.0000
31.4000 289.0000 1.0000
31.4200 290.0000 1.0000
31.4400 276.0000 1.0000
31.4600 278.0000 1.0000
31.4800 257.0000 1.0000
31.5000 197.0000 1.0000
31.5200 223.0000 1.0000
31.5400 211.0000 1.0000
31.5600 177.0000 1.0000
31.5800 180.0000 1.0000
31.6000 189.0000 1.0000
31.6200 196.0000 1.0000
31.6400 175.0000 1.0000
31.6600 179.0000 1.0000
31.6800 183.0000 1.0000
31.7000 202.0000 1.0000
31.7200 187.0000 1.0000
31.7400 181.0000 1.0000
31.7600 175.0000 1.0000
31.7800 156.0000 1.0000
31.8000 143.0000 1.0000
31.8200 154.0000 1.0000
31.8400 152.0000 1.0000
31.8600 134.0000 1.0000
31.8800 138.0000 1.0000
31.9000 135.0000 1.0000
31.9200 129.0000 1.0000
31.9400 140.0000 1.0000
31.9600 140.0000 1.0000
31.9800 133.0000 1.0000
32.0000 140.0000 1.0000
32.0200 152.0000 1.0000
32.0400 136.0000 1.0000
32.0600 124.0000 1.0000
32.0800 133.0000 1.0000
32.1000 162.0000 1.0000
32.1200 161.0000 1.0000
32.1400 154.0000 1.0000
32.1600 153.0000 1.0000
32.1800 141.0000 1.0000
32.2000 148.0000 1.0000
32.2200 148.0000 1.0000
32.2400 159.0000 1.0000
32.2600 151.0000 1.0000
32.2800 160.0000 1.0000
32.3000 151.0000 1.0000
32.3200 128.0000 1.0000
32.3400 145.0000 1.0000
32.3600 164.0000 1.0000
32.3800 144.0000 1.0000
32.4000 150.0000 1.0000
32.4200 149.0000 1.0000
32.4400 149.0000 1.0000
32.4600 176.0000 1.0000
32.4800 139.0000 1.0000
32.5000 144.0000 1.0000
32.5200 143.0000 1.0000
32.5400 156.0000 1.0000
32.5600 138.0000 1.0000
32.5800 132.0000 1.0000
32.6000 141.0000 1.0000
32.6200 133.0000 1.0000
32.6400 114.0000 1.0000
32.6600 127.0000 1.0000
32.6800 126.0000 1.0000
32.7000 131.0000 1.0000
32.7200 145.0000 1.0000
32.7400 146.0000 1.0000
32.7600 146.0000 1.0000
32.7800 161.0000 1.0000
32.8000 127.0000 1.0000
32.8200 154.0000 1.0000
32.8400 138.0000 1.0000
32.8600 174.0000 1.0000
32.8800 156.0000 1.0000
32.9000 144.0000 1.0000
32.9200 136.0000 1.0000
32.9400 148.0000 1.0000
32.9600 129.0000 1.0000
32.9800 137.0000 1.0000
33.0000 125.0000 1.0000
33.0200 132.0000 1.0000
33.0400 129.0000 1.0000
33.0600 117.0000 1.0000
33.0800 107.0000 1.0000
33.1000 108.0000 1.0000
33.1200 130.0000 1.0000
33.1400 136.0000 1.0000
33.1600 133.0000 1.0000
33.1800 115.0000 1.0000
33.2000 131.0000 1.0000
33.2200 131.0000 1.0000
33.2400 121.0000 1.0000
33.2600 128.0000 1.0000
33.2800 129.0000 1.0000
33.3000 147.0000 1.0000
33.3200 134.0000 1.0000
33.3400 124.0000 1.0000
33.3600 132.0000 1.0000
33.3800 142.0000 1.0000
33.4000 141.0000 1.0000
33.4200 146.0000 1.0000
33.4400 150.0000 1.0000
33.4600 151.0000 1.0000
33.4800 152.0000 1.0000
33.5000 158.0000 1.0000
33.5200 169.0000 1.0000
33.5400 153.0000 1.0000
33.5600 201.0000 1.0000
33.5800 213.0000 1.0000
33.6000 210.0000 1.0000
33.6200 200.0000 1.0000
33.6400 192.0000 1.0000
33.6600 198.0000 1.0000
33.6800 198.0000 1.0000
33.7000 210.0000 1.0000
33.7200 192.0000 1.0000
33.7400 190.0000 1.0000
33.7600 184.0000 1.0000
33.7800 191.0000 1.0000
33.8000 176.0000 1.0000
33.8200 194.0000 1.0000
33.8400 170.0000 1.0000
33.8600 173.0000 1.0000
33.8800 157.0000 1.0000
33.9000 148.0000 1.0000
33.9200 150.0000 1.0000
33.9400 159.0000 1.0000
33.9600 188.0000 1.0000
33.9800 158.0000 1.0000
34.0000 168.0000 1.0000
34.0200 159.0000 1.0000
34.0400 181.0000 1.0000
34.0600 186.0000 1.0000
34.0800 162.0000 1.0000
34.1000 171.0000 1.0000
34.1200 177.0000 1.0000
34.1400 171.0000 1.0000
34.1600 186.0000 1.0000
34.1800 173.0000 1.0000
34.2000 206.0000 1.0000
34.2200 193.0000 1.0000
34.2400 217.0000 1.0000
34.2600 175.0000 1.0000
34.2800 205.0000 1.0000
34.3000 205.0000 1.0000
34.3200 232.0000 1.0000
34.3400 236.0000 1.0000
34.3600 227.0000 1.0000
34.3800 230.0000 1.0000
34.4000 250.0000 1.0000
34.4200 281.0000 1.0000
34.4400 270.0000 1.0000
34.4600 269.0000 1.0000
34.4800 297.0000 1.0000
34.5000 278.0000 1.0000
34.5200 326.0000 1.0000
34.5400 302.0000 1.0000
34.5600 335.0000 1.0000
34.5800 373.0000 1.0000
34.6000 367.0000 1.0000
34.6200 411.0000 1.0000
34.6400 404.0000 1.0000
34.6600 463.0000 1.0000
34.6800 498.0000 1.0000
34.7000 461.0000 1.0000
34.7200 543.0000 1.0000
34.7400 558.0000 1.0000
34.7600 555.0000 1.0000
34.7800 586.0000 1.0000
34.8000 630.0000 1.0000
34.8200 654.0000 1.0000
34.8400 715.0000 1.0000
34.8600 811.0000 1.0000
34.8800 815.0000 1.0000
34.9000 901.0000 1.0000
34.9200 973.0000 1.0000
34.9400 1116.0000 1.0000
34.9600 1274.0000 1.0000
34.9800 1463.0000 1.0000
35.0000 1648.0000 1.0000
35.0200 1702.0000 1.0000
35.0400 1850.0000 1.0000
35.0600 1825.0000 1.0000
35.0800 1592.0000 1.0000
35.1000 1476.0000 1.0000
35.1200 1346.0000 1.0000
35.1400 1141.0000 1.0000
35.1600 1012.0000 1.0000
35.1800 797.0000 1.0000
35.2000 662.0000 1.0000
35.2200 640.0000 1.0000
35.2400 606.0000 1.0000
35.2600 589.0000 1.0000
35.2800 579.0000 1.0000
35.3000 599.0000 1.0000
35.3200 600.0000 1.0000
35.3400 612.0000 1.0000
35.3600 667.0000 1.0000
35.3800 703.0000 1.0000
35.4000 757.0000 1.0000
35.4200 755.0000 1.0000
35.4400 781.0000 1.0000
35.4600 710.0000 1.0000
35.4800 695.0000 1.0000
35.5000 733.0000 1.0000
35.5200 726.0000 1.0000
35.5400 691.0000 1.0000
35.5600 692.0000 1.0000
35.5800 656.0000 1.0000
35.6000 618.0000 1.0000
35.6200 610.0000 1.0000
35.6400 596.0000 1.0000
35.6600 547.0000 1.0000
35.6800 519.0000 1.0000
35.7000 489.0000 1.0000
35.7200 436.0000 1.0000
35.7400 385.0000 1.0000
35.7600 370.0000 1.0000
35.7800 367.0000 1.0000
35.8000 346.0000 1.0000
35.8200 293.0000 1.0000
35.8400 290.0000 1.0000
35.8600 281.0000 1.0000
35.8800 284.0000 1.0000
35.9000 264.0000 1.0000
35.9200 268.0000 1.0000
35.9400 295.0000 1.0000
35.9600 269.0000 1.0000
35.9800 236.0000 1.0000
36.0000 261.0000 1.0000
36.0200 271.0000 1.0000
36.0400 260.0000 1.0000
36.0600 255.0000 1.0000
36.0800 295.0000 1.0000
36.1000 267.0000 1.0000
36.1200 284.0000 1.0000
36.1400 276.0000 1.0000
36.1600 283.0000 1.0000
36.1800 300.0000 1.0000
36.2000 291.0000 1.0000
36.2200 287.0000 1.0000
36.2400 344.0000 1.0000
36.2600 357.0000 1.0000
36.2800 350.0000 1.0000
36.3000 345.0000 1.0000
36.3200 411.0000 1.0000
36.3400 496.0000 1.0000
36.3600 522.0000 1.0000
36.3800 607.0000 1.0000
36.4000 642.0000 1.0000
36.4200 704.0000 1.0000
36.4400 752.0000 1.0000
36.4600 728.0000 1.0000
36.4800 669.0000 1.0000
36.5000 610.0000 1.0000
36.5200 568.0000 1.0000
36.5400 478.0000 1.0000
36.5600 433.0000 1.0000
36.5800 418.0000 1.0000
36.6000 355.0000 1.0000
36.6200 323.0000 1.0000
36.6400 267.0000 1.0000
36.6600 257.0000 1.0000
36.6800 251.0000 1.0000
36.7000 234.0000 1.0000
36.7200 220.0000 1.0000
36.7400 206.0000 1.0000
36.7600 222.0000 1.0000
36.7800 217.0000 1.0000
36.8000 209.0000 1.0000
36.8200 202.0000 1.0000
36.8400 171.0000 1.0000
36.8600 195.0000 1.0000
36.8800 195.0000 1.0000
36.9000 179.0000 1.0000
36.9200 175.0000 1.0000
36.9400 177.0000 1.0000
36.9600 211.0000 1.0000
36.9800 230.0000 1.0000
37.0000 200.0000 1.0000
37.0200 192.0000 1.0000
37.0400 200.0000 1.0000
37.0600 215.0000 1.0000
37.0800 192.0000 1.0000
37.1000 187.0000 1.0000
37.1200 182.0000 1.0000
37.1400 185.0000 1.0000
37.1600 203.0000 1.0000
37.1800 188.0000 1.0000
37.2000 198.0000 1.0000
37.2200 184.0000 1.0000
37.2400 187.0000 1.0000
37.2600 211.0000 1.0000
37.2800 188.0000 1.0000
37.3000 192.0000 1.0000
37.3200 212.0000 1.0000
37.3400 212.0000 1.0000
37.3600 199.0000 1.0000
37.3800 231.0000 1.0000
37.4000 232.0000 1.0000
37.4200 233.0000 1.0000
37.4400 241.0000 1.0000
37.4600 266.0000 1.0000
37.4800 275.0000 1.0000
37.5000 299.0000 1.0000
37.5200 330.0000 1.0000
37.5400 364.0000 1.0000
37.5600 439.0000 1.0000
37.5800 512.0000 1.0000
37.6000 595.0000 1.0000
37.6200 637.0000 1.0000
37.6400 731.0000 1.0000
37.6600 727.0000 1.0000
37.6800 709.0000 1.0000
37.7000 717.0000 1.0000
37.7200 687.0000 1.0000
37.7400 575.0000 1.0000
37.7600 488.0000 1.0000
37.7800 422.0000 1.0000
37.8000 355.0000 1.0000
37.8200 305.0000 1.0000
37.8400 256.0000 1.0000
37.8600 207.0000 1.0000
37.8800 193.0000 1.0000
37.9000 177.0000 1.0000
37.9200 158.0000 1.0000
37.9400 149.0000 1.0000
37.9600 155.0000 1.0000
37.9800 156.0000 1.0000
38.0000 167.0000 1.0000
38.0200 158.0000 1.0000
38.0400 156.0000 1.0000
38.0600 161.0000 1.0000
38.0800 153.0000 1.0000
38.1000 145.0000 1.0000
38.1200 147.0000 1.0000
38.1400 145.0000 1.0000
38.1600 149.0000 1.0000
38.1800 123.0000 1.0000
38.2000 130.0000 1.0000
38.2200 137.0000 1.0000
38.2400 136.0000 1.0000
38.2600 124.0000 1.0000
38.2800 136.0000 1.0000
38.3000 128.0000 1.0000
38.3200 114.0000 1.0000
38.3400 126.0000 1.0000
38.3600 122.0000 1.0000
38.3800 118.0000 1.0000
38.4000 119.0000 1.0000
38.4200 128.0000 1.0000
38.4400 129.0000 1.0000
38.4600 114.0000 1.0000
38.4800 113.0000 1.0000
38.5000 118.0000 1.0000
38.5200 122.0000 1.0000
38.5400 129.0000 1.0000
38.5600 114.0000 1.0000
38.5800 126.0000 1.0000
38.6000 129.0000 1.0000
38.6200 128.0000 1.0000
38.6400 145.0000 1.0000
38.6600 154.0000 1.0000
38.6800 142.0000 1.0000
38.7000 145.0000 1.0000
38.7200 138.0000 1.0000
38.7400 172.0000 1.0000
38.7600 162.0000 1.0000
38.7800 160.0000 1.0000
38.8000 170.0000 1.0000
38.8200 172.0000 1.0000
38.8400 158.0000 1.0000
38.8600 158.0000 1.0000
38.8800 158.0000 1.0000
38.9000 167.0000 1.0000
38.9200 176.0000 1.0000
38.9400 181.0000 1.0000
38.9600 186.0000 1.0000
38.9800 189.0000 1.0000
39.0000 194.0000 1.0000
39.0200 192.0000 1.0000
39.0400 196.0000 1.0000
39.0600 185.0000 1.0000
39.0800 191.0000 1.0000
39.1000 213.0000 1.0000
39.1200 218.0000 1.0000
39.1400 212.0000 1.0000
39.1600 217.0000 1.0000
39.1800 233.0000 1.0000
39.2000 228.0000 1.0000
39.2200 265.0000 1.0000
39.2400 301.0000 1.0000
39.2600 320.0000 1.0000
39.2800 411.0000 1.0000
39.3000 462.0000 1.0000
39.3200 505.0000 1.0000
39.3400 547.0000 1.0000
39.3600 552.0000 1.0000
39.3800 522.0000 1.0000
39.4000 483.0000 1.0000
39.4200 438.0000 1.0000
39.4400 388.0000 1.0000
39.4600 350.0000 1.0000
39.4800 326.0000 1.0000
39.5000 278.0000 1.0000
39.5200 220.0000 1.0000
39.5400 199.0000 1.0000
39.5600 178.0000 1.0000
39.5800 163.0000 1.0000
39.6000 167.0000 1.0000
39.6200 175.0000 1.0000
39.6400 159.0000 1.0000
39.6600 131.0000 1.0000
39.6800 134.0000 1.0000
39.7000 142.0000 1.0000
39.7200 151.0000 1.0000
39.7400 147.0000 1.0000
39.7600 141.0000 1.0000
39.7800 141.0000 1.0000
39.8000 149.0000 1.0000
39.8200 145.0000 1.0000
39.8400 145.0000 1.0000
39.8600 145.0000 1.0000
39.8800 147.0000 1.0000
39.9000 154.0000 1.0000
39.9200 150.0000 1.0000
39.9400 140.0000 1.0000
39.9600 142.0000 1.0000
39.9800 161.0000 1.0000
40.0000 179.0000 1.0000
40.0200 176.0000 1.0000
40.0400 183.0000 1.0000
40.0600 193.0000 1.0000
40.0800 214.0000 1.0000
40.1000 256.0000 1.0000
40.1200 291.0000 1.0000
40.1400 310.0000 1.0000
40.1600 334.0000 1.0000
40.1800 352.0000 1.0000
40.2000 342.0000 1.0000
40.2200 331.0000 1.0000
40.2400 326.0000 1.0000
40.2600 301.0000 1.0000
40.2800 266.0000 1.0000
40.3000 236.0000 1.0000
40.3200 231.0000 1.0000
40.3400 229.0000 1.0000
40.3600 206.0000 1.0000
40.3800 198.0000 1.0000
40.4000 197.0000 1.0000
40.4200 193.0000 1.0000
40.4400 184.0000 1.0000
40.4600 184.0000 1.0000
40.4800 199.0000 1.0000
40.5000 202.0000 1.0000
40.5200 193.0000 1.0000
40.5400 195.0000 1.0000
40.5600 198.0000 1.0000
40.5800 196.0000 1.0000
40.6000 206.0000 1.0000
40.6200 206.0000 1.0000
40.6400 197.0000 1.0000
40.6600 195.0000 1.0000
40.6800 197.0000 1.0000
40.7000 204.0000 1.0000
40.7200 207.0000 1.0000
40.7400 205.0000 1.0000
40.7600 205.0000 1.0000
40.7800 194.0000 1.0000
40.8000 186.0000 1.0000
40.8200 192.0000 1.0000
40.8400 202.0000 1.0000
40.8600 201.0000 1.0000
40.8800 193.0000 1.0000
40.9000 175.0000 1.0000
40.9200 160.0000 1.0000
40.9400 171.0000 1.0000
40.9600 186.0000 1.0000
40.9800 173.0000 1.0000
41.0000 166.0000 1.0000
41.0200 165.0000 1.0000
41.0400 159.0000 1.0000
41.0600 157.0000 1.0000
41.0800 145.0000 1.0000
41.1000 150.0000 1.0000
41.1200 155.0000 1.0000
41.1400 152.0000 1.0000
41.1600 145.0000 1.0000
41.1800 148.0000 1.0000
41.2000 157.0000 1.0000
41.2200 141.0000 1.0000
41.2400 141.0000 1.0000
41.2600 150.0000 1.0000
41.2800 158.0000 1.0000
41.3000 159.0000 1.0000
41.3200 145.0000 1.0000
41.3400 140.0000 1.0000
41.3600 143.0000 1.0000
41.3800 140.0000 1.0000
41.4000 144.0000 1.0000
41.4200 155.0000 1.0000
41.4400 173.0000 1.0000
41.4600 190.0000 1.0000
41.4800 177.0000 1.0000
41.5000 189.0000 1.0000
41.5200 200.0000 1.0000
41.5400 199.0000 1.0000
41.5600 213.0000 1.0000
41.5800 219.0000 1.0000
41.6000 201.0000 1.0000
41.6200 205.0000 1.0000
41.6400 203.0000 1.0000
41.6600 224.0000 1.0000
41.6800 221.0000 1.0000
41.7000 232.0000 1.0000
41.7200 226.0000 1.0000
41.7400 210.0000 1.0000
41.7600 233.0000 1.0000
41.7800 247.0000 1.0000
41.8000 250.0000 1.0000
41.8200 261.0000 1.0000
41.8400 257.0000 1.0000
41.8600 247.0000 1.0000
41.8800 226.0000 1.0000
41.9000 254.0000 1.0000
41.9200 257.0000 1.0000
41.9400 246.0000 1.0000
41.9600 258.0000 1.0000
41.9800 264.0000 1.0000
42.0000 275.0000 1.0000
42.0200 314.0000 1.0000
42.0400 306.0000 1.0000
42.0600 324.0000 1.0000
42.0800 380.0000 1.0000
42.1000 380.0000 1.0000
42.1200 358.0000 1.0000
42.1400 397.0000 1.0000
42.1600 408.0000 1.0000
42.1800 435.0000 1.0000
42.2000 439.0000 1.0000
42.2200 472.0000 1.0000
42.2400 498.0000 1.0000
42.2600 506.0000 1.0000
42.2800 565.0000 1.0000
42.3000 591.0000 1.0000
42.3200 624.0000 1.0000
42.3400 663.0000 1.0000
42.3600 601.0000 1.0000
42.3800 562.0000 1.0000
42.4000 540.0000 1.0000
42.4200 506.0000 1.0000
42.4400 455.0000 1.0000
42.4600 433.0000 1.0000
42.4800 401.0000 1.0000
42.5000 371.0000 1.0000
42.5200 322.0000 1.0000
42.5400 281.0000 1.0000
42.5600 266.0000 1.0000
42.5800 285.0000 1.0000
42.6000 259.0000 1.0000
42.6200 244.0000 1.0000
42.6400 262.0000 1.0000
42.6600 276.0000 1.0000
42.6800 253.0000 1.0000
42.7000 252.0000 1.0000
42.7200 258.0000 1.0000
42.7400 266.0000 1.0000
42.7600 246.0000 1.0000
42.7800 249.0000 1.0000
42.8000 270.0000 1.0000
42.8200 281.0000 1.0000
42.8400 264.0000 1.0000
42.8600 265.0000 1.0000
42.8800 273.0000 1.0000
42.9000 274.0000 1.0000
42.9200 272.0000 1.0000
42.9400 280.0000 1.0000
42.9600 280.0000 1.0000
42.9800 283.0000 1.0000
43.0000 302.0000 1.0000
43.0200 324.0000 1.0000
43.0400 329.0000 1.0000
43.0600 347.0000 1.0000
43.0800 403.0000 1.0000
43.1000 492.0000 1.0000
43.1200 579.0000 1.0000
43.1400 688.0000 1.0000
43.1600 857.0000 1.0000
43.1800 1047.0000 1.0000
43.2000 1298.0000 1.0000
43.2200 1503.0000 1.0000
43.2400 1543.0000 1.0000
43.2600 1540.0000 1.0000
43.2800 1396.0000 1.0000
43.3000 1340.0000 1.0000
43.3200 1180.0000 1.0000
43.3400 1047.0000 1.0000
43.3600 892.0000 1.0000
43.3800 782.0000 1.0000
43.4000 700.0000 1.0000
43.4200 568.0000 1.0000
43.4400 408.0000 1.0000
43.4600 294.0000 1.0000
43.4800 268.0000 1.0000
43.5000 236.0000 1.0000
43.5200 242.0000 1.0000
43.5400 230.0000 1.0000
43.5600 184.0000 1.0000
43.5800 191.0000 1.0000
43.6000 191.0000 1.0000
43.6200 182.0000 1.0000
43.6400 196.0000 1.0000
43.6600 192.0000 1.0000
43.6800 171.0000 1.0000
43.7000 183.0000 1.0000
43.7200 165.0000 1.0000
43.7400 158.0000 1.0000
43.7600 154.0000 1.0000
43.7800 159.0000 1.0000
43.8000 166.0000 1.0000
43.8200 155.0000 1.0000
43.8400 167.0000 1.0000
43.8600 157.0000 1.0000
43.8800 160.0000 1.0000
43.9000 162.0000 1.0000
43.9200 139.0000 1.0000
43.9400 136.0000 1.0000
43.9600 167.0000 1.0000
43.9800 149.0000 1.0000
44.0000 157.0000 1.0000
44.0200 161.0000 1.0000
44.0400 162.0000 1.0000
44.0600 158.0000 1.0000
44.0800 189.0000 1.0000
44.1000 179.0000 1.0000
44.1200 191.0000 1.0000
44.1400 203.0000 1.0000
44.1600 203.0000 1.0000
44.1800 196.0000 1.0000
44.2000 198.0000 1.0000
44.2200 190.0000 1.0000
44.2400 211.0000 1.0000
44.2600 207.0000 1.0000
44.2800 189.0000 1.0000
44.3000 209.0000 1.0000
44.3200 218.0000 1.0000
44.3400 204.0000 1.0000
44.3600 199.0000 1.0000
44.3800 175.0000 1.0000
44.4000 167.0000 1.0000
44.4200 174.0000 1.0000
44.4400 191.0000 1.0000
44.4600 177.0000 1.0000
44.4800 174.0000 1.0000
44.5000 171.0000 1.0000
44.5200 169.0000 1.0000
44.5400 180.0000 1.0000
44.5600 167.0000 1.0000
44.5800 188.0000 1.0000
44.6000 165.0000 1.0000
44.6200 208.0000 1.0000
44.6400 197.0000 1.0000
44.6600 201.0000 1.0000
44.6800 206.0000 1.0000
44.7000 214.0000 1.0000
44.7200 223.0000 1.0000
44.7400 235.0000 1.0000
44.7600 209.0000 1.0000
44.7800 221.0000 1.0000
44.8000 206.0000 1.0000
44.8200 218.0000 1.0000
44.8400 207.0000 1.0000
44.8600 202.0000 1.0000
44.8800 196.0000 1.0000
44.9000 196.0000 1.0000
44.9200 210.0000 1.0000
44.9400 204.0000 1.0000
44.9600 224.0000 1.0000
44.9800 198.0000 1.0000
45.0000 204.0000 1.0000
45.0200 216.0000 1.0000
45.0400 213.0000 1.0000
45.0600 201.0000 1.0000
45.0800 204.0000 1.0000
45.1000 205.0000 1.0000
45.1200 188.0000 1.0000
45.1400 200.0000 1.0000
45.1600 198.0000 1.0000
45.1800 213.0000 1.0000
45.2000 214.0000 1.0000
45.2200 210.0000 1.0000
45.2400 221.0000 1.0000
45.2600 235.0000 1.0000
45.2800 203.0000 1.0000
45.3000 211.0000 1.0000
45.3200 198.0000 1.0000
45.3400 218.0000 1.0000
45.3600 187.0000 1.0000
45.3800 195.0000 1.0000
45.4000 175.0000 1.0000
45.4200 182.0000 1.0000
45.4400 163.0000 1.0000
45.4600 162.0000 1.0000
45.4800 191.0000 1.0000
45.5000 200.0000 1.0000
45.5200 185.0000 1.0000
45.5400 200.0000 1.0000
45.5600 233.0000 1.0000
45.5800 229.0000 1.0000
45.6000 243.0000 1.0000
45.6200 279.0000 1.0000
45.6400 291.0000 1.0000
45.6600 318.0000 1.0000
45.6800 360.0000 1.0000
45.7000 357.0000 1.0000
45.7200 344.0000 1.0000
45.7400 308.0000 1.0000
45.7600 278.0000 1.0000
45.7800 278.0000 1.0000
45.8000 271.0000 1.0000
45.8200 290.0000 1.0000
45.8400 237.0000 1.0000
45.8600 209.0000 1.0000
45.8800 228.0000 1.0000
45.9000 204.0000 1.0000
45.9200 191.0000 1.0000
45.9400 201.0000 1.0000
45.9600 218.0000 1.0000
45.9800 190.0000 1.0000
46.0000 201.0000 1.0000
46.0200 190.0000 1.0000
46.0400 192.0000 1.0000
46.0600 188.0000 1.0000
46.0800 171.0000 1.0000
46.1000 178.0000 1.0000
46.1200 163.0000 1.0000
46.1400 165.0000 1.0000
46.1600 164.0000 1.0000
46.1800 156.0000 1.0000
46.2000 130.0000 1.0000
46.2200 131.0000 1.0000
46.2400 131.0000 1.0000
46.2600 134.0000 1.0000
46.2800 134.0000 1.0000
46.3000 122.0000 1.0000
46.3200 126.0000 1.0000
46.3400 119.0000 1.0000
46.3600 129.0000 1.0000
46.3800 122.0000 1.0000
46.4000 118.0000 1.0000
46.4200 125.0000 1.0000
46.4400 113.0000 1.0000
46.4600 109.0000 1.0000
46.4800 121.0000 1.0000
46.5000 111.0000 1.0000
46.5200 115.0000 1.0000
46.5400 133.0000 1.0000
46.5600 138.0000 1.0000
46.5800 133.0000 1.0000
46.6000 134.0000 1.0000
46.6200 124.0000 1.0000
46.6400 125.0000 1.0000
46.6600 113.0000 1.0000
46.6800 110.0000 1.0000
46.7000 112.0000 1.0000
46.7200 126.0000 1.0000
46.7400 130.0000 1.0000
46.7600 132.0000 1.0000
46.7800 135.0000 1.0000
46.8000 147.0000 1.0000
46.8200 150.0000 1.0000
46.8400 132.0000 1.0000
46.8600 139.0000 1.0000
46.8800 148.0000 1.0000
46.9000 152.0000 1.0000
46.9200 144.0000 1.0000
46.9400 150.0000 1.0000
46.9600 154.0000 1.0000
46.9800 150.0000 1.0000
47.0000 146.0000 1.0000
47.0200 139.0000 1.0000
47.0400 133.0000 1.0000
47.0600 130.0000 1.0000
47.0800 142.0000 1.0000
47.1000 138.0000 1.0000
47.1200 142.0000 1.0000
47.1400 131.0000 1.0000
47.1600 130.0000 1.0000
47.1800 127.0000 1.0000
47.2000 124.0000 1.0000
47.2200 111.0000 1.0000
47.2400 118.0000 1.0000
47.2600 117.0000 1.0000
47.2800 112.0000 1.0000
47.3000 114.0000 1.0000
47.3200 99.0000 1.0000
47.3400 93.0000 1.0000
47.3600 104.0000 1.0000
47.3800 107.0000 1.0000
47.4000 104.0000 1.0000
47.4200 97.0000 1.0000
47.4400 98.0000 1.0000
47.4600 96.0000 1.0000
47.4800 99.0000 1.0000
47.5000 109.0000 1.0000
47.5200 114.0000 1.0000
47.5400 105.0000 1.0000
47.5600 103.0000 1.0000
47.5800 100.0000 1.0000
47.6000 95.0000 1.0000
47.6200 94.0000 1.0000
47.6400 94.0000 1.0000
47.6600 101.0000 1.0000
47.6800 95.0000 1.0000
47.7000 101.0000 1.0000
47.7200 96.0000 1.0000
47.7400 97.0000 1.0000
47.7600 99.0000 1.0000
47.7800 102.0000 1.0000
47.8000 99.0000 1.0000
47.8200 103.0000 1.0000
47.8400 88.0000 1.0000
47.8600 100.0000 1.0000
47.8800 112.0000 1.0000
47.9000 101.0000 1.0000
47.9200 103.0000 1.0000
47.9400 118.0000 1.0000
47.9600 114.0000 1.0000
47.9800 122.0000 1.0000
48.0000 125.0000 1.0000
48.0200 123.0000 1.0000
48.0400 110.0000 1.0000
48.0600 102.0000 1.0000
48.0800 103.0000 1.0000
48.1000 121.0000 1.0000
48.1200 137.0000 1.0000
48.1400 132.0000 1.0000
48.1600 126.0000 1.0000
48.1800 120.0000 1.0000
48.2000 126.0000 1.0000
48.2200 136.0000 1.0000
48.2400 145.0000 1.0000
48.2600 138.0000 1.0000
48.2800 127.0000 1.0000
48.3000 145.0000 1.0000
48.3200 160.0000 1.0000
48.3400 145.0000 1.0000
48.3600 123.0000 1.0000
48.3800 126.0000 1.0000
48.4000 132.0000 1.0000
48.4200 140.0000 1.0000
48.4400 138.0000 1.0000
48.4600 123.0000 1.0000
48.4800 114.0000 1.0000
48.5000 119.0000 1.0000
48.5200 136.0000 1.0000
48.5400 127.0000 1.0000
48.5600 115.0000 1.0000
48.5800 114.0000 1.0000
48.6000 110.0000 1.0000
48.6200 126.0000 1.0000
48.6400 124.0000 1.0000
48.6600 115.0000 1.0000
48.6800 115.0000 1.0000
48.7000 112.0000 1.0000
48.7200 120.0000 1.0000
48.7400 121.0000 1.0000
48.7600 118.0000 1.0000
48.7800 119.0000 1.0000
48.8000 115.0000 1.0000
48.8200 110.0000 1.0000
48.8400 118.0000 1.0000
48.8600 116.0000 1.0000
48.8800 109.0000 1.0000
48.9000 124.0000 1.0000
48.9200 135.0000 1.0000
48.9400 132.0000 1.0000
48.9600 120.0000 1.0000
48.9800 128.0000 1.0000
49.0000 145.0000 1.0000
49.0200 153.0000 1.0000
49.0400 166.0000 1.0000
49.0600 176.0000 1.0000
49.0800 177.0000 1.0000
49.1000 172.0000 1.0000
49.1200 181.0000 1.0000
49.1400 167.0000 1.0000
49.1600 167.0000 1.0000
49.1800 192.0000 1.0000
49.2000 178.0000 1.0000
49.2200 177.0000 1.0000
49.2400 185.0000 1.0000
49.2600 170.0000 1.0000
49.2800 159.0000 1.0000
49.3000 161.0000 1.0000
49.3200 178.0000 1.0000
49.3400 169.0000 1.0000
49.3600 156.0000 1.0000
49.3800 152.0000 1.0000
49.4000 164.0000 1.0000
49.4200 185.0000 1.0000
49.4400 190.0000 1.0000
49.4600 192.0000 1.0000
49.4800 193.0000 1.0000
49.5000 206.0000 1.0000
49.5200 225.0000 1.0000
49.5400 225.0000 1.0000
49.5600 218.0000 1.0000
49.5800 222.0000 1.0000
49.6000 242.0000 1.0000
49.6200 247.0000 1.0000
49.6400 241.0000 1.0000
49.6600 245.0000 1.0000
49.6800 234.0000 1.0000
49.7000 225.0000 1.0000
49.7200 229.0000 1.0000
49.7400 240.0000 1.0000
49.7600 243.0000 1.0000
49.7800 245.0000 1.0000
49.8000 253.0000 1.0000
49.8200 253.0000 1.0000
49.8400 266.0000 1.0000
49.8600 287.0000 1.0000
49.8800 292.0000 1.0000
49.9000 333.0000 1.0000
49.9200 400.0000 1.0000
49.9400 491.0000 1.0000
49.9600 597.0000 1.0000
49.9800 708.0000 1.0000
50.0000 791.0000 1.0000
50.0200 820.0000 1.0000
50.0400 863.0000 1.0000
50.0600 878.0000 1.0000
50.0800 810.0000 1.0000
50.1000 720.0000 1.0000
50.1200 629.0000 1.0000
50.1400 603.0000 1.0000
50.1600 566.0000 1.0000
50.1800 519.0000 1.0000
50.2000 468.0000 1.0000
50.2200 395.0000 1.0000
50.2400 322.0000 1.0000
50.2600 252.0000 1.0000
50.2800 223.0000 1.0000
50.3000 195.0000 1.0000
50.3200 203.0000 1.0000
50.3400 195.0000 1.0000
50.3600 177.0000 1.0000
50.3800 167.0000 1.0000
50.4000 167.0000 1.0000
50.4200 174.0000 1.0000
50.4400 198.0000 1.0000
50.4600 198.0000 1.0000
50.4800 185.0000 1.0000
50.5000 194.0000 1.0000
50.5200 200.0000 1.0000
50.5400 220.0000 1.0000
50.5600 218.0000 1.0000
50.5800 213.0000 1.0000
50.6000 210.0000 1.0000
50.6200 216.0000 1.0000
50.6400 249.0000 1.0000
50.6600 236.0000 1.0000
50.6800 228.0000 1.0000
50.7000 209.0000 1.0000
50.7200 217.0000 1.0000
50.7400 217.0000 1.0000
50.7600 213.0000 1.0000
50.7800 205.0000 1.0000
50.8000 192.0000 1.0000
50.8200 180.0000 1.0000
50.8400 187.0000 1.0000
50.8600 177.0000 1.0000
50.8800 154.0000 1.0000
50.9000 141.0000 1.0000
50.9200 144.0000 1.0000
50.9400 144.0000 1.0000
50.9600 154.0000 1.0000
50.9800 153.0000 1.0000
51.0000 162.0000 1.0000
51.0200 157.0000 1.0000
51.0400 161.0000 1.0000
51.0600 169.0000 1.0000
51.0800 168.0000 1.0000
51.1000 171.0000 1.0000
51.1200 166.0000 1.0000
51.1400 163.0000 1.0000
51.1600 163.0000 1.0000
51.1800 178.0000 1.0000
51.2000 171.0000 1.0000
51.2200 172.0000 1.0000
51.2400 162.0000 1.0000
51.2600 159.0000 1.0000
51.2800 160.0000 1.0000
51.3000 174.0000 1.0000
51.3200 191.0000 1.0000
51.3400 204.0000 1.0000
51.3600 221.0000 1.0000
51.3800 209.0000 1.0000
51.4000 216.0000 1.0000
51.4200 186.0000 1.0000
51.4400 215.0000 1.0000
51.4600 206.0000 1.0000
51.4800 240.0000 1.0000
51.5000 208.0000 1.0000
51.5200 208.0000 1.0000
51.5400 176.0000 1.0000
51.5600 180.0000 1.0000
51.5800 190.0000 1.0000
51.6000 168.0000 1.0000
51.6200 172.0000 1.0000
51.6400 163.0000 1.0000
51.6600 157.0000 1.0000
51.6800 160.0000 1.0000
51.7000 156.0000 1.0000
51.7200 132.0000 1.0000
51.7400 161.0000 1.0000
51.7600 159.0000 1.0000
51.7800 152.0000 1.0000
51.8000 144.0000 1.0000
51.8200 163.0000 1.0000
51.8400 178.0000 1.0000
51.8600 158.0000 1.0000
51.8800 178.0000 1.0000
51.9000 155.0000 1.0000
51.9200 177.0000 1.0000
51.9400 166.0000 1.0000
51.9600 176.0000 1.0000
51.9800 186.0000 1.0000
52.0000 201.0000 1.0000
52.0200 185.0000 1.0000
52.0400 200.0000 1.0000
52.0600 226.0000 1.0000
52.0800 198.0000 1.0000
52.1000 217.0000 1.0000
52.1200 186.0000 1.0000
52.1400 201.0000 1.0000
52.1600 198.0000 1.0000
52.1800 205.0000 1.0000
52.2000 214.0000 1.0000
52.2200 235.0000 1.0000
52.2400 238.0000 1.0000
52.2600 225.0000 1.0000
52.2800 268.0000 1.0000
52.3000 276.0000 1.0000
52.3200 328.0000 1.0000
52.3400 324.0000 1.0000
52.3600 453.0000 1.0000
52.3800 487.0000 1.0000
52.4000 585.0000 1.0000
52.4200 661.0000 1.0000
52.4400 674.0000 1.0000
52.4600 728.0000 1.0000
52.4800 704.0000 1.0000
52.5000 707.0000 1.0000
52.5200 598.0000 1.0000
52.5400 539.0000 1.0000
52.5600 568.0000 1.0000
52.5800 511.0000 1.0000
52.6000 472.0000 1.0000
52.6200 410.0000 1.0000
52.6400 386.0000 1.0000
52.6600 323.0000 1.0000
52.6800 273.0000 1.0000
52.7000 207.0000 1.0000
52.7200 204.0000 1.0000
52.7400 195.0000 1.0000
52.7600 168.0000 1.0000
52.7800 171.0000 1.0000
52.8000 176.0000 1.0000
52.8200 147.0000 1.0000
52.8400 159.0000 1.0000
52.8600 160.0000 1.0000
52.8800 165.0000 1.0000
52.9000 160.0000 1.0000
52.9200 151.0000 1.0000
52.9400 163.0000 1.0000
52.9600 162.0000 1.0000
52.9800 166.0000 1.0000
53.0000 170.0000 1.0000
53.0200 147.0000 1.0000
53.0400 174.0000 1.0000
53.0600 148.0000 1.0000
53.0800 178.0000 1.0000
53.1000 166.0000 1.0000
53.1200 156.0000 1.0000
53.1400 170.0000 1.0000
53.1600 160.0000 1.0000
53.1800 166.0000 1.0000
53.2000 172.0000 1.0000
53.2200 180.0000 1.0000
53.2400 184.0000 1.0000
53.2600 154.0000 1.0000
53.2800 157.0000 1.0000
53.3000 155.0000 1.0000
53.3200 145.0000 1.0000
53.3400 151.0000 1.0000
53.3600 151.0000 1.0000
53.3800 126.0000 1.0000
53.4000 140.0000 1.0000
53.4200 147.0000 1.0000
53.4400 130.0000 1.0000
53.4600 151.0000 1.0000
53.4800 145.0000 1.0000
53.5000 145.0000 1.0000
53.5200 158.0000 1.0000
53.5400 152.0000 1.0000
53.5600 132.0000 1.0000
53.5800 142.0000 1.0000
53.6000 138.0000 1.0000
53.6200 143.0000 1.0000
53.6400 143.0000 1.0000
53.6600 133.0000 1.0000
53.6800 137.0000 1.0000
53.7000 107.0000 1.0000
53.7200 120.0000 1.0000
53.7400 121.0000 1.0000
53.7600 121.0000 1.0000
53.7800 138.0000 1.0000
53.8000 142.0000 1.0000
53.8200 118.0000 1.0000
53.8400 129.0000 1.0000
53.8600 135.0000 1.0000
53.8800 127.0000 1.0000
53.9000 145.0000 1.0000
53.9200 139.0000 1.0000
53.9400 118.0000 1.0000
53.9600 130.0000 1.0000
53.9800 139.0000 1.0000
54.0000 126.0000 1.0000
54.0200 122.0000 1.0000
54.0400 135.0000 1.0000
54.0600 122.0000 1.0000
54.0800 128.0000 1.0000
54.1000 120.0000 1.0000
54.1200 131.0000 1.0000
54.1400 133.0000 1.0000
54.1600 137.0000 1.0000
54.1800 136.0000 1.0000
54.2000 144.0000 1.0000
54.2200 138.0000 1.0000
54.2400 133.0000 1.0000
54.2600 144.0000 1.0000
54.2800 145.0000 1.0000
54.3000 142.0000 1.0000
54.3200 147.0000 1.0000
54.3400 148.0000 1.0000
54.3600 133.0000 1.0000
54.3800 137.0000 1.0000
54.4000 148.0000 1.0000
54.4200 153.0000 1.0000
54.4400 162.0000 1.0000
54.4600 160.0000 1.0000
54.4800 140.0000 1.0000
54.5000 159.0000 1.0000
54.5200 165.0000 1.0000
54.5400 172.0000 1.0000
54.5600 186.0000 1.0000
54.5800 191.0000 1.0000
54.6000 171.0000 1.0000
54.6200 172.0000 1.0000
54.6400 198.0000 1.0000
54.6600 220.0000 1.0000
54.6800 250.0000 1.0000
54.7000 274.0000 1.0000
54.7200 318.0000 1.0000
54.7400 356.0000 1.0000
54.7600 374.0000 1.0000
54.7800 364.0000 1.0000
54.8000 343.0000 1.0000
54.8200 325.0000 1.0000
54.8400 303.0000 1.0000
54.8600 292.0000 1.0000
54.8800 299.0000 1.0000
54.9000 290.0000 1.0000
54.9200 282.0000 1.0000
54.9400 251.0000 1.0000
54.9600 242.0000 1.0000
54.9800 237.0000 1.0000
55.0000 218.0000 1.0000
55.0200 191.0000 1.0000
55.0400 169.0000 1.0000
55.0600 190.0000 1.0000
55.0800 193.0000 1.0000
55.1000 171.0000 1.0000
55.1200 187.0000 1.0000
55.1400 190.0000 1.0000
55.1600 205.0000 1.0000
55.1800 250.0000 1.0000
55.2000 258.0000 1.0000
55.2200 250.0000 1.0000
55.2400 250.0000 1.0000
55.2600 231.0000 1.0000
55.2800 216.0000 1.0000
55.3000 217.0000 1.0000
55.3200 208.0000 1.0000
55.3400 224.0000 1.0000
55.3600 218.0000 1.0000
55.3800 217.0000 1.0000
55.4000 206.0000 1.0000
55.4200 184.0000 1.0000
55.4400 191.0000 1.0000
55.4600 181.0000 1.0000
55.4800 144.0000 1.0000
55.5000 133.0000 1.0000
55.5200 146.0000 1.0000
55.5400 153.0000 1.0000
55.5600 158.0000 1.0000
55.5800 157.0000 1.0000
55.6000 154.0000 1.0000
55.6200 146.0000 1.0000
55.6400 153.0000 1.0000
55.6600 163.0000 1.0000
55.6800 149.0000 1.0000
55.7000 134.0000 1.0000
55.7200 125.0000 1.0000
55.7400 143.0000 1.0000
55.7600 151.0000 1.0000
55.7800 138.0000 1.0000
55.8000 145.0000 1.0000
55.8200 143.0000 1.0000
55.8400 142.0000 1.0000
55.8600 165.0000 1.0000
55.8800 166.0000 1.0000
55.9000 156.0000 1.0000
55.9200 150.0000 1.0000
55.9400 137.0000 1.0000
55.9600 141.0000 1.0000
55.9800 162.0000 1.0000
56.0000 148.0000 1.0000
56.0200 140.0000 1.0000
56.0400 154.0000 1.0000
56.0600 149.0000 1.0000
56.0800 158.0000 1.0000
56.1000 165.0000 1.0000
56.1200 153.0000 1.0000
56.1400 175.0000 1.0000
56.1600 185.0000 1.0000
56.1800 172.0000 1.0000
56.2000 177.0000 1.0000
56.2200 188.0000 1.0000
56.2400 199.0000 1.0000
56.2600 193.0000 1.0000
56.2800 199.0000 1.0000
56.3000 215.0000 1.0000
56.3200 228.0000 1.0000
56.3400 219.0000 1.0000
56.3600 229.0000 1.0000
56.3800 247.0000 1.0000
56.4000 265.0000 1.0000
56.4200 271.0000 1.0000
56.4400 263.0000 1.0000
56.4600 284.0000 1.0000
56.4800 292.0000 1.0000
56.5000 281.0000 1.0000
56.5200 290.0000 1.0000
56.5400 283.0000 1.0000
56.5600 283.0000 1.0000
56.5800 270.0000 1.0000
56.6000 252.0000 1.0000
56.6200 244.0000 1.0000
56.6400 245.0000 1.0000
56.6600 235.0000 1.0000
56.6800 226.0000 1.0000
56.7000 229.0000 1.0000
56.7200 244.0000 1.0000
56.7400 233.0000 1.0000
56.7600 218.0000 1.0000
56.7800 224.0000 1.0000
56.8000 223.0000 1.0000
56.8200 219.0000 1.0000
56.8400 216.0000 1.0000
56.8600 193.0000 1.0000
56.8800 185.0000 1.0000
56.9000 203.0000 1.0000
56.9200 184.0000 1.0000
56.9400 195.0000 1.0000
56.9600 222.0000 1.0000
56.9800 222.0000 1.0000
57.0000 192.0000 1.0000
57.0200 174.0000 1.0000
57.0400 191.0000 1.0000
57.0600 216.0000 1.0000
57.0800 224.0000 1.0000
57.1000 230.0000 1.0000
57.1200 248.0000 1.0000
57.1400 258.0000 1.0000
57.1600 270.0000 1.0000
57.1800 254.0000 1.0000
57.2000 263.0000 1.0000
57.2200 298.0000 1.0000
57.2400 334.0000 1.0000
57.2600 403.0000 1.0000
57.2800 491.0000 1.0000
57.3000 601.0000 1.0000
57.3200 733.0000 1.0000
57.3400 888.0000 1.0000
57.3600 1040.0000 1.0000
57.3800 1171.0000 1.0000
57.4000 1304.0000 1.0000
57.4200 1302.0000 1.0000
57.4400 1162.0000 1.0000
57.4600 1077.0000 1.0000
57.4800 959.0000 1.0000
57.5000 873.0000 1.0000
57.5200 870.0000 1.0000
57.5400 816.0000 1.0000
57.5600 793.0000 1.0000
57.5800 702.0000 1.0000
57.6000 637.0000 1.0000
57.6200 556.0000 1.0000
57.6400 436.0000 1.0000
57.6600 357.0000 1.0000
57.6800 288.0000 1.0000
57.7000 268.0000 1.0000
57.7200 224.0000 1.0000
57.7400 200.0000 1.0000
57.7600 203.0000 1.0000
57.7800 197.0000 1.0000
57.8000 172.0000 1.0000
57.8200 147.0000 1.0000
57.8400 151.0000 1.0000
57.8600 152.0000 1.0000
57.8800 148.0000 1.0000
57.9000 151.0000 1.0000
57.9200 157.0000 1.0000
57.9400 146.0000 1.0000
57.9600 158.0000 1.0000
57.9800 132.0000 1.0000
58.0000 140.0000 1.0000
58.0200 139.0000 1.0000
58.0400 138.0000 1.0000
58.0600 138.0000 1.0000
58.0800 148.0000 1.0000
58.1000 126.0000 1.0000
58.1200 129.0000 1.0000
58.1400 132.0000 1.0000
58.1600 131.0000 1.0000
58.1800 129.0000 1.0000
58.2000 131.0000 1.0000
58.2200 117.0000 1.0000
58.2400 109.0000 1.0000
58.2600 122.0000 1.0000
58.2800 117.0000 1.0000
58.3000 115.0000 1.0000
58.3200 135.0000 1.0000
58.3400 125.0000 1.0000
58.3600 125.0000 1.0000
58.3800 129.0000 1.0000
58.4000 124.0000 1.0000
58.4200 121.0000 1.0000
58.4400 115.0000 1.0000
58.4600 119.0000 1.0000
58.4800 107.0000 1.0000
58.5000 122.0000 1.0000
58.5200 134.0000 1.0000
58.5400 127.0000 1.0000
58.5600 129.0000 1.0000
58.5800 132.0000 1.0000
58.6000 138.0000 1.0000
58.6200 145.0000 1.0000
58.6400 139.0000 1.0000
58.6600 138.0000 1.0000
58.6800 137.0000 1.0000
58.7000 138.0000 1.0000
58.7200 134.0000 1.0000
58.7400 147.0000 1.0000
58.7600 127.0000 1.0000
58.7800 121.0000 1.0000
58.8000 126.0000 1.0000
58.8200 117.0000 1.0000
58.8400 125.0000 1.0000
58.8600 141.0000 1.0000
58.8800 141.0000 1.0000
58.9000 131.0000 1.0000
58.9200 137.0000 1.0000
58.9400 130.0000 1.0000
58.9600 138.0000 1.0000
58.9800 140.0000 1.0000
59.0000 153.0000 1.0000
59.0200 136.0000 1.0000
59.0400 136.0000 1.0000
59.0600 140.0000 1.0000
59.0800 132.0000 1.0000
59.1000 128.0000 1.0000
59.1200 125.0000 1.0000
59.1400 140.0000 1.0000
59.1600 158.0000 1.0000
59.1800 162.0000 1.0000
59.2000 150.0000 1.0000
59.2200 133.0000 1.0000
59.2400 165.0000 1.0000
59.2600 136.0000 1.0000
59.2800 142.0000 1.0000
59.3000 135.0000 1.0000
59.3200 130.0000 1.0000
59.3400 149.0000 1.0000
59.3600 157.0000 1.0000
59.3800 156.0000 1.0000
59.4000 167.0000 1.0000
59.4200 156.0000 1.0000
59.4400 173.0000 1.0000
59.4600 183.0000 1.0000
59.4800 160.0000 1.0000
59.5000 189.0000 1.0000
59.5200 175.0000 1.0000
59.5400 190.0000 1.0000
59.5600 205.0000 1.0000
59.5800 203.0000 1.0000
59.6000 206.0000 1.0000
59.6200 201.0000 1.0000
59.6400 238.0000 1.0000
59.6600 250.0000 1.0000
59.6800 247.0000 1.0000
59.7000 252.0000 1.0000
59.7200 299.0000 1.0000
59.7400 349.0000 1.0000
59.7600 346.0000 1.0000
59.7800 421.0000 1.0000
59.8000 473.0000 1.0000
59.8200 582.0000 1.0000
59.8400 613.0000 1.0000
59.8600 604.0000 1.0000
59.8800 664.0000 1.0000
59.9000 663.0000 1.0000
59.9200 560.0000 1.0000
59.9400 502.0000 1.0000
59.9600 462.0000 1.0000
59.9800 417.0000 1.0000
60.0000 430.0000 1.0000
60.0200 423.0000 1.0000
60.0400 438.0000 1.0000
60.0600 382.0000 1.0000
60.0800 341.0000 1.0000
60.1000 313.0000 1.0000
60.1200 294.0000 1.0000
60.1400 243.0000 1.0000
60.1600 243.0000 1.0000
60.1800 220.0000 1.0000
60.2000 213.0000 1.0000
60.2200 221.0000 1.0000
60.2400 214.0000 1.0000
60.2600 217.0000 1.0000
60.2800 223.0000 1.0000
60.3000 211.0000 1.0000
60.3200 194.0000 1.0000
60.3400 187.0000 1.0000
60.3600 204.0000 1.0000
60.3800 188.0000 1.0000
60.4000 192.0000 1.0000
60.4200 186.0000 1.0000
60.4400 216.0000 1.0000
60.4600 205.0000 1.0000
60.4800 182.0000 1.0000
60.5000 178.0000 1.0000
60.5200 181.0000 1.0000
60.5400 198.0000 1.0000
60.5600 187.0000 1.0000
60.5800 187.0000 1.0000
60.6000 168.0000 1.0000
60.6200 192.0000 1.0000
60.6400 186.0000 1.0000
60.6600 166.0000 1.0000
60.6800 179.0000 1.0000
60.7000 187.0000 1.0000
60.7200 162.0000 1.0000
60.7400 184.0000 1.0000
60.7600 158.0000 1.0000
60.7800 177.0000 1.0000
60.8000 159.0000 1.0000
60.8200 141.0000 1.0000
60.8400 171.0000 1.0000
60.8600 184.0000 1.0000
60.8800 159.0000 1.0000
60.9000 201.0000 1.0000
60.9200 185.0000 1.0000
60.9400 187.0000 1.0000
60.9600 163.0000 1.0000
60.9800 199.0000 1.0000
61.0000 190.0000 1.0000
61.0200 219.0000 1.0000
61.0400 198.0000 1.0000
61.0600 224.0000 1.0000
61.0800 212.0000 1.0000
61.1000 227.0000 1.0000
61.1200 222.0000 1.0000
61.1400 230.0000 1.0000
61.1600 286.0000 1.0000
61.1800 232.0000 1.0000
61.2000 273.0000 1.0000
61.2200 255.0000 1.0000
61.2400 255.0000 1.0000
61.2600 221.0000 1.0000
61.2800 236.0000 1.0000
61.3000 239.0000 1.0000
61.3200 218.0000 1.0000
61.3400 221.0000 1.0000
61.3600 249.0000 1.0000
61.3800 267.0000 1.0000
61.4000 247.0000 1.0000
61.4200 227.0000 1.0000
61.4400 219.0000 1.0000
61.4600 203.0000 1.0000
61.4800 215.0000 1.0000
61.5000 233.0000 1.0000
61.5200 249.0000 1.0000
61.5400 225.0000 1.0000
61.5600 223.0000 1.0000
61.5800 226.0000 1.0000
61.6000 222.0000 1.0000
61.6200 214.0000 1.0000
61.6400 231.0000 1.0000
61.6600 231.0000 1.0000
61.6800 252.0000 1.0000
61.7000 226.0000 1.0000
61.7200 249.0000 1.0000
61.7400 260.0000 1.0000
61.7600 216.0000 1.0000
61.7800 221.0000 1.0000
61.8000 264.0000 1.0000
61.8200 224.0000 1.0000
61.8400 248.0000 1.0000
61.8600 233.0000 1.0000
61.8800 244.0000 1.0000
61.9000 253.0000 1.0000
61.9200 244.0000 1.0000
61.9400 232.0000 1.0000
61.9600 225.0000 1.0000
61.9800 247.0000 1.0000
62.0000 241.0000 1.0000
62.0200 214.0000 1.0000
62.0400 219.0000 1.0000
62.0600 235.0000 1.0000
62.0800 230.0000 1.0000
62.1000 211.0000 1.0000
62.1200 228.0000 1.0000
62.1400 247.0000 1.0000
62.1600 213.0000 1.0000
62.1800 243.0000 1.0000
62.2000 233.0000 1.0000
62.2200 235.0000 1.0000
62.2400 230.0000 1.0000
62.2600 245.0000 1.0000
62.2800 218.0000 1.0000
62.3000 211.0000 1.0000
62.3200 222.0000 1.0000
62.3400 230.0000 1.0000
62.3600 226.0000 1.0000
62.3800 212.0000 1.0000
62.4000 193.0000 1.0000
62.4200 196.0000 1.0000
62.4400 187.0000 1.0000
62.4600 212.0000 1.0000
62.4800 197.0000 1.0000
62.5000 168.0000 1.0000
62.5200 195.0000 1.0000
62.5400 185.0000 1.0000
62.5600 183.0000 1.0000
62.5800 171.0000 1.0000
62.6000 173.0000 1.0000
62.6200 154.0000 1.0000
62.6400 156.0000 1.0000
62.6600 157.0000 1.0000
62.6800 169.0000 1.0000
62.7000 174.0000 1.0000
62.7200 151.0000 1.0000
62.7400 157.0000 1.0000
62.7600 182.0000 1.0000
62.7800 170.0000 1.0000
62.8000 150.0000 1.0000
62.8200 156.0000 1.0000
62.8400 164.0000 1.0000
62.8600 149.0000 1.0000
62.8800 152.0000 1.0000
62.9000 152.0000 1.0000
62.9200 129.0000 1.0000
62.9400 155.0000 1.0000
62.9600 132.0000 1.0000
62.9800 144.0000 1.0000
63.0000 152.0000 1.0000
63.0200 153.0000 1.0000
63.0400 145.0000 1.0000
63.0600 142.0000 1.0000
63.0800 132.0000 1.0000
63.1000 147.0000 1.0000
63.1200 151.0000 1.0000
63.1400 135.0000 1.0000
63.1600 122.0000 1.0000
63.1800 124.0000 1.0000
63.2000 117.0000 1.0000
63.2200 146.0000 1.0000
63.2400 133.0000 1.0000
63.2600 142.0000 1.0000
63.2800 140.0000 1.0000
63.3000 122.0000 1.0000
63.3200 122.0000 1.0000
63.3400 126.0000 1.0000
63.3600 139.0000 1.0000
63.3800 134.0000 1.0000
63.4000 124.0000 1.0000
63.4200 114.0000 1.0000
63.4400 120.0000 1.0000
63.4600 130.0000 1.0000
63.4800 123.0000 1.0000
63.5000 122.0000 1.0000
63.5200 125.0000 1.0000
63.5400 144.0000 1.0000
63.5600 147.0000 1.0000
63.5800 140.0000 1.0000
63.6000 148.0000 1.0000
63.6200 153.0000 1.0000
63.6400 142.0000 1.0000
63.6600 151.0000 1.0000
63.6800 153.0000 1.0000
63.7000 164.0000 1.0000
63.7200 165.0000 1.0000
63.7400 146.0000 1.0000
63.7600 163.0000 1.0000
63.7800 153.0000 1.0000
63.8000 172.0000 1.0000
63.8200 183.0000 1.0000
63.8400 188.0000 1.0000
63.8600 202.0000 1.0000
63.8800 198.0000 1.0000
63.9000 222.0000 1.0000
63.9200 253.0000 1.0000
63.9400 242.0000 1.0000
63.9600 212.0000 1.0000
63.9800 227.0000 1.0000
64.0000 232.0000 1.0000
64.0200 197.0000 1.0000
64.0400 201.0000 1.0000
64.0600 185.0000 1.0000
64.0800 181.0000 1.0000
64.1000 177.0000 1.0000
64.1200 192.0000 1.0000
64.1400 162.0000 1.0000
64.1600 171.0000 1.0000
64.1800 138.0000 1.0000
64.2000 148.0000 1.0000
64.2200 148.0000 1.0000
64.2400 139.0000 1.0000
64.2600 133.0000 1.0000
64.2800 143.0000 1.0000
64.3000 148.0000 1.0000
64.3200 117.0000 1.0000
64.3400 133.0000 1.0000
64.3600 120.0000 1.0000
64.3800 116.0000 1.0000
64.4000 125.0000 1.0000
64.4200 131.0000 1.0000
64.4400 121.0000 1.0000
64.4600 132.0000 1.0000
64.4800 111.0000 1.0000
64.5000 113.0000 1.0000
64.5200 143.0000 1.0000
64.5400 131.0000 1.0000
64.5600 147.0000 1.0000
64.5800 133.0000 1.0000
64.6000 129.0000 1.0000
64.6200 129.0000 1.0000
64.6400 128.0000 1.0000
64.6600 140.0000 1.0000
64.6800 130.0000 1.0000
64.7000 123.0000 1.0000
64.7200 123.0000 1.0000
64.7400 106.0000 1.0000
64.7600 117.0000 1.0000
64.7800 123.0000 1.0000
64.8000 134.0000 1.0000
64.8200 119.0000 1.0000
64.8400 126.0000 1.0000
64.8600 140.0000 1.0000
64.8800 131.0000 1.0000
64.9000 130.0000 1.0000
64.9200 143.0000 1.0000
64.9400 134.0000 1.0000
64.9600 128.0000 1.0000
64.9800 128.0000 1.0000
65.0000 128.0000 1.0000
*RAS_INT_END
*RAS_DATA_END
