*RAS_DATA_START
*RAS_HEADER_START
*CORR_POS_DB_NAME "Angle Correction ASC6 SC WITH Mono_04082019"
*CORR_POS_GONIO_RADIUS ""
*CORR_POS_NODE_INDEX01 ""
*CORR_POS_NODE_INDEX02 ""
*CORR_POS_NODE_INDEX03 ""
*CORR_POS_NODE_INDEX04 ""
*CORR_POS_NODE_INDEX05 ""
*CORR_POS_NODE_INDEX06 ""
*CORR_POS_NODE_INDEX07 ""
*CORR_POS_NODE_INDEX08 ""
*CORR_POS_NODE_INDEX09 ""
*CORR_POS_NODE_INDEX10 ""
*CORR_POS_NODE_INDEX11 ""
*CORR_POS_NODE_LABEL01 "Si(111)"
*CORR_POS_NODE_LABEL02 "Si(220)"
*CORR_POS_NODE_LABEL03 "Si(311)"
*CORR_POS_NODE_LABEL04 "Si(400)"
*CORR_POS_NODE_LABEL05 "Si(331)"
*CORR_POS_NODE_LABEL06 "Si(422)"
*CORR_POS_NODE_LABEL07 "Si(511)"
*CORR_POS_NODE_LABEL08 "Si(440)"
*CORR_POS_NODE_LABEL09 "Si(531)"
*CORR_POS_NODE_LABEL10 "Si(620)"
*CORR_POS_NODE_LABEL11 "Si(533)"
*CORR_POS_NODE_POS_CALC01 "28.377"
*CORR_POS_NODE_POS_CALC02 "47.2506"
*CORR_POS_NODE_POS_CALC03 "56.0725"
*CORR_POS_NODE_POS_CALC04 "69.0822"
*CORR_POS_NODE_POS_CALC05 "76.3294"
*CORR_POS_NODE_POS_CALC06 "87.9853"
*CORR_POS_NODE_POS_CALC07 "94.9091"
*CORR_POS_NODE_POS_CALC08 "106.668"
*CORR_POS_NODE_POS_CALC09 "114.054"
*CORR_POS_NODE_POS_CALC10 "127.511"
*CORR_POS_NODE_POS_CALC11 "136.864"
*CORR_POS_NODE_POS_MEAS01 "28.5058"
*CORR_POS_NODE_POS_MEAS02 "47.345"
*CORR_POS_NODE_POS_MEAS03 "56.1421"
*CORR_POS_NODE_POS_MEAS04 "69.1304"
*CORR_POS_NODE_POS_MEAS05 "76.366"
*CORR_POS_NODE_POS_MEAS06 "88.0213"
*CORR_POS_NODE_POS_MEAS07 "94.9406"
*CORR_POS_NODE_POS_MEAS08 "106.689"
*CORR_POS_NODE_POS_MEAS09 "114.065"
*CORR_POS_NODE_POS_MEAS10 "127.518"
*CORR_POS_NODE_POS_MEAS11 "136.869"
*CORR_POS_OPT_ATTR "集中法"
*CORR_POS_PARAM_MU ""
*CORR_POS_PARAM_PL ""
*CORR_POS_SEMODEL_TYPE "0"
*CORR_POS_STANDARD_TYPE ""
*CORR_POS_VALUE_ANALYZER "None"
*CORR_POS_VALUE_CMONO "None"
*CORR_POS_VALUE_IMONO "None"
*CORR_POS_VALUE_IS "1.250deg"
*CORR_POS_VALUE_ISL "10.0mm"
*CORR_POS_VALUE_ISOLLER "5.0deg"
*CORR_POS_VALUE_RS1 "1.250deg"
*CORR_POS_VALUE_RS2 "0.3mm"
*CORR_POS_VALUE_RSOLLER "5.0deg"
*CORR_POS_XG_FOCUS_L ""
*CORR_POS_XG_WAVE_TYPE ""
*CORR_POS_XG_WAVE_VALUE ""
*DISP_FMT_X "%.2f"
*DISP_FMT_Y "%.0f"
*DISP_FULLSCALE "3969.6000000000"
*DISP_LINE_COLOR "255.0000000000"
*DISP_LINE_STYLE "0.0000000000"
*DISP_LINE_WIDTH "0.2500000000"
*DISP_NOTE "Collected Data-5"
*DISP_OFFSET_Y "0.0000000000"
*DISP_PEAKSEARCH_UNIT_Y "CPS"
*DISP_RANGE_BOTTOM "0.0000000000"
*DISP_RANGE_LEFT "5.0000000000"
*DISP_RANGE_LOGCUTOFF "0.0100000000"
*DISP_RANGE_RIGHT "65.0000000000"
*DISP_RANGE_TOP "3969.6000000000"
*DISP_SCALE_MODE_Y "0.0000000000"
*DISP_TAB_NAME "Theta/2-Theta"
*DISP_TITLE_Y "Intensity"
*DISP_UNIT_Y "CPS"
*DISP_WINDOW_NAME "MSG_MACROENGINE"
*FILE_COMMENT " "
*FILE_MD5 ""
*FILE_MEMO " "
*FILE_OPERATOR "Administrator"
*FILE_PART_ID "MEAS_PBEA_00223"
*FILE_SAMPLE " "
*FILE_TYPE "RAS_RAW"
*FILE_USERGROUP "System Manager"
*FILE_VERSION "1.0000000000"
*HW_ATTACHMENT_ID "ATT1031"
*HW_ATTACHMENT_NAME "6サンプルチェンジャ|ASC-6"
*HW_COUNTER_ID-0 "CUT0021"
*HW_COUNTER_ID-1 "CUT0020"
*HW_COUNTER_ID-2 "CUT0020"
*HW_COUNTER_ID-3 "CMC0021"
*HW_COUNTER_NAME-0 "SC-70|SC-70"
*HW_COUNTER_NAME-1 "None|None"
*HW_COUNTER_NAME-2 "None|None"
*HW_COUNTER_NAME-3 "検出器モノクロメータ|Detector monochromator"
*HW_COUNTER_SELECT_NAME "SC-70|SC-70"
*HW_ECP_HV "671.5000000000"
*HW_ECP_HV_UNIT "V"
*HW_GONIOMETER_ID "GON0070"
*HW_GONIOMETER_NAME "MiniFlex 300/600|MiniFlex 300/600"
*HW_GONIOMETER_RADIUS-0 "79.0"
*HW_GONIOMETER_RADIUS-1 "91.5"
*HW_GONIOMETER_RADIUS-2 "150.0"
*HW_GONIOMETER_RADIUS-3 "0"
*HW_GONIOMETER_RADIUS-4 "103.4"
*HW_GONIOMETER_RADIUS-5 "150.0"
*HW_GONIOMETER_RADIUS-6 "46.6"
*HW_GONIOMETER_RADIUS-7 "160.0"
*HW_I_OPT_ID-0 "ISL0021"
*HW_I_OPT_ID-1 "ISO0021"
*HW_I_OPT_NAME-0 "発散スリット|Divergence slit"
*HW_I_OPT_NAME-1 "入射平行スリット|Incident parallel slit"
*HW_R_ATTENUATER_AUTOMODE "0"
*HW_R_OPT_ID-0 "RSS0021"
*HW_R_OPT_ID-1 "RSO0021"
*HW_R_OPT_ID-2 "RRS0021"
*HW_R_OPT_NAME-0 "散乱スリット|Scattering slit"
*HW_R_OPT_NAME-1 "受光平行スリット|Receiving soller slit"
*HW_R_OPT_NAME-2 "受光スリット|Receiving slit"
*HW_SAMPLE_HOLDER_ID "SMP0000"
*HW_SAMPLE_HOLDER_NAME "無し|None"
*HW_XG_CURRENT_MAX "15"
*HW_XG_CURRENT_MIN "2"
*HW_XG_CURRENT_RESOLUTION "1"
*HW_XG_CURRENT_UNIT "mA"
*HW_XG_FOCUS "1mm x 10mm"
*HW_XG_FOCUS_TYPE "Normal"
*HW_XG_ID "1060"
*HW_XG_NAME "300W/600W 封入管-B|300W/600W Sealed tube-B"
*HW_XG_TARGET_ATOMIC_NUMBER "29.0000000000"
*HW_XG_TARGET_NAME "Cu"
*HW_XG_TYPE "Hermetic"
*HW_XG_VOLTAGE_MAX "40"
*HW_XG_VOLTAGE_MIN "20"
*HW_XG_VOLTAGE_RESOLUTION "1"
*HW_XG_VOLTAGE_UNIT "kV"
*HW_XG_WATT_MAX "0.600"
*HW_XG_WATT_UNIT "kW"
*HW_XG_WAVE_LENGTH_ALPHA1 "1.540593"
*HW_XG_WAVE_LENGTH_ALPHA2 "1.544414"
*HW_XG_WAVE_LENGTH_BETA "1.392250"
*MEAS_COND_AXIS_NAME-0 "Theta/2-Theta"
*MEAS_COND_AXIS_NAME-1 "Spin"
*MEAS_COND_AXIS_NAME-2 "Change"
*MEAS_COND_AXIS_NAME-3 "Soller(inc.)"
*MEAS_COND_AXIS_NAME-4 "IHS"
*MEAS_COND_AXIS_NAME-5 "DS"
*MEAS_COND_AXIS_NAME-6 "SS"
*MEAS_COND_AXIS_NAME-7 "Soller(rec.)"
*MEAS_COND_AXIS_NAME-8 "RS"
*MEAS_COND_AXIS_NAME-9 "Filter"
*MEAS_COND_AXIS_NAME-10 "Monochromator"
*MEAS_COND_AXIS_NAME-11 "HV"
*MEAS_COND_AXIS_NAME-12 "PHA"
*MEAS_COND_AXIS_NAME_INTERNAL-0 "TwoThetaTheta"
*MEAS_COND_AXIS_NAME_INTERNAL-1 "Spin"
*MEAS_COND_AXIS_NAME_INTERNAL-2 "Change"
*MEAS_COND_AXIS_NAME_INTERNAL-3 "IncidentSollerSlit"
*MEAS_COND_AXIS_NAME_INTERNAL-4 "IncidentAxdSlit"
*MEAS_COND_AXIS_NAME_INTERNAL-5 "IncidentSlitBox"
*MEAS_COND_AXIS_NAME_INTERNAL-6 "ReceivingSlitBox1"
*MEAS_COND_AXIS_NAME_INTERNAL-7 "ReceivingSollerSlit"
*MEAS_COND_AXIS_NAME_INTERNAL-8 "ReceivingSlitBox2"
*MEAS_COND_AXIS_NAME_INTERNAL-9 "Filter"
*MEAS_COND_AXIS_NAME_INTERNAL-10 "CounterMonochromator"
*MEAS_COND_AXIS_NAME_INTERNAL-11 "HV"
*MEAS_COND_AXIS_NAME_INTERNAL-12 "PHA"
*MEAS_COND_AXIS_NAME_MAGICNO-0 "268632064.0000000000"
*MEAS_COND_AXIS_NAME_MAGICNO-1 "16842752.0000000000"
*MEAS_COND_AXIS_NAME_MAGICNO-2 "16842752.0000000000"
*MEAS_COND_AXIS_NAME_MAGICNO-3 "20971521.0000000000"
*MEAS_COND_AXIS_NAME_MAGICNO-4 "22020097.0000000000"
*MEAS_COND_AXIS_NAME_MAGICNO-5 "22020097.0000000000"
*MEAS_COND_AXIS_NAME_MAGICNO-6 "23068673.0000000000"
*MEAS_COND_AXIS_NAME_MAGICNO-7 "20971521.0000000000"
*MEAS_COND_AXIS_NAME_MAGICNO-8 "23068673.0000000000"
*MEAS_COND_AXIS_NAME_MAGICNO-9 "20971521.0000000000"
*MEAS_COND_AXIS_NAME_MAGICNO-10 "20971521.0000000000"
*MEAS_COND_AXIS_NAME_MAGICNO-11 "0.0000000000"
*MEAS_COND_AXIS_NAME_MAGICNO-12 "0.0000000000"
*MEAS_COND_AXIS_OFFSET-0 "0.0000000000"
*MEAS_COND_AXIS_OFFSET-1 "-"
*MEAS_COND_AXIS_OFFSET-2 "-"
*MEAS_COND_AXIS_OFFSET-3 "-"
*MEAS_COND_AXIS_OFFSET-4 "-"
*MEAS_COND_AXIS_OFFSET-5 "-"
*MEAS_COND_AXIS_OFFSET-6 "-"
*MEAS_COND_AXIS_OFFSET-7 "-"
*MEAS_COND_AXIS_OFFSET-8 "-"
*MEAS_COND_AXIS_OFFSET-9 "-"
*MEAS_COND_AXIS_OFFSET-10 "-"
*MEAS_COND_AXIS_OFFSET-11 "-"
*MEAS_COND_AXIS_OFFSET-12 "-"
*MEAS_COND_AXIS_POSITION-0 "65.0000000000"
*MEAS_COND_AXIS_POSITION-1 "0.0000000000"
*MEAS_COND_AXIS_POSITION-2 "5.0000000000"
*MEAS_COND_AXIS_POSITION-3 "5.0deg"
*MEAS_COND_AXIS_POSITION-4 "10.0mm"
*MEAS_COND_AXIS_POSITION-5 "1.250deg"
*MEAS_COND_AXIS_POSITION-6 "1.250deg"
*MEAS_COND_AXIS_POSITION-7 "5.0deg"
*MEAS_COND_AXIS_POSITION-8 "0.3mm"
*MEAS_COND_AXIS_POSITION-9 "None"
*MEAS_COND_AXIS_POSITION-10 "Bent"
*MEAS_COND_AXIS_POSITION-11 "671.5000000000"
*MEAS_COND_AXIS_POSITION-12 "551.2500000000"
*MEAS_COND_AXIS_UNIT-0 "deg"
*MEAS_COND_AXIS_UNIT-1 ""
*MEAS_COND_AXIS_UNIT-2 ""
*MEAS_COND_AXIS_UNIT-3 ""
*MEAS_COND_AXIS_UNIT-4 ""
*MEAS_COND_AXIS_UNIT-5 ""
*MEAS_COND_AXIS_UNIT-6 ""
*MEAS_COND_AXIS_UNIT-7 ""
*MEAS_COND_AXIS_UNIT-8 ""
*MEAS_COND_AXIS_UNIT-9 ""
*MEAS_COND_AXIS_UNIT-10 ""
*MEAS_COND_AXIS_UNIT-11 "V"
*MEAS_COND_AXIS_UNIT-12 "mV"
*MEAS_COND_CORRECTION_SLIT_COUNTERMONO "None"
*MEAS_COND_CORRECTION_SLIT_DS "1.250deg"
*MEAS_COND_CORRECTION_SLIT_FILTER "None"
*MEAS_COND_CORRECTION_SLIT_IHS "10.0mm"
*MEAS_COND_CORRECTION_SLIT_RS "0.3mm"
*MEAS_COND_CORRECTION_SLIT_SOLLER_INC "5.0deg"
*MEAS_COND_CORRECTION_SLIT_SOLLER_REC "5.0deg"
*MEAS_COND_CORRECTION_SLIT_SS "1.250deg"
*MEAS_COND_COUNTER_CNTLOSS_CORR "0.0000000000"
*MEAS_COND_COUNTER_PHABASE "551.2500000000"
*MEAS_COND_COUNTER_PHAWINDOW "926.2500000000"
*MEAS_COND_COUNTER_PHA_UNIT "mV"
*MEAS_COND_COUNTER_TAUDIFF "0.2500000000"
*MEAS_COND_COUNTER_TAUINT "0.7500000000"
*MEAS_COND_IRRADIATION_MODE "OFF"
*MEAS_COND_IRRADIATION_WIDTH ""
*MEAS_COND_OPT_ATTR " "
*MEAS_COND_OPT_NAME ""
*MEAS_COND_UNSYMMETRIC_MODE "OFF"
*MEAS_COND_XG_CURRENT "15.0000000000"
*MEAS_COND_XG_VOLTAGE "40.0000000000"
*MEAS_COND_XG_WAVE_TYPE "Ka"
*MEAS_DATA_COUNT "3001.0000000000"
*MEAS_SCAN_AXIS_X "Theta/2-Theta"
*MEAS_SCAN_AXIS_X_INTERNAL "TwoThetaTheta"
*MEAS_SCAN_END_TIME "04/28/25 21:07:40"
*MEAS_SCAN_MODE "STEP"
*MEAS_SCAN_MONITOR "0"
*MEAS_SCAN_RESOLUTION_X "0.0025"
*MEAS_SCAN_SPEED "2.00"
*MEAS_SCAN_SPEED_UNIT "sec."
*MEAS_SCAN_SPEED_USER "2.00"
*MEAS_SCAN_START "5.0000000000"
*MEAS_SCAN_START_TIME "04/28/25 19:22:24"
*MEAS_SCAN_STEP "0.0200000000"
*MEAS_SCAN_STOP "65.0000000000"
*MEAS_SCAN_UNIT_X "deg"
*MEAS_SCAN_UNIT_Y "counts"
*SLIT_SYSTEM "0"
*RAS_HEADER_END
*RAS_INT_START
5.0000 986.0000 1.0000
5.0200 1023.0000 1.0000
5.0400 978.0000 1.0000
5.0600 974.0000 1.0000
5.0800 956.0000 1.0000
5.1000 849.0000 1.0000
5.1200 956.0000 1.0000
5.1400 912.0000 1.0000
5.1600 861.0000 1.0000
5.1800 901.0000 1.0000
5.2000 880.0000 1.0000
5.2200 891.0000 1.0000
5.2400 852.0000 1.0000
5.2600 880.0000 1.0000
5.2800 895.0000 1.0000
5.3000 856.0000 1.0000
5.3200 881.0000 1.0000
5.3400 871.0000 1.0000
5.3600 885.0000 1.0000
5.3800 889.0000 1.0000
5.4000 826.0000 1.0000
5.4200 813.0000 1.0000
5.4400 886.0000 1.0000
5.4600 814.0000 1.0000
5.4800 876.0000 1.0000
5.5000 794.0000 1.0000
5.5200 819.0000 1.0000
5.5400 816.0000 1.0000
5.5600 803.0000 1.0000
5.5800 827.0000 1.0000
5.6000 790.0000 1.0000
5.6200 768.0000 1.0000
5.6400 834.0000 1.0000
5.6600 802.0000 1.0000
5.6800 861.0000 1.0000
5.7000 865.0000 1.0000
5.7200 901.0000 1.0000
5.7400 882.0000 1.0000
5.7600 759.0000 1.0000
5.7800 788.0000 1.0000
5.8000 799.0000 1.0000
5.8200 805.0000 1.0000
5.8400 835.0000 1.0000
5.8600 838.0000 1.0000
5.8800 788.0000 1.0000
5.9000 813.0000 1.0000
5.9200 767.0000 1.0000
5.9400 758.0000 1.0000
5.9600 768.0000 1.0000
5.9800 831.0000 1.0000
6.0000 840.0000 1.0000
6.0200 847.0000 1.0000
6.0400 813.0000 1.0000
6.0600 743.0000 1.0000
6.0800 799.0000 1.0000
6.1000 845.0000 1.0000
6.1200 809.0000 1.0000
6.1400 760.0000 1.0000
6.1600 764.0000 1.0000
6.1800 795.0000 1.0000
6.2000 744.0000 1.0000
6.2200 712.0000 1.0000
6.2400 739.0000 1.0000
6.2600 707.0000 1.0000
6.2800 675.0000 1.0000
6.3000 756.0000 1.0000
6.3200 765.0000 1.0000
6.3400 710.0000 1.0000
6.3600 605.0000 1.0000
6.3800 644.0000 1.0000
6.4000 700.0000 1.0000
6.4200 660.0000 1.0000
6.4400 687.0000 1.0000
6.4600 740.0000 1.0000
6.4800 680.0000 1.0000
6.5000 664.0000 1.0000
6.5200 659.0000 1.0000
6.5400 660.0000 1.0000
6.5600 666.0000 1.0000
6.5800 633.0000 1.0000
6.6000 597.0000 1.0000
6.6200 615.0000 1.0000
6.6400 624.0000 1.0000
6.6600 617.0000 1.0000
6.6800 629.0000 1.0000
6.7000 641.0000 1.0000
6.7200 603.0000 1.0000
6.7400 601.0000 1.0000
6.7600 597.0000 1.0000
6.7800 587.0000 1.0000
6.8000 560.0000 1.0000
6.8200 540.0000 1.0000
6.8400 571.0000 1.0000
6.8600 588.0000 1.0000
6.8800 535.0000 1.0000
6.9000 555.0000 1.0000
6.9200 602.0000 1.0000
6.9400 576.0000 1.0000
6.9600 545.0000 1.0000
6.9800 578.0000 1.0000
7.0000 582.0000 1.0000
7.0200 585.0000 1.0000
7.0400 610.0000 1.0000
7.0600 558.0000 1.0000
7.0800 528.0000 1.0000
7.1000 534.0000 1.0000
7.1200 561.0000 1.0000
7.1400 576.0000 1.0000
7.1600 537.0000 1.0000
7.1800 536.0000 1.0000
7.2000 506.0000 1.0000
7.2200 486.0000 1.0000
7.2400 526.0000 1.0000
7.2600 494.0000 1.0000
7.2800 464.0000 1.0000
7.3000 517.0000 1.0000
7.3200 513.0000 1.0000
7.3400 478.0000 1.0000
7.3600 530.0000 1.0000
7.3800 552.0000 1.0000
7.4000 520.0000 1.0000
7.4200 476.0000 1.0000
7.4400 497.0000 1.0000
7.4600 536.0000 1.0000
7.4800 512.0000 1.0000
7.5000 506.0000 1.0000
7.5200 494.0000 1.0000
7.5400 466.0000 1.0000
7.5600 450.0000 1.0000
7.5800 486.0000 1.0000
7.6000 474.0000 1.0000
7.6200 454.0000 1.0000
7.6400 452.0000 1.0000
7.6600 473.0000 1.0000
7.6800 462.0000 1.0000
7.7000 446.0000 1.0000
7.7200 482.0000 1.0000
7.7400 461.0000 1.0000
7.7600 426.0000 1.0000
7.7800 451.0000 1.0000
7.8000 477.0000 1.0000
7.8200 447.0000 1.0000
7.8400 498.0000 1.0000
7.8600 502.0000 1.0000
7.8800 443.0000 1.0000
7.9000 473.0000 1.0000
7.9200 486.0000 1.0000
7.9400 478.0000 1.0000
7.9600 439.0000 1.0000
7.9800 421.0000 1.0000
8.0000 458.0000 1.0000
8.0200 480.0000 1.0000
8.0400 500.0000 1.0000
8.0600 447.0000 1.0000
8.0800 483.0000 1.0000
8.1000 494.0000 1.0000
8.1200 481.0000 1.0000
8.1400 477.0000 1.0000
8.1600 485.0000 1.0000
8.1800 468.0000 1.0000
8.2000 467.0000 1.0000
8.2200 500.0000 1.0000
8.2400 465.0000 1.0000
8.2600 486.0000 1.0000
8.2800 526.0000 1.0000
8.3000 524.0000 1.0000
8.3200 508.0000 1.0000
8.3400 497.0000 1.0000
8.3600 530.0000 1.0000
8.3800 560.0000 1.0000
8.4000 587.0000 1.0000
8.4200 592.0000 1.0000
8.4400 573.0000 1.0000
8.4600 530.0000 1.0000
8.4800 579.0000 1.0000
8.5000 631.0000 1.0000
8.5200 658.0000 1.0000
8.5400 628.0000 1.0000
8.5600 670.0000 1.0000
8.5800 714.0000 1.0000
8.6000 710.0000 1.0000
8.6200 702.0000 1.0000
8.6400 720.0000 1.0000
8.6600 742.0000 1.0000
8.6800 745.0000 1.0000
8.7000 655.0000 1.0000
8.7200 690.0000 1.0000
8.7400 573.0000 1.0000
8.7600 548.0000 1.0000
8.7800 524.0000 1.0000
8.8000 448.0000 1.0000
8.8200 424.0000 1.0000
8.8400 406.0000 1.0000
8.8600 386.0000 1.0000
8.8800 375.0000 1.0000
8.9000 430.0000 1.0000
8.9200 354.0000 1.0000
8.9400 351.0000 1.0000
8.9600 373.0000 1.0000
8.9800 370.0000 1.0000
9.0000 357.0000 1.0000
9.0200 325.0000 1.0000
9.0400 333.0000 1.0000
9.0600 371.0000 1.0000
9.0800 379.0000 1.0000
9.1000 380.0000 1.0000
9.1200 363.0000 1.0000
9.1400 409.0000 1.0000
9.1600 345.0000 1.0000
9.1800 358.0000 1.0000
9.2000 380.0000 1.0000
9.2200 407.0000 1.0000
9.2400 415.0000 1.0000
9.2600 363.0000 1.0000
9.2800 344.0000 1.0000
9.3000 334.0000 1.0000
9.3200 289.0000 1.0000
9.3400 344.0000 1.0000
9.3600 284.0000 1.0000
9.3800 269.0000 1.0000
9.4000 366.0000 1.0000
9.4200 361.0000 1.0000
9.4400 307.0000 1.0000
9.4600 300.0000 1.0000
9.4800 254.0000 1.0000
9.5000 279.0000 1.0000
9.5200 302.0000 1.0000
9.5400 286.0000 1.0000
9.5600 270.0000 1.0000
9.5800 300.0000 1.0000
9.6000 265.0000 1.0000
9.6200 258.0000 1.0000
9.6400 264.0000 1.0000
9.6600 292.0000 1.0000
9.6800 255.0000 1.0000
9.7000 287.0000 1.0000
9.7200 225.0000 1.0000
9.7400 230.0000 1.0000
9.7600 262.0000 1.0000
9.7800 210.0000 1.0000
9.8000 290.0000 1.0000
9.8200 230.0000 1.0000
9.8400 256.0000 1.0000
9.8600 245.0000 1.0000
9.8800 225.0000 1.0000
9.9000 255.0000 1.0000
9.9200 271.0000 1.0000
9.9400 235.0000 1.0000
9.9600 220.0000 1.0000
9.9800 260.0000 1.0000
10.0000 265.0000 1.0000
10.0200 228.0000 1.0000
10.0400 249.0000 1.0000
10.0600 260.0000 1.0000
10.0800 258.0000 1.0000
10.1000 255.0000 1.0000
10.1200 255.0000 1.0000
10.1400 256.0000 1.0000
10.1600 261.0000 1.0000
10.1800 275.0000 1.0000
10.2000 244.0000 1.0000
10.2200 273.0000 1.0000
10.2400 237.0000 1.0000
10.2600 257.0000 1.0000
10.2800 247.0000 1.0000
10.3000 241.0000 1.0000
10.3200 281.0000 1.0000
10.3400 237.0000 1.0000
10.3600 193.0000 1.0000
10.3800 243.0000 1.0000
10.4000 205.0000 1.0000
10.4200 194.0000 1.0000
10.4400 217.0000 1.0000
10.4600 225.0000 1.0000
10.4800 173.0000 1.0000
10.5000 183.0000 1.0000
10.5200 235.0000 1.0000
10.5400 211.0000 1.0000
10.5600 191.0000 1.0000
10.5800 184.0000 1.0000
10.6000 175.0000 1.0000
10.6200 171.0000 1.0000
10.6400 162.0000 1.0000
10.6600 221.0000 1.0000
10.6800 198.0000 1.0000
10.7000 189.0000 1.0000
10.7200 209.0000 1.0000
10.7400 188.0000 1.0000
10.7600 177.0000 1.0000
10.7800 154.0000 1.0000
10.8000 183.0000 1.0000
10.8200 214.0000 1.0000
10.8400 190.0000 1.0000
10.8600 203.0000 1.0000
10.8800 182.0000 1.0000
10.9000 196.0000 1.0000
10.9200 190.0000 1.0000
10.9400 178.0000 1.0000
10.9600 157.0000 1.0000
10.9800 162.0000 1.0000
11.0000 182.0000 1.0000
11.0200 171.0000 1.0000
11.0400 191.0000 1.0000
11.0600 191.0000 1.0000
11.0800 175.0000 1.0000
11.1000 185.0000 1.0000
11.1200 188.0000 1.0000
11.1400 161.0000 1.0000
11.1600 199.0000 1.0000
11.1800 142.0000 1.0000
11.2000 179.0000 1.0000
11.2200 158.0000 1.0000
11.2400 158.0000 1.0000
11.2600 186.0000 1.0000
11.2800 179.0000 1.0000
11.3000 177.0000 1.0000
11.3200 205.0000 1.0000
11.3400 216.0000 1.0000
11.3600 186.0000 1.0000
11.3800 184.0000 1.0000
11.4000 167.0000 1.0000
11.4200 169.0000 1.0000
11.4400 199.0000 1.0000
11.4600 178.0000 1.0000
11.4800 187.0000 1.0000
11.5000 163.0000 1.0000
11.5200 153.0000 1.0000
11.5400 178.0000 1.0000
11.5600 196.0000 1.0000
11.5800 191.0000 1.0000
11.6000 172.0000 1.0000
11.6200 169.0000 1.0000
11.6400 172.0000 1.0000
11.6600 172.0000 1.0000
11.6800 194.0000 1.0000
11.7000 169.0000 1.0000
11.7200 166.0000 1.0000
11.7400 185.0000 1.0000
11.7600 173.0000 1.0000
11.7800 176.0000 1.0000
11.8000 171.0000 1.0000
11.8200 193.0000 1.0000
11.8400 183.0000 1.0000
11.8600 203.0000 1.0000
11.8800 189.0000 1.0000
11.9000 206.0000 1.0000
11.9200 213.0000 1.0000
11.9400 204.0000 1.0000
11.9600 186.0000 1.0000
11.9800 212.0000 1.0000
12.0000 223.0000 1.0000
12.0200 240.0000 1.0000
12.0400 214.0000 1.0000
12.0600 216.0000 1.0000
12.0800 200.0000 1.0000
12.1000 246.0000 1.0000
12.1200 252.0000 1.0000
12.1400 239.0000 1.0000
12.1600 277.0000 1.0000
12.1800 267.0000 1.0000
12.2000 294.0000 1.0000
12.2200 289.0000 1.0000
12.2400 316.0000 1.0000
12.2600 320.0000 1.0000
12.2800 353.0000 1.0000
12.3000 363.0000 1.0000
12.3200 331.0000 1.0000
12.3400 343.0000 1.0000
12.3600 284.0000 1.0000
12.3800 307.0000 1.0000
12.4000 270.0000 1.0000
12.4200 235.0000 1.0000
12.4400 220.0000 1.0000
12.4600 192.0000 1.0000
12.4800 222.0000 1.0000
12.5000 212.0000 1.0000
12.5200 194.0000 1.0000
12.5400 180.0000 1.0000
12.5600 162.0000 1.0000
12.5800 175.0000 1.0000
12.6000 175.0000 1.0000
12.6200 181.0000 1.0000
12.6400 173.0000 1.0000
12.6600 180.0000 1.0000
12.6800 176.0000 1.0000
12.7000 150.0000 1.0000
12.7200 184.0000 1.0000
12.7400 185.0000 1.0000
12.7600 188.0000 1.0000
12.7800 165.0000 1.0000
12.8000 171.0000 1.0000
12.8200 162.0000 1.0000
12.8400 168.0000 1.0000
12.8600 147.0000 1.0000
12.8800 164.0000 1.0000
12.9000 175.0000 1.0000
12.9200 171.0000 1.0000
12.9400 165.0000 1.0000
12.9600 149.0000 1.0000
12.9800 157.0000 1.0000
13.0000 150.0000 1.0000
13.0200 137.0000 1.0000
13.0400 148.0000 1.0000
13.0600 173.0000 1.0000
13.0800 172.0000 1.0000
13.1000 154.0000 1.0000
13.1200 151.0000 1.0000
13.1400 164.0000 1.0000
13.1600 158.0000 1.0000
13.1800 148.0000 1.0000
13.2000 160.0000 1.0000
13.2200 166.0000 1.0000
13.2400 179.0000 1.0000
13.2600 175.0000 1.0000
13.2800 161.0000 1.0000
13.3000 167.0000 1.0000
13.3200 171.0000 1.0000
13.3400 198.0000 1.0000
13.3600 204.0000 1.0000
13.3800 213.0000 1.0000
13.4000 211.0000 1.0000
13.4200 236.0000 1.0000
13.4400 255.0000 1.0000
13.4600 256.0000 1.0000
13.4800 262.0000 1.0000
13.5000 258.0000 1.0000
13.5200 251.0000 1.0000
13.5400 239.0000 1.0000
13.5600 237.0000 1.0000
13.5800 237.0000 1.0000
13.6000 231.0000 1.0000
13.6200 221.0000 1.0000
13.6400 233.0000 1.0000
13.6600 248.0000 1.0000
13.6800 241.0000 1.0000
13.7000 238.0000 1.0000
13.7200 240.0000 1.0000
13.7400 229.0000 1.0000
13.7600 224.0000 1.0000
13.7800 187.0000 1.0000
13.8000 145.0000 1.0000
13.8200 141.0000 1.0000
13.8400 154.0000 1.0000
13.8600 153.0000 1.0000
13.8800 138.0000 1.0000
13.9000 147.0000 1.0000
13.9200 138.0000 1.0000
13.9400 121.0000 1.0000
13.9600 121.0000 1.0000
13.9800 133.0000 1.0000
14.0000 126.0000 1.0000
14.0200 117.0000 1.0000
14.0400 125.0000 1.0000
14.0600 122.0000 1.0000
14.0800 117.0000 1.0000
14.1000 125.0000 1.0000
14.1200 121.0000 1.0000
14.1400 134.0000 1.0000
14.1600 147.0000 1.0000
14.1800 133.0000 1.0000
14.2000 113.0000 1.0000
14.2200 115.0000 1.0000
14.2400 135.0000 1.0000
14.2600 119.0000 1.0000
14.2800 106.0000 1.0000
14.3000 124.0000 1.0000
14.3200 135.0000 1.0000
14.3400 128.0000 1.0000
14.3600 120.0000 1.0000
14.3800 129.0000 1.0000
14.4000 129.0000 1.0000
14.4200 125.0000 1.0000
14.4400 128.0000 1.0000
14.4600 120.0000 1.0000
14.4800 119.0000 1.0000
14.5000 117.0000 1.0000
14.5200 117.0000 1.0000
14.5400 113.0000 1.0000
14.5600 126.0000 1.0000
14.5800 143.0000 1.0000
14.6000 131.0000 1.0000
14.6200 125.0000 1.0000
14.6400 124.0000 1.0000
14.6600 121.0000 1.0000
14.6800 120.0000 1.0000
14.7000 125.0000 1.0000
14.7200 149.0000 1.0000
14.7400 150.0000 1.0000
14.7600 133.0000 1.0000
14.7800 127.0000 1.0000
14.8000 144.0000 1.0000
14.8200 145.0000 1.0000
14.8400 134.0000 1.0000
14.8600 150.0000 1.0000
14.8800 146.0000 1.0000
14.9000 142.0000 1.0000
14.9200 154.0000 1.0000
14.9400 150.0000 1.0000
14.9600 146.0000 1.0000
14.9800 142.0000 1.0000
15.0000 142.0000 1.0000
15.0200 136.0000 1.0000
15.0400 122.0000 1.0000
15.0600 121.0000 1.0000
15.0800 113.0000 1.0000
15.1000 119.0000 1.0000
15.1200 135.0000 1.0000
15.1400 131.0000 1.0000
15.1600 116.0000 1.0000
15.1800 110.0000 1.0000
15.2000 116.0000 1.0000
15.2200 113.0000 1.0000
15.2400 114.0000 1.0000
15.2600 118.0000 1.0000
15.2800 116.0000 1.0000
15.3000 111.0000 1.0000
15.3200 114.0000 1.0000
15.3400 120.0000 1.0000
15.3600 111.0000 1.0000
15.3800 113.0000 1.0000
15.4000 133.0000 1.0000
15.4200 130.0000 1.0000
15.4400 116.0000 1.0000
15.4600 124.0000 1.0000
15.4800 127.0000 1.0000
15.5000 120.0000 1.0000
15.5200 119.0000 1.0000
15.5400 123.0000 1.0000
15.5600 114.0000 1.0000
15.5800 112.0000 1.0000
15.6000 115.0000 1.0000
15.6200 114.0000 1.0000
15.6400 104.0000 1.0000
15.6600 112.0000 1.0000
15.6800 128.0000 1.0000
15.7000 120.0000 1.0000
15.7200 120.0000 1.0000
15.7400 117.0000 1.0000
15.7600 119.0000 1.0000
15.7800 121.0000 1.0000
15.8000 114.0000 1.0000
15.8200 107.0000 1.0000
15.8400 110.0000 1.0000
15.8600 115.0000 1.0000
15.8800 116.0000 1.0000
15.9000 112.0000 1.0000
15.9200 112.0000 1.0000
15.9400 123.0000 1.0000
15.9600 121.0000 1.0000
15.9800 121.0000 1.0000
16.0000 119.0000 1.0000
16.0200 127.0000 1.0000
16.0400 118.0000 1.0000
16.0600 106.0000 1.0000
16.0800 122.0000 1.0000
16.1000 122.0000 1.0000
16.1200 122.0000 1.0000
16.1400 115.0000 1.0000
16.1600 101.0000 1.0000
16.1800 109.0000 1.0000
16.2000 119.0000 1.0000
16.2200 120.0000 1.0000
16.2400 118.0000 1.0000
16.2600 104.0000 1.0000
16.2800 106.0000 1.0000
16.3000 122.0000 1.0000
16.3200 125.0000 1.0000
16.3400 118.0000 1.0000
16.3600 121.0000 1.0000
16.3800 126.0000 1.0000
16.4000 123.0000 1.0000
16.4200 133.0000 1.0000
16.4400 121.0000 1.0000
16.4600 104.0000 1.0000
16.4800 102.0000 1.0000
16.5000 109.0000 1.0000
16.5200 103.0000 1.0000
16.5400 119.0000 1.0000
16.5600 121.0000 1.0000
16.5800 121.0000 1.0000
16.6000 121.0000 1.0000
16.6200 117.0000 1.0000
16.6400 118.0000 1.0000
16.6600 120.0000 1.0000
16.6800 130.0000 1.0000
16.7000 122.0000 1.0000
16.7200 118.0000 1.0000
16.7400 133.0000 1.0000
16.7600 133.0000 1.0000
16.7800 118.0000 1.0000
16.8000 125.0000 1.0000
16.8200 121.0000 1.0000
16.8400 117.0000 1.0000
16.8600 126.0000 1.0000
16.8800 113.0000 1.0000
16.9000 115.0000 1.0000
16.9200 114.0000 1.0000
16.9400 111.0000 1.0000
16.9600 117.0000 1.0000
16.9800 121.0000 1.0000
17.0000 125.0000 1.0000
17.0200 107.0000 1.0000
17.0400 107.0000 1.0000
17.0600 110.0000 1.0000
17.0800 121.0000 1.0000
17.1000 126.0000 1.0000
17.1200 116.0000 1.0000
17.1400 122.0000 1.0000
17.1600 132.0000 1.0000
17.1800 110.0000 1.0000
17.2000 122.0000 1.0000
17.2200 124.0000 1.0000
17.2400 132.0000 1.0000
17.2600 125.0000 1.0000
17.2800 124.0000 1.0000
17.3000 139.0000 1.0000
17.3200 140.0000 1.0000
17.3400 126.0000 1.0000
17.3600 140.0000 1.0000
17.3800 138.0000 1.0000
17.4000 141.0000 1.0000
17.4200 160.0000 1.0000
17.4400 171.0000 1.0000
17.4600 164.0000 1.0000
17.4800 161.0000 1.0000
17.5000 145.0000 1.0000
17.5200 137.0000 1.0000
17.5400 160.0000 1.0000
17.5600 159.0000 1.0000
17.5800 166.0000 1.0000
17.6000 179.0000 1.0000
17.6200 167.0000 1.0000
17.6400 172.0000 1.0000
17.6600 146.0000 1.0000
17.6800 153.0000 1.0000
17.7000 143.0000 1.0000
17.7200 144.0000 1.0000
17.7400 146.0000 1.0000
17.7600 136.0000 1.0000
17.7800 139.0000 1.0000
17.8000 143.0000 1.0000
17.8200 129.0000 1.0000
17.8400 115.0000 1.0000
17.8600 138.0000 1.0000
17.8800 136.0000 1.0000
17.9000 138.0000 1.0000
17.9200 148.0000 1.0000
17.9400 131.0000 1.0000
17.9600 109.0000 1.0000
17.9800 108.0000 1.0000
18.0000 121.0000 1.0000
18.0200 123.0000 1.0000
18.0400 126.0000 1.0000
18.0600 122.0000 1.0000
18.0800 126.0000 1.0000
18.1000 111.0000 1.0000
18.1200 126.0000 1.0000
18.1400 120.0000 1.0000
18.1600 115.0000 1.0000
18.1800 119.0000 1.0000
18.2000 123.0000 1.0000
18.2200 156.0000 1.0000
18.2400 136.0000 1.0000
18.2600 130.0000 1.0000
18.2800 122.0000 1.0000
18.3000 122.0000 1.0000
18.3200 141.0000 1.0000
18.3400 145.0000 1.0000
18.3600 122.0000 1.0000
18.3800 124.0000 1.0000
18.4000 123.0000 1.0000
18.4200 125.0000 1.0000
18.4400 114.0000 1.0000
18.4600 144.0000 1.0000
18.4800 152.0000 1.0000
18.5000 156.0000 1.0000
18.5200 123.0000 1.0000
18.5400 142.0000 1.0000
18.5600 153.0000 1.0000
18.5800 149.0000 1.0000
18.6000 168.0000 1.0000
18.6200 162.0000 1.0000
18.6400 167.0000 1.0000
18.6600 173.0000 1.0000
18.6800 201.0000 1.0000
18.7000 204.0000 1.0000
18.7200 196.0000 1.0000
18.7400 189.0000 1.0000
18.7600 205.0000 1.0000
18.7800 189.0000 1.0000
18.8000 196.0000 1.0000
18.8200 191.0000 1.0000
18.8400 180.0000 1.0000
18.8600 176.0000 1.0000
18.8800 178.0000 1.0000
18.9000 158.0000 1.0000
18.9200 160.0000 1.0000
18.9400 142.0000 1.0000
18.9600 165.0000 1.0000
18.9800 164.0000 1.0000
19.0000 161.0000 1.0000
19.0200 177.0000 1.0000
19.0400 185.0000 1.0000
19.0600 180.0000 1.0000
19.0800 211.0000 1.0000
19.1000 177.0000 1.0000
19.1200 218.0000 1.0000
19.1400 201.0000 1.0000
19.1600 207.0000 1.0000
19.1800 210.0000 1.0000
19.2000 195.0000 1.0000
19.2200 203.0000 1.0000
19.2400 193.0000 1.0000
19.2600 202.0000 1.0000
19.2800 190.0000 1.0000
19.3000 169.0000 1.0000
19.3200 170.0000 1.0000
19.3400 176.0000 1.0000
19.3600 194.0000 1.0000
19.3800 197.0000 1.0000
19.4000 186.0000 1.0000
19.4200 190.0000 1.0000
19.4400 222.0000 1.0000
19.4600 230.0000 1.0000
19.4800 234.0000 1.0000
19.5000 232.0000 1.0000
19.5200 245.0000 1.0000
19.5400 243.0000 1.0000
19.5600 278.0000 1.0000
19.5800 284.0000 1.0000
19.6000 318.0000 1.0000
19.6200 287.0000 1.0000
19.6400 304.0000 1.0000
19.6600 364.0000 1.0000
19.6800 331.0000 1.0000
19.7000 335.0000 1.0000
19.7200 311.0000 1.0000
19.7400 266.0000 1.0000
19.7600 248.0000 1.0000
19.7800 259.0000 1.0000
19.8000 234.0000 1.0000
19.8200 254.0000 1.0000
19.8400 266.0000 1.0000
19.8600 234.0000 1.0000
19.8800 255.0000 1.0000
19.9000 245.0000 1.0000
19.9200 224.0000 1.0000
19.9400 217.0000 1.0000
19.9600 208.0000 1.0000
19.9800 209.0000 1.0000
20.0000 214.0000 1.0000
20.0200 204.0000 1.0000
20.0400 162.0000 1.0000
20.0600 203.0000 1.0000
20.0800 199.0000 1.0000
20.1000 169.0000 1.0000
20.1200 170.0000 1.0000
20.1400 188.0000 1.0000
20.1600 201.0000 1.0000
20.1800 194.0000 1.0000
20.2000 163.0000 1.0000
20.2200 203.0000 1.0000
20.2400 175.0000 1.0000
20.2600 197.0000 1.0000
20.2800 183.0000 1.0000
20.3000 223.0000 1.0000
20.3200 222.0000 1.0000
20.3400 221.0000 1.0000
20.3600 243.0000 1.0000
20.3800 230.0000 1.0000
20.4000 247.0000 1.0000
20.4200 244.0000 1.0000
20.4400 276.0000 1.0000
20.4600 268.0000 1.0000
20.4800 268.0000 1.0000
20.5000 333.0000 1.0000
20.5200 371.0000 1.0000
20.5400 384.0000 1.0000
20.5600 430.0000 1.0000
20.5800 488.0000 1.0000
20.6000 615.0000 1.0000
20.6200 800.0000 1.0000
20.6400 939.0000 1.0000
20.6600 1076.0000 1.0000
20.6800 1345.0000 1.0000
20.7000 1387.0000 1.0000
20.7200 1440.0000 1.0000
20.7400 1372.0000 1.0000
20.7600 1204.0000 1.0000
20.7800 894.0000 1.0000
20.8000 672.0000 1.0000
20.8200 570.0000 1.0000
20.8400 417.0000 1.0000
20.8600 321.0000 1.0000
20.8800 289.0000 1.0000
20.9000 293.0000 1.0000
20.9200 262.0000 1.0000
20.9400 236.0000 1.0000
20.9600 217.0000 1.0000
20.9800 226.0000 1.0000
21.0000 203.0000 1.0000
21.0200 198.0000 1.0000
21.0400 213.0000 1.0000
21.0600 175.0000 1.0000
21.0800 184.0000 1.0000
21.1000 184.0000 1.0000
21.1200 190.0000 1.0000
21.1400 170.0000 1.0000
21.1600 181.0000 1.0000
21.1800 163.0000 1.0000
21.2000 183.0000 1.0000
21.2200 196.0000 1.0000
21.2400 150.0000 1.0000
21.2600 181.0000 1.0000
21.2800 186.0000 1.0000
21.3000 165.0000 1.0000
21.3200 159.0000 1.0000
21.3400 189.0000 1.0000
21.3600 146.0000 1.0000
21.3800 171.0000 1.0000
21.4000 172.0000 1.0000
21.4200 189.0000 1.0000
21.4400 159.0000 1.0000
21.4600 177.0000 1.0000
21.4800 199.0000 1.0000
21.5000 201.0000 1.0000
21.5200 179.0000 1.0000
21.5400 204.0000 1.0000
21.5600 200.0000 1.0000
21.5800 206.0000 1.0000
21.6000 226.0000 1.0000
21.6200 236.0000 1.0000
21.6400 236.0000 1.0000
21.6600 286.0000 1.0000
21.6800 267.0000 1.0000
21.7000 345.0000 1.0000
21.7200 397.0000 1.0000
21.7400 439.0000 1.0000
21.7600 475.0000 1.0000
21.7800 569.0000 1.0000
21.8000 665.0000 1.0000
21.8200 638.0000 1.0000
21.8400 646.0000 1.0000
21.8600 608.0000 1.0000
21.8800 568.0000 1.0000
21.9000 493.0000 1.0000
21.9200 397.0000 1.0000
21.9400 308.0000 1.0000
21.9600 282.0000 1.0000
21.9800 233.0000 1.0000
22.0000 213.0000 1.0000
22.0200 204.0000 1.0000
22.0400 172.0000 1.0000
22.0600 160.0000 1.0000
22.0800 172.0000 1.0000
22.1000 161.0000 1.0000
22.1200 158.0000 1.0000
22.1400 154.0000 1.0000
22.1600 164.0000 1.0000
22.1800 179.0000 1.0000
22.2000 158.0000 1.0000
22.2200 151.0000 1.0000
22.2400 163.0000 1.0000
22.2600 176.0000 1.0000
22.2800 161.0000 1.0000
22.3000 170.0000 1.0000
22.3200 160.0000 1.0000
22.3400 188.0000 1.0000
22.3600 197.0000 1.0000
22.3800 174.0000 1.0000
22.4000 170.0000 1.0000
22.4200 178.0000 1.0000
22.4400 191.0000 1.0000
22.4600 194.0000 1.0000
22.4800 183.0000 1.0000
22.5000 190.0000 1.0000
22.5200 200.0000 1.0000
22.5400 182.0000 1.0000
22.5600 210.0000 1.0000
22.5800 211.0000 1.0000
22.6000 223.0000 1.0000
22.6200 207.0000 1.0000
22.6400 208.0000 1.0000
22.6600 198.0000 1.0000
22.6800 206.0000 1.0000
22.7000 218.0000 1.0000
22.7200 224.0000 1.0000
22.7400 224.0000 1.0000
22.7600 203.0000 1.0000
22.7800 202.0000 1.0000
22.8000 197.0000 1.0000
22.8200 196.0000 1.0000
22.8400 210.0000 1.0000
22.8600 211.0000 1.0000
22.8800 207.0000 1.0000
22.9000 209.0000 1.0000
22.9200 197.0000 1.0000
22.9400 178.0000 1.0000
22.9600 178.0000 1.0000
22.9800 185.0000 1.0000
23.0000 171.0000 1.0000
23.0200 160.0000 1.0000
23.0400 159.0000 1.0000
23.0600 197.0000 1.0000
23.0800 194.0000 1.0000
23.1000 196.0000 1.0000
23.1200 182.0000 1.0000
23.1400 184.0000 1.0000
23.1600 203.0000 1.0000
23.1800 175.0000 1.0000
23.2000 210.0000 1.0000
23.2200 242.0000 1.0000
23.2400 234.0000 1.0000
23.2600 260.0000 1.0000
23.2800 263.0000 1.0000
23.3000 294.0000 1.0000
23.3200 316.0000 1.0000
23.3400 392.0000 1.0000
23.3600 398.0000 1.0000
23.3800 440.0000 1.0000
23.4000 486.0000 1.0000
23.4200 527.0000 1.0000
23.4400 504.0000 1.0000
23.4600 548.0000 1.0000
23.4800 595.0000 1.0000
23.5000 559.0000 1.0000
23.5200 517.0000 1.0000
23.5400 479.0000 1.0000
23.5600 470.0000 1.0000
23.5800 419.0000 1.0000
23.6000 381.0000 1.0000
23.6200 324.0000 1.0000
23.6400 308.0000 1.0000
23.6600 281.0000 1.0000
23.6800 261.0000 1.0000
23.7000 256.0000 1.0000
23.7200 236.0000 1.0000
23.7400 219.0000 1.0000
23.7600 194.0000 1.0000
23.7800 210.0000 1.0000
23.8000 218.0000 1.0000
23.8200 218.0000 1.0000
23.8400 231.0000 1.0000
23.8600 207.0000 1.0000
23.8800 218.0000 1.0000
23.9000 219.0000 1.0000
23.9200 249.0000 1.0000
23.9400 273.0000 1.0000
23.9600 255.0000 1.0000
23.9800 256.0000 1.0000
24.0000 274.0000 1.0000
24.0200 310.0000 1.0000
24.0400 299.0000 1.0000
24.0600 297.0000 1.0000
24.0800 329.0000 1.0000
24.1000 320.0000 1.0000
24.1200 323.0000 1.0000
24.1400 331.0000 1.0000
24.1600 358.0000 1.0000
24.1800 345.0000 1.0000
24.2000 366.0000 1.0000
24.2200 355.0000 1.0000
24.2400 391.0000 1.0000
24.2600 388.0000 1.0000
24.2800 385.0000 1.0000
24.3000 372.0000 1.0000
24.3200 374.0000 1.0000
24.3400 360.0000 1.0000
24.3600 375.0000 1.0000
24.3800 355.0000 1.0000
24.4000 326.0000 1.0000
24.4200 313.0000 1.0000
24.4400 305.0000 1.0000
24.4600 281.0000 1.0000
24.4800 258.0000 1.0000
24.5000 247.0000 1.0000
24.5200 210.0000 1.0000
24.5400 196.0000 1.0000
24.5600 200.0000 1.0000
24.5800 174.0000 1.0000
24.6000 180.0000 1.0000
24.6200 172.0000 1.0000
24.6400 164.0000 1.0000
24.6600 174.0000 1.0000
24.6800 185.0000 1.0000
24.7000 181.0000 1.0000
24.7200 177.0000 1.0000
24.7400 172.0000 1.0000
24.7600 183.0000 1.0000
24.7800 192.0000 1.0000
24.8000 193.0000 1.0000
24.8200 204.0000 1.0000
24.8400 208.0000 1.0000
24.8600 205.0000 1.0000
24.8800 219.0000 1.0000
24.9000 215.0000 1.0000
24.9200 226.0000 1.0000
24.9400 229.0000 1.0000
24.9600 217.0000 1.0000
24.9800 262.0000 1.0000
25.0000 268.0000 1.0000
25.0200 264.0000 1.0000
25.0400 261.0000 1.0000
25.0600 271.0000 1.0000
25.0800 242.0000 1.0000
25.1000 250.0000 1.0000
25.1200 268.0000 1.0000
25.1400 275.0000 1.0000
25.1600 271.0000 1.0000
25.1800 284.0000 1.0000
25.2000 317.0000 1.0000
25.2200 331.0000 1.0000
25.2400 364.0000 1.0000
25.2600 379.0000 1.0000
25.2800 447.0000 1.0000
25.3000 533.0000 1.0000
25.3200 617.0000 1.0000
25.3400 751.0000 1.0000
25.3600 910.0000 1.0000
25.3800 1046.0000 1.0000
25.4000 1208.0000 1.0000
25.4200 1251.0000 1.0000
25.4400 1251.0000 1.0000
25.4600 1218.0000 1.0000
25.4800 1096.0000 1.0000
25.5000 925.0000 1.0000
25.5200 778.0000 1.0000
25.5400 646.0000 1.0000
25.5600 534.0000 1.0000
25.5800 460.0000 1.0000
25.6000 387.0000 1.0000
25.6200 339.0000 1.0000
25.6400 301.0000 1.0000
25.6600 289.0000 1.0000
25.6800 274.0000 1.0000
25.7000 253.0000 1.0000
25.7200 249.0000 1.0000
25.7400 253.0000 1.0000
25.7600 253.0000 1.0000
25.7800 249.0000 1.0000
25.8000 256.0000 1.0000
25.8200 257.0000 1.0000
25.8400 256.0000 1.0000
25.8600 243.0000 1.0000
25.8800 249.0000 1.0000
25.9000 252.0000 1.0000
25.9200 256.0000 1.0000
25.9400 266.0000 1.0000
25.9600 276.0000 1.0000
25.9800 299.0000 1.0000
26.0000 294.0000 1.0000
26.0200 294.0000 1.0000
26.0400 326.0000 1.0000
26.0600 353.0000 1.0000
26.0800 367.0000 1.0000
26.1000 393.0000 1.0000
26.1200 435.0000 1.0000
26.1400 467.0000 1.0000
26.1600 492.0000 1.0000
26.1800 520.0000 1.0000
26.2000 594.0000 1.0000
26.2200 683.0000 1.0000
26.2400 781.0000 1.0000
26.2600 877.0000 1.0000
26.2800 1005.0000 1.0000
26.3000 1200.0000 1.0000
26.3200 1424.0000 1.0000
26.3400 1689.0000 1.0000
26.3600 2074.0000 1.0000
26.3800 2604.0000 1.0000
26.4000 3315.0000 1.0000
26.4200 4211.0000 1.0000
26.4400 5156.0000 1.0000
26.4600 6013.0000 1.0000
26.4800 6529.0000 1.0000
26.5000 6616.0000 1.0000
26.5200 6258.0000 1.0000
26.5400 5462.0000 1.0000
26.5600 4470.0000 1.0000
26.5800 3376.0000 1.0000
26.6000 2482.0000 1.0000
26.6200 1814.0000 1.0000
26.6400 1258.0000 1.0000
26.6600 942.0000 1.0000
26.6800 809.0000 1.0000
26.7000 705.0000 1.0000
26.7200 674.0000 1.0000
26.7400 642.0000 1.0000
26.7600 605.0000 1.0000
26.7800 585.0000 1.0000
26.8000 550.0000 1.0000
26.8200 528.0000 1.0000
26.8400 494.0000 1.0000
26.8600 473.0000 1.0000
26.8800 453.0000 1.0000
26.9000 438.0000 1.0000
26.9200 431.0000 1.0000
26.9400 414.0000 1.0000
26.9600 419.0000 1.0000
26.9800 413.0000 1.0000
27.0000 405.0000 1.0000
27.0200 384.0000 1.0000
27.0400 357.0000 1.0000
27.0600 357.0000 1.0000
27.0800 356.0000 1.0000
27.1000 358.0000 1.0000
27.1200 342.0000 1.0000
27.1400 346.0000 1.0000
27.1600 367.0000 1.0000
27.1800 397.0000 1.0000
27.2000 430.0000 1.0000
27.2200 447.0000 1.0000
27.2400 491.0000 1.0000
27.2600 546.0000 1.0000
27.2800 578.0000 1.0000
27.3000 649.0000 1.0000
27.3200 718.0000 1.0000
27.3400 740.0000 1.0000
27.3600 782.0000 1.0000
27.3800 816.0000 1.0000
27.4000 824.0000 1.0000
27.4200 855.0000 1.0000
27.4400 890.0000 1.0000
27.4600 927.0000 1.0000
27.4800 959.0000 1.0000
27.5000 964.0000 1.0000
27.5200 1021.0000 1.0000
27.5400 1073.0000 1.0000
27.5600 1120.0000 1.0000
27.5800 1225.0000 1.0000
27.6000 1317.0000 1.0000
27.6200 1403.0000 1.0000
27.6400 1445.0000 1.0000
27.6600 1480.0000 1.0000
27.6800 1525.0000 1.0000
27.7000 1538.0000 1.0000
27.7200 1544.0000 1.0000
27.7400 1511.0000 1.0000
27.7600 1474.0000 1.0000
27.7800 1455.0000 1.0000
27.8000 1484.0000 1.0000
27.8200 1560.0000 1.0000
27.8400 1625.0000 1.0000
27.8600 1604.0000 1.0000
27.8800 1515.0000 1.0000
27.9000 1448.0000 1.0000
27.9200 1392.0000 1.0000
27.9400 1278.0000 1.0000
27.9600 1069.0000 1.0000
27.9800 896.0000 1.0000
28.0000 779.0000 1.0000
28.0200 650.0000 1.0000
28.0400 549.0000 1.0000
28.0600 472.0000 1.0000
28.0800 421.0000 1.0000
28.1000 413.0000 1.0000
28.1200 421.0000 1.0000
28.1400 437.0000 1.0000
28.1600 428.0000 1.0000
28.1800 409.0000 1.0000
28.2000 391.0000 1.0000
28.2200 388.0000 1.0000
28.2400 390.0000 1.0000
28.2600 385.0000 1.0000
28.2800 386.0000 1.0000
28.3000 410.0000 1.0000
28.3200 399.0000 1.0000
28.3400 375.0000 1.0000
28.3600 361.0000 1.0000
28.3800 339.0000 1.0000
28.4000 323.0000 1.0000
28.4200 296.0000 1.0000
28.4400 248.0000 1.0000
28.4600 235.0000 1.0000
28.4800 228.0000 1.0000
28.5000 216.0000 1.0000
28.5200 196.0000 1.0000
28.5400 175.0000 1.0000
28.5600 171.0000 1.0000
28.5800 177.0000 1.0000
28.6000 172.0000 1.0000
28.6200 173.0000 1.0000
28.6400 175.0000 1.0000
28.6600 172.0000 1.0000
28.6800 168.0000 1.0000
28.7000 175.0000 1.0000
28.7200 157.0000 1.0000
28.7400 162.0000 1.0000
28.7600 167.0000 1.0000
28.7800 179.0000 1.0000
28.8000 193.0000 1.0000
28.8200 195.0000 1.0000
28.8400 201.0000 1.0000
28.8600 216.0000 1.0000
28.8800 213.0000 1.0000
28.9000 205.0000 1.0000
28.9200 221.0000 1.0000
28.9400 229.0000 1.0000
28.9600 199.0000 1.0000
28.9800 206.0000 1.0000
29.0000 211.0000 1.0000
29.0200 208.0000 1.0000
29.0400 228.0000 1.0000
29.0600 225.0000 1.0000
29.0800 213.0000 1.0000
29.1000 214.0000 1.0000
29.1200 210.0000 1.0000
29.1400 216.0000 1.0000
29.1600 246.0000 1.0000
29.1800 258.0000 1.0000
29.2000 263.0000 1.0000
29.2200 261.0000 1.0000
29.2400 304.0000 1.0000
29.2600 326.0000 1.0000
29.2800 307.0000 1.0000
29.3000 322.0000 1.0000
29.3200 350.0000 1.0000
29.3400 362.0000 1.0000
29.3600 391.0000 1.0000
29.3800 422.0000 1.0000
29.4000 461.0000 1.0000
29.4200 479.0000 1.0000
29.4400 493.0000 1.0000
29.4600 521.0000 1.0000
29.4800 550.0000 1.0000
29.5000 574.0000 1.0000
29.5200 619.0000 1.0000
29.5400 692.0000 1.0000
29.5600 719.0000 1.0000
29.5800 740.0000 1.0000
29.6000 821.0000 1.0000
29.6200 927.0000 1.0000
29.6400 910.0000 1.0000
29.6600 932.0000 1.0000
29.6800 937.0000 1.0000
29.7000 915.0000 1.0000
29.7200 852.0000 1.0000
29.7400 745.0000 1.0000
29.7600 653.0000 1.0000
29.7800 595.0000 1.0000
29.8000 553.0000 1.0000
29.8200 502.0000 1.0000
29.8400 445.0000 1.0000
29.8600 418.0000 1.0000
29.8800 407.0000 1.0000
29.9000 409.0000 1.0000
29.9200 433.0000 1.0000
29.9400 435.0000 1.0000
29.9600 448.0000 1.0000
29.9800 472.0000 1.0000
30.0000 484.0000 1.0000
30.0200 522.0000 1.0000
30.0400 534.0000 1.0000
30.0600 587.0000 1.0000
30.0800 663.0000 1.0000
30.1000 660.0000 1.0000
30.1200 648.0000 1.0000
30.1400 691.0000 1.0000
30.1600 681.0000 1.0000
30.1800 647.0000 1.0000
30.2000 643.0000 1.0000
30.2200 631.0000 1.0000
30.2400 576.0000 1.0000
30.2600 562.0000 1.0000
30.2800 571.0000 1.0000
30.3000 537.0000 1.0000
30.3200 507.0000 1.0000
30.3400 483.0000 1.0000
30.3600 456.0000 1.0000
30.3800 438.0000 1.0000
30.4000 420.0000 1.0000
30.4200 402.0000 1.0000
30.4400 393.0000 1.0000
30.4600 365.0000 1.0000
30.4800 390.0000 1.0000
30.5000 373.0000 1.0000
30.5200 364.0000 1.0000
30.5400 366.0000 1.0000
30.5600 401.0000 1.0000
30.5800 442.0000 1.0000
30.6000 484.0000 1.0000
30.6200 497.0000 1.0000
30.6400 525.0000 1.0000
30.6600 562.0000 1.0000
30.6800 562.0000 1.0000
30.7000 606.0000 1.0000
30.7200 588.0000 1.0000
30.7400 564.0000 1.0000
30.7600 582.0000 1.0000
30.7800 549.0000 1.0000
30.8000 554.0000 1.0000
30.8200 483.0000 1.0000
30.8400 442.0000 1.0000
30.8600 401.0000 1.0000
30.8800 374.0000 1.0000
30.9000 344.0000 1.0000
30.9200 321.0000 1.0000
30.9400 307.0000 1.0000
30.9600 257.0000 1.0000
30.9800 240.0000 1.0000
31.0000 230.0000 1.0000
31.0200 228.0000 1.0000
31.0400 208.0000 1.0000
31.0600 223.0000 1.0000
31.0800 227.0000 1.0000
31.1000 207.0000 1.0000
31.1200 194.0000 1.0000
31.1400 200.0000 1.0000
31.1600 208.0000 1.0000
31.1800 204.0000 1.0000
31.2000 230.0000 1.0000
31.2200 232.0000 1.0000
31.2400 220.0000 1.0000
31.2600 249.0000 1.0000
31.2800 248.0000 1.0000
31.3000 268.0000 1.0000
31.3200 282.0000 1.0000
31.3400 300.0000 1.0000
31.3600 295.0000 1.0000
31.3800 278.0000 1.0000
31.4000 277.0000 1.0000
31.4200 261.0000 1.0000
31.4400 264.0000 1.0000
31.4600 279.0000 1.0000
31.4800 232.0000 1.0000
31.5000 208.0000 1.0000
31.5200 223.0000 1.0000
31.5400 192.0000 1.0000
31.5600 180.0000 1.0000
31.5800 175.0000 1.0000
31.6000 183.0000 1.0000
31.6200 167.0000 1.0000
31.6400 189.0000 1.0000
31.6600 180.0000 1.0000
31.6800 175.0000 1.0000
31.7000 155.0000 1.0000
31.7200 159.0000 1.0000
31.7400 159.0000 1.0000
31.7600 140.0000 1.0000
31.7800 151.0000 1.0000
31.8000 150.0000 1.0000
31.8200 128.0000 1.0000
31.8400 140.0000 1.0000
31.8600 137.0000 1.0000
31.8800 139.0000 1.0000
31.9000 125.0000 1.0000
31.9200 135.0000 1.0000
31.9400 122.0000 1.0000
31.9600 146.0000 1.0000
31.9800 128.0000 1.0000
32.0000 126.0000 1.0000
32.0200 133.0000 1.0000
32.0400 132.0000 1.0000
32.0600 127.0000 1.0000
32.0800 125.0000 1.0000
32.1000 150.0000 1.0000
32.1200 167.0000 1.0000
32.1400 136.0000 1.0000
32.1600 147.0000 1.0000
32.1800 168.0000 1.0000
32.2000 164.0000 1.0000
32.2200 140.0000 1.0000
32.2400 158.0000 1.0000
32.2600 152.0000 1.0000
32.2800 156.0000 1.0000
32.3000 148.0000 1.0000
32.3200 150.0000 1.0000
32.3400 157.0000 1.0000
32.3600 154.0000 1.0000
32.3800 158.0000 1.0000
32.4000 154.0000 1.0000
32.4200 151.0000 1.0000
32.4400 165.0000 1.0000
32.4600 161.0000 1.0000
32.4800 161.0000 1.0000
32.5000 145.0000 1.0000
32.5200 139.0000 1.0000
32.5400 136.0000 1.0000
32.5600 130.0000 1.0000
32.5800 127.0000 1.0000
32.6000 125.0000 1.0000
32.6200 133.0000 1.0000
32.6400 162.0000 1.0000
32.6600 149.0000 1.0000
32.6800 144.0000 1.0000
32.7000 128.0000 1.0000
32.7200 145.0000 1.0000
32.7400 118.0000 1.0000
32.7600 143.0000 1.0000
32.7800 133.0000 1.0000
32.8000 147.0000 1.0000
32.8200 149.0000 1.0000
32.8400 125.0000 1.0000
32.8600 124.0000 1.0000
32.8800 143.0000 1.0000
32.9000 136.0000 1.0000
32.9200 130.0000 1.0000
32.9400 135.0000 1.0000
32.9600 120.0000 1.0000
32.9800 146.0000 1.0000
33.0000 122.0000 1.0000
33.0200 138.0000 1.0000
33.0400 120.0000 1.0000
33.0600 112.0000 1.0000
33.0800 129.0000 1.0000
33.1000 106.0000 1.0000
33.1200 129.0000 1.0000
33.1400 116.0000 1.0000
33.1600 130.0000 1.0000
33.1800 107.0000 1.0000
33.2000 121.0000 1.0000
33.2200 117.0000 1.0000
33.2400 122.0000 1.0000
33.2600 135.0000 1.0000
33.2800 115.0000 1.0000
33.3000 128.0000 1.0000
33.3200 118.0000 1.0000
33.3400 136.0000 1.0000
33.3600 123.0000 1.0000
33.3800 146.0000 1.0000
33.4000 132.0000 1.0000
33.4200 142.0000 1.0000
33.4400 145.0000 1.0000
33.4600 135.0000 1.0000
33.4800 153.0000 1.0000
33.5000 166.0000 1.0000
33.5200 182.0000 1.0000
33.5400 165.0000 1.0000
33.5600 162.0000 1.0000
33.5800 184.0000 1.0000
33.6000 207.0000 1.0000
33.6200 206.0000 1.0000
33.6400 202.0000 1.0000
33.6600 202.0000 1.0000
33.6800 195.0000 1.0000
33.7000 211.0000 1.0000
33.7200 191.0000 1.0000
33.7400 172.0000 1.0000
33.7600 191.0000 1.0000
33.7800 166.0000 1.0000
33.8000 186.0000 1.0000
33.8200 179.0000 1.0000
33.8400 154.0000 1.0000
33.8600 163.0000 1.0000
33.8800 154.0000 1.0000
33.9000 161.0000 1.0000
33.9200 169.0000 1.0000
33.9400 143.0000 1.0000
33.9600 182.0000 1.0000
33.9800 169.0000 1.0000
34.0000 182.0000 1.0000
34.0200 172.0000 1.0000
34.0400 153.0000 1.0000
34.0600 176.0000 1.0000
34.0800 162.0000 1.0000
34.1000 175.0000 1.0000
34.1200 161.0000 1.0000
34.1400 198.0000 1.0000
34.1600 182.0000 1.0000
34.1800 190.0000 1.0000
34.2000 199.0000 1.0000
34.2200 225.0000 1.0000
34.2400 217.0000 1.0000
34.2600 220.0000 1.0000
34.2800 239.0000 1.0000
34.3000 238.0000 1.0000
34.3200 252.0000 1.0000
34.3400 254.0000 1.0000
34.3600 245.0000 1.0000
34.3800 255.0000 1.0000
34.4000 273.0000 1.0000
34.4200 289.0000 1.0000
34.4400 275.0000 1.0000
34.4600 303.0000 1.0000
34.4800 318.0000 1.0000
34.5000 292.0000 1.0000
34.5200 306.0000 1.0000
34.5400 353.0000 1.0000
34.5600 382.0000 1.0000
34.5800 396.0000 1.0000
34.6000 370.0000 1.0000
34.6200 402.0000 1.0000
34.6400 438.0000 1.0000
34.6600 508.0000 1.0000
34.6800 546.0000 1.0000
34.7000 476.0000 1.0000
34.7200 512.0000 1.0000
34.7400 556.0000 1.0000
34.7600 619.0000 1.0000
34.7800 648.0000 1.0000
34.8000 692.0000 1.0000
34.8200 637.0000 1.0000
34.8400 719.0000 1.0000
34.8600 799.0000 1.0000
34.8800 865.0000 1.0000
34.9000 978.0000 1.0000
34.9200 1119.0000 1.0000
34.9400 1213.0000 1.0000
34.9600 1430.0000 1.0000
34.9800 1695.0000 1.0000
35.0000 1804.0000 1.0000
35.0200 1870.0000 1.0000
35.0400 1715.0000 1.0000
35.0600 1629.0000 1.0000
35.0800 1477.0000 1.0000
35.1000 1303.0000 1.0000
35.1200 1098.0000 1.0000
35.1400 954.0000 1.0000
35.1600 803.0000 1.0000
35.1800 693.0000 1.0000
35.2000 644.0000 1.0000
35.2200 578.0000 1.0000
35.2400 555.0000 1.0000
35.2600 578.0000 1.0000
35.2800 584.0000 1.0000
35.3000 606.0000 1.0000
35.3200 613.0000 1.0000
35.3400 650.0000 1.0000
35.3600 697.0000 1.0000
35.3800 701.0000 1.0000
35.4000 758.0000 1.0000
35.4200 747.0000 1.0000
35.4400 778.0000 1.0000
35.4600 771.0000 1.0000
35.4800 728.0000 1.0000
35.5000 672.0000 1.0000
35.5200 674.0000 1.0000
35.5400 680.0000 1.0000
35.5600 675.0000 1.0000
35.5800 633.0000 1.0000
35.6000 636.0000 1.0000
35.6200 562.0000 1.0000
35.6400 499.0000 1.0000
35.6600 484.0000 1.0000
35.6800 450.0000 1.0000
35.7000 446.0000 1.0000
35.7200 419.0000 1.0000
35.7400 349.0000 1.0000
35.7600 365.0000 1.0000
35.7800 373.0000 1.0000
35.8000 329.0000 1.0000
35.8200 302.0000 1.0000
35.8400 287.0000 1.0000
35.8600 245.0000 1.0000
35.8800 256.0000 1.0000
35.9000 282.0000 1.0000
35.9200 283.0000 1.0000
35.9400 260.0000 1.0000
35.9600 260.0000 1.0000
35.9800 245.0000 1.0000
36.0000 278.0000 1.0000
36.0200 233.0000 1.0000
36.0400 257.0000 1.0000
36.0600 240.0000 1.0000
36.0800 254.0000 1.0000
36.1000 276.0000 1.0000
36.1200 279.0000 1.0000
36.1400 275.0000 1.0000
36.1600 279.0000 1.0000
36.1800 282.0000 1.0000
36.2000 285.0000 1.0000
36.2200 309.0000 1.0000
36.2400 291.0000 1.0000
36.2600 332.0000 1.0000
36.2800 346.0000 1.0000
36.3000 378.0000 1.0000
36.3200 421.0000 1.0000
36.3400 544.0000 1.0000
36.3600 554.0000 1.0000
36.3800 622.0000 1.0000
36.4000 634.0000 1.0000
36.4200 601.0000 1.0000
36.4400 611.0000 1.0000
36.4600 617.0000 1.0000
36.4800 546.0000 1.0000
36.5000 482.0000 1.0000
36.5200 418.0000 1.0000
36.5400 391.0000 1.0000
36.5600 304.0000 1.0000
36.5800 301.0000 1.0000
36.6000 263.0000 1.0000
36.6200 261.0000 1.0000
36.6400 239.0000 1.0000
36.6600 232.0000 1.0000
36.6800 227.0000 1.0000
36.7000 225.0000 1.0000
36.7200 228.0000 1.0000
36.7400 241.0000 1.0000
36.7600 226.0000 1.0000
36.7800 207.0000 1.0000
36.8000 193.0000 1.0000
36.8200 176.0000 1.0000
36.8400 192.0000 1.0000
36.8600 204.0000 1.0000
36.8800 208.0000 1.0000
36.9000 196.0000 1.0000
36.9200 205.0000 1.0000
36.9400 194.0000 1.0000
36.9600 205.0000 1.0000
36.9800 214.0000 1.0000
37.0000 190.0000 1.0000
37.0200 211.0000 1.0000
37.0400 211.0000 1.0000
37.0600 194.0000 1.0000
37.0800 212.0000 1.0000
37.1000 195.0000 1.0000
37.1200 210.0000 1.0000
37.1400 209.0000 1.0000
37.1600 185.0000 1.0000
37.1800 192.0000 1.0000
37.2000 203.0000 1.0000
37.2200 210.0000 1.0000
37.2400 210.0000 1.0000
37.2600 219.0000 1.0000
37.2800 201.0000 1.0000
37.3000 193.0000 1.0000
37.3200 226.0000 1.0000
37.3400 224.0000 1.0000
37.3600 231.0000 1.0000
37.3800 215.0000 1.0000
37.4000 226.0000 1.0000
37.4200 247.0000 1.0000
37.4400 261.0000 1.0000
37.4600 250.0000 1.0000
37.4800 311.0000 1.0000
37.5000 331.0000 1.0000
37.5200 378.0000 1.0000
37.5400 438.0000 1.0000
37.5600 514.0000 1.0000
37.5800 647.0000 1.0000
37.6000 685.0000 1.0000
37.6200 734.0000 1.0000
37.6400 752.0000 1.0000
37.6600 771.0000 1.0000
37.6800 724.0000 1.0000
37.7000 637.0000 1.0000
37.7200 544.0000 1.0000
37.7400 481.0000 1.0000
37.7600 408.0000 1.0000
37.7800 366.0000 1.0000
37.8000 301.0000 1.0000
37.8200 240.0000 1.0000
37.8400 194.0000 1.0000
37.8600 178.0000 1.0000
37.8800 165.0000 1.0000
37.9000 192.0000 1.0000
37.9200 167.0000 1.0000
37.9400 158.0000 1.0000
37.9600 150.0000 1.0000
37.9800 158.0000 1.0000
38.0000 149.0000 1.0000
38.0200 165.0000 1.0000
38.0400 155.0000 1.0000
38.0600 137.0000 1.0000
38.0800 147.0000 1.0000
38.1000 147.0000 1.0000
38.1200 131.0000 1.0000
38.1400 138.0000 1.0000
38.1600 140.0000 1.0000
38.1800 142.0000 1.0000
38.2000 144.0000 1.0000
38.2200 127.0000 1.0000
38.2400 121.0000 1.0000
38.2600 113.0000 1.0000
38.2800 119.0000 1.0000
38.3000 129.0000 1.0000
38.3200 128.0000 1.0000
38.3400 124.0000 1.0000
38.3600 112.0000 1.0000
38.3800 125.0000 1.0000
38.4000 132.0000 1.0000
38.4200 113.0000 1.0000
38.4400 130.0000 1.0000
38.4600 127.0000 1.0000
38.4800 114.0000 1.0000
38.5000 133.0000 1.0000
38.5200 143.0000 1.0000
38.5400 133.0000 1.0000
38.5600 130.0000 1.0000
38.5800 140.0000 1.0000
38.6000 132.0000 1.0000
38.6200 143.0000 1.0000
38.6400 143.0000 1.0000
38.6600 147.0000 1.0000
38.6800 164.0000 1.0000
38.7000 182.0000 1.0000
38.7200 169.0000 1.0000
38.7400 154.0000 1.0000
38.7600 158.0000 1.0000
38.7800 145.0000 1.0000
38.8000 146.0000 1.0000
38.8200 180.0000 1.0000
38.8400 166.0000 1.0000
38.8600 164.0000 1.0000
38.8800 171.0000 1.0000
38.9000 159.0000 1.0000
38.9200 167.0000 1.0000
38.9400 171.0000 1.0000
38.9600 188.0000 1.0000
38.9800 205.0000 1.0000
39.0000 188.0000 1.0000
39.0200 176.0000 1.0000
39.0400 193.0000 1.0000
39.0600 215.0000 1.0000
39.0800 234.0000 1.0000
39.1000 225.0000 1.0000
39.1200 209.0000 1.0000
39.1400 225.0000 1.0000
39.1600 253.0000 1.0000
39.1800 260.0000 1.0000
39.2000 270.0000 1.0000
39.2200 291.0000 1.0000
39.2400 321.0000 1.0000
39.2600 372.0000 1.0000
39.2800 429.0000 1.0000
39.3000 467.0000 1.0000
39.3200 506.0000 1.0000
39.3400 529.0000 1.0000
39.3600 498.0000 1.0000
39.3800 454.0000 1.0000
39.4000 433.0000 1.0000
39.4200 397.0000 1.0000
39.4400 341.0000 1.0000
39.4600 286.0000 1.0000
39.4800 262.0000 1.0000
39.5000 228.0000 1.0000
39.5200 184.0000 1.0000
39.5400 169.0000 1.0000
39.5600 161.0000 1.0000
39.5800 173.0000 1.0000
39.6000 169.0000 1.0000
39.6200 152.0000 1.0000
39.6400 160.0000 1.0000
39.6600 167.0000 1.0000
39.6800 166.0000 1.0000
39.7000 158.0000 1.0000
39.7200 162.0000 1.0000
39.7400 149.0000 1.0000
39.7600 137.0000 1.0000
39.7800 142.0000 1.0000
39.8000 132.0000 1.0000
39.8200 144.0000 1.0000
39.8400 156.0000 1.0000
39.8600 153.0000 1.0000
39.8800 148.0000 1.0000
39.9000 149.0000 1.0000
39.9200 142.0000 1.0000
39.9400 162.0000 1.0000
39.9600 169.0000 1.0000
39.9800 163.0000 1.0000
40.0000 167.0000 1.0000
40.0200 187.0000 1.0000
40.0400 202.0000 1.0000
40.0600 214.0000 1.0000
40.0800 238.0000 1.0000
40.1000 262.0000 1.0000
40.1200 293.0000 1.0000
40.1400 309.0000 1.0000
40.1600 321.0000 1.0000
40.1800 327.0000 1.0000
40.2000 307.0000 1.0000
40.2200 285.0000 1.0000
40.2400 269.0000 1.0000
40.2600 240.0000 1.0000
40.2800 234.0000 1.0000
40.3000 231.0000 1.0000
40.3200 205.0000 1.0000
40.3400 184.0000 1.0000
40.3600 186.0000 1.0000
40.3800 199.0000 1.0000
40.4000 203.0000 1.0000
40.4200 201.0000 1.0000
40.4400 204.0000 1.0000
40.4600 200.0000 1.0000
40.4800 193.0000 1.0000
40.5000 200.0000 1.0000
40.5200 201.0000 1.0000
40.5400 204.0000 1.0000
40.5600 218.0000 1.0000
40.5800 214.0000 1.0000
40.6000 202.0000 1.0000
40.6200 224.0000 1.0000
40.6400 236.0000 1.0000
40.6600 210.0000 1.0000
40.6800 197.0000 1.0000
40.7000 202.0000 1.0000
40.7200 194.0000 1.0000
40.7400 203.0000 1.0000
40.7600 208.0000 1.0000
40.7800 197.0000 1.0000
40.8000 189.0000 1.0000
40.8200 175.0000 1.0000
40.8400 183.0000 1.0000
40.8600 195.0000 1.0000
40.8800 183.0000 1.0000
40.9000 180.0000 1.0000
40.9200 188.0000 1.0000
40.9400 175.0000 1.0000
40.9600 155.0000 1.0000
40.9800 170.0000 1.0000
41.0000 179.0000 1.0000
41.0200 173.0000 1.0000
41.0400 168.0000 1.0000
41.0600 159.0000 1.0000
41.0800 160.0000 1.0000
41.1000 152.0000 1.0000
41.1200 138.0000 1.0000
41.1400 134.0000 1.0000
41.1600 150.0000 1.0000
41.1800 150.0000 1.0000
41.2000 153.0000 1.0000
41.2200 139.0000 1.0000
41.2400 130.0000 1.0000
41.2600 141.0000 1.0000
41.2800 151.0000 1.0000
41.3000 146.0000 1.0000
41.3200 138.0000 1.0000
41.3400 148.0000 1.0000
41.3600 164.0000 1.0000
41.3800 158.0000 1.0000
41.4000 144.0000 1.0000
41.4200 163.0000 1.0000
41.4400 186.0000 1.0000
41.4600 171.0000 1.0000
41.4800 174.0000 1.0000
41.5000 179.0000 1.0000
41.5200 190.0000 1.0000
41.5400 200.0000 1.0000
41.5600 211.0000 1.0000
41.5800 209.0000 1.0000
41.6000 221.0000 1.0000
41.6200 208.0000 1.0000
41.6400 227.0000 1.0000
41.6600 246.0000 1.0000
41.6800 238.0000 1.0000
41.7000 223.0000 1.0000
41.7200 224.0000 1.0000
41.7400 228.0000 1.0000
41.7600 239.0000 1.0000
41.7800 258.0000 1.0000
41.8000 267.0000 1.0000
41.8200 245.0000 1.0000
41.8400 255.0000 1.0000
41.8600 255.0000 1.0000
41.8800 250.0000 1.0000
41.9000 246.0000 1.0000
41.9200 247.0000 1.0000
41.9400 260.0000 1.0000
41.9600 264.0000 1.0000
41.9800 278.0000 1.0000
42.0000 310.0000 1.0000
42.0200 326.0000 1.0000
42.0400 319.0000 1.0000
42.0600 325.0000 1.0000
42.0800 349.0000 1.0000
42.1000 365.0000 1.0000
42.1200 373.0000 1.0000
42.1400 415.0000 1.0000
42.1600 418.0000 1.0000
42.1800 418.0000 1.0000
42.2000 449.0000 1.0000
42.2200 460.0000 1.0000
42.2400 497.0000 1.0000
42.2600 529.0000 1.0000
42.2800 540.0000 1.0000
42.3000 541.0000 1.0000
42.3200 530.0000 1.0000
42.3400 557.0000 1.0000
42.3600 543.0000 1.0000
42.3800 494.0000 1.0000
42.4000 455.0000 1.0000
42.4200 408.0000 1.0000
42.4400 411.0000 1.0000
42.4600 398.0000 1.0000
42.4800 325.0000 1.0000
42.5000 312.0000 1.0000
42.5200 284.0000 1.0000
42.5400 274.0000 1.0000
42.5600 261.0000 1.0000
42.5800 246.0000 1.0000
42.6000 269.0000 1.0000
42.6200 250.0000 1.0000
42.6400 258.0000 1.0000
42.6600 265.0000 1.0000
42.6800 288.0000 1.0000
42.7000 294.0000 1.0000
42.7200 305.0000 1.0000
42.7400 268.0000 1.0000
42.7600 277.0000 1.0000
42.7800 259.0000 1.0000
42.8000 258.0000 1.0000
42.8200 259.0000 1.0000
42.8400 257.0000 1.0000
42.8600 266.0000 1.0000
42.8800 255.0000 1.0000
42.9000 257.0000 1.0000
42.9200 262.0000 1.0000
42.9400 270.0000 1.0000
42.9600 274.0000 1.0000
42.9800 288.0000 1.0000
43.0000 319.0000 1.0000
43.0200 339.0000 1.0000
43.0400 364.0000 1.0000
43.0600 392.0000 1.0000
43.0800 470.0000 1.0000
43.1000 574.0000 1.0000
43.1200 707.0000 1.0000
43.1400 879.0000 1.0000
43.1600 1110.0000 1.0000
43.1800 1357.0000 1.0000
43.2000 1500.0000 1.0000
43.2200 1581.0000 1.0000
43.2400 1541.0000 1.0000
43.2600 1484.0000 1.0000
43.2800 1302.0000 1.0000
43.3000 1131.0000 1.0000
43.3200 1013.0000 1.0000
43.3400 917.0000 1.0000
43.3600 806.0000 1.0000
43.3800 650.0000 1.0000
43.4000 519.0000 1.0000
43.4200 402.0000 1.0000
43.4400 294.0000 1.0000
43.4600 239.0000 1.0000
43.4800 258.0000 1.0000
43.5000 204.0000 1.0000
43.5200 186.0000 1.0000
43.5400 192.0000 1.0000
43.5600 191.0000 1.0000
43.5800 187.0000 1.0000
43.6000 188.0000 1.0000
43.6200 180.0000 1.0000
43.6400 179.0000 1.0000
43.6600 171.0000 1.0000
43.6800 165.0000 1.0000
43.7000 152.0000 1.0000
43.7200 142.0000 1.0000
43.7400 132.0000 1.0000
43.7600 138.0000 1.0000
43.7800 159.0000 1.0000
43.8000 154.0000 1.0000
43.8200 157.0000 1.0000
43.8400 155.0000 1.0000
43.8600 149.0000 1.0000
43.8800 151.0000 1.0000
43.9000 168.0000 1.0000
43.9200 178.0000 1.0000
43.9400 159.0000 1.0000
43.9600 174.0000 1.0000
43.9800 163.0000 1.0000
44.0000 148.0000 1.0000
44.0200 156.0000 1.0000
44.0400 186.0000 1.0000
44.0600 163.0000 1.0000
44.0800 178.0000 1.0000
44.1000 200.0000 1.0000
44.1200 191.0000 1.0000
44.1400 197.0000 1.0000
44.1600 204.0000 1.0000
44.1800 178.0000 1.0000
44.2000 203.0000 1.0000
44.2200 219.0000 1.0000
44.2400 216.0000 1.0000
44.2600 230.0000 1.0000
44.2800 208.0000 1.0000
44.3000 198.0000 1.0000
44.3200 183.0000 1.0000
44.3400 184.0000 1.0000
44.3600 181.0000 1.0000
44.3800 210.0000 1.0000
44.4000 181.0000 1.0000
44.4200 189.0000 1.0000
44.4400 170.0000 1.0000
44.4600 186.0000 1.0000
44.4800 191.0000 1.0000
44.5000 178.0000 1.0000
44.5200 172.0000 1.0000
44.5400 170.0000 1.0000
44.5600 179.0000 1.0000
44.5800 168.0000 1.0000
44.6000 170.0000 1.0000
44.6200 204.0000 1.0000
44.6400 200.0000 1.0000
44.6600 202.0000 1.0000
44.6800 180.0000 1.0000
44.7000 200.0000 1.0000
44.7200 232.0000 1.0000
44.7400 203.0000 1.0000
44.7600 225.0000 1.0000
44.7800 219.0000 1.0000
44.8000 210.0000 1.0000
44.8200 200.0000 1.0000
44.8400 211.0000 1.0000
44.8600 209.0000 1.0000
44.8800 224.0000 1.0000
44.9000 203.0000 1.0000
44.9200 220.0000 1.0000
44.9400 196.0000 1.0000
44.9600 198.0000 1.0000
44.9800 191.0000 1.0000
45.0000 188.0000 1.0000
45.0200 206.0000 1.0000
45.0400 191.0000 1.0000
45.0600 199.0000 1.0000
45.0800 205.0000 1.0000
45.1000 207.0000 1.0000
45.1200 188.0000 1.0000
45.1400 201.0000 1.0000
45.1600 207.0000 1.0000
45.1800 195.0000 1.0000
45.2000 218.0000 1.0000
45.2200 219.0000 1.0000
45.2400 190.0000 1.0000
45.2600 203.0000 1.0000
45.2800 185.0000 1.0000
45.3000 231.0000 1.0000
45.3200 211.0000 1.0000
45.3400 198.0000 1.0000
45.3600 197.0000 1.0000
45.3800 210.0000 1.0000
45.4000 189.0000 1.0000
45.4200 180.0000 1.0000
45.4400 191.0000 1.0000
45.4600 200.0000 1.0000
45.4800 209.0000 1.0000
45.5000 200.0000 1.0000
45.5200 187.0000 1.0000
45.5400 189.0000 1.0000
45.5600 228.0000 1.0000
45.5800 243.0000 1.0000
45.6000 284.0000 1.0000
45.6200 289.0000 1.0000
45.6400 340.0000 1.0000
45.6600 308.0000 1.0000
45.6800 323.0000 1.0000
45.7000 308.0000 1.0000
45.7200 268.0000 1.0000
45.7400 261.0000 1.0000
45.7600 277.0000 1.0000
45.7800 241.0000 1.0000
45.8000 233.0000 1.0000
45.8200 217.0000 1.0000
45.8400 203.0000 1.0000
45.8600 192.0000 1.0000
45.8800 182.0000 1.0000
45.9000 197.0000 1.0000
45.9200 183.0000 1.0000
45.9400 196.0000 1.0000
45.9600 152.0000 1.0000
45.9800 193.0000 1.0000
46.0000 184.0000 1.0000
46.0200 208.0000 1.0000
46.0400 174.0000 1.0000
46.0600 178.0000 1.0000
46.0800 155.0000 1.0000
46.1000 146.0000 1.0000
46.1200 142.0000 1.0000
46.1400 142.0000 1.0000
46.1600 157.0000 1.0000
46.1800 144.0000 1.0000
46.2000 131.0000 1.0000
46.2200 138.0000 1.0000
46.2400 129.0000 1.0000
46.2600 110.0000 1.0000
46.2800 120.0000 1.0000
46.3000 121.0000 1.0000
46.3200 120.0000 1.0000
46.3400 126.0000 1.0000
46.3600 121.0000 1.0000
46.3800 132.0000 1.0000
46.4000 104.0000 1.0000
46.4200 111.0000 1.0000
46.4400 114.0000 1.0000
46.4600 107.0000 1.0000
46.4800 130.0000 1.0000
46.5000 125.0000 1.0000
46.5200 118.0000 1.0000
46.5400 119.0000 1.0000
46.5600 121.0000 1.0000
46.5800 104.0000 1.0000
46.6000 119.0000 1.0000
46.6200 110.0000 1.0000
46.6400 111.0000 1.0000
46.6600 117.0000 1.0000
46.6800 112.0000 1.0000
46.7000 109.0000 1.0000
46.7200 124.0000 1.0000
46.7400 115.0000 1.0000
46.7600 120.0000 1.0000
46.7800 132.0000 1.0000
46.8000 135.0000 1.0000
46.8200 144.0000 1.0000
46.8400 136.0000 1.0000
46.8600 149.0000 1.0000
46.8800 134.0000 1.0000
46.9000 159.0000 1.0000
46.9200 164.0000 1.0000
46.9400 152.0000 1.0000
46.9600 128.0000 1.0000
46.9800 144.0000 1.0000
47.0000 141.0000 1.0000
47.0200 150.0000 1.0000
47.0400 145.0000 1.0000
47.0600 148.0000 1.0000
47.0800 135.0000 1.0000
47.1000 145.0000 1.0000
47.1200 143.0000 1.0000
47.1400 129.0000 1.0000
47.1600 112.0000 1.0000
47.1800 121.0000 1.0000
47.2000 110.0000 1.0000
47.2200 108.0000 1.0000
47.2400 105.0000 1.0000
47.2600 100.0000 1.0000
47.2800 97.0000 1.0000
47.3000 99.0000 1.0000
47.3200 109.0000 1.0000
47.3400 107.0000 1.0000
47.3600 102.0000 1.0000
47.3800 93.0000 1.0000
47.4000 100.0000 1.0000
47.4200 107.0000 1.0000
47.4400 102.0000 1.0000
47.4600 116.0000 1.0000
47.4800 109.0000 1.0000
47.5000 108.0000 1.0000
47.5200 113.0000 1.0000
47.5400 100.0000 1.0000
47.5600 102.0000 1.0000
47.5800 108.0000 1.0000
47.6000 102.0000 1.0000
47.6200 96.0000 1.0000
47.6400 104.0000 1.0000
47.6600 103.0000 1.0000
47.6800 101.0000 1.0000
47.7000 98.0000 1.0000
47.7200 103.0000 1.0000
47.7400 102.0000 1.0000
47.7600 103.0000 1.0000
47.7800 97.0000 1.0000
47.8000 110.0000 1.0000
47.8200 118.0000 1.0000
47.8400 109.0000 1.0000
47.8600 107.0000 1.0000
47.8800 106.0000 1.0000
47.9000 105.0000 1.0000
47.9200 114.0000 1.0000
47.9400 111.0000 1.0000
47.9600 109.0000 1.0000
47.9800 109.0000 1.0000
48.0000 104.0000 1.0000
48.0200 105.0000 1.0000
48.0400 116.0000 1.0000
48.0600 120.0000 1.0000
48.0800 123.0000 1.0000
48.1000 133.0000 1.0000
48.1200 129.0000 1.0000
48.1400 133.0000 1.0000
48.1600 161.0000 1.0000
48.1800 155.0000 1.0000
48.2000 144.0000 1.0000
48.2200 144.0000 1.0000
48.2400 146.0000 1.0000
48.2600 143.0000 1.0000
48.2800 136.0000 1.0000
48.3000 133.0000 1.0000
48.3200 146.0000 1.0000
48.3400 147.0000 1.0000
48.3600 140.0000 1.0000
48.3800 141.0000 1.0000
48.4000 140.0000 1.0000
48.4200 129.0000 1.0000
48.4400 126.0000 1.0000
48.4600 127.0000 1.0000
48.4800 126.0000 1.0000
48.5000 136.0000 1.0000
48.5200 125.0000 1.0000
48.5400 114.0000 1.0000
48.5600 132.0000 1.0000
48.5800 130.0000 1.0000
48.6000 131.0000 1.0000
48.6200 140.0000 1.0000
48.6400 127.0000 1.0000
48.6600 128.0000 1.0000
48.6800 132.0000 1.0000
48.7000 123.0000 1.0000
48.7200 114.0000 1.0000
48.7400 106.0000 1.0000
48.7600 110.0000 1.0000
48.7800 120.0000 1.0000
48.8000 125.0000 1.0000
48.8200 130.0000 1.0000
48.8400 126.0000 1.0000
48.8600 129.0000 1.0000
48.8800 125.0000 1.0000
48.9000 115.0000 1.0000
48.9200 123.0000 1.0000
48.9400 127.0000 1.0000
48.9600 126.0000 1.0000
48.9800 147.0000 1.0000
49.0000 152.0000 1.0000
49.0200 139.0000 1.0000
49.0400 148.0000 1.0000
49.0600 156.0000 1.0000
49.0800 175.0000 1.0000
49.1000 176.0000 1.0000
49.1200 187.0000 1.0000
49.1400 193.0000 1.0000
49.1600 171.0000 1.0000
49.1800 171.0000 1.0000
49.2000 161.0000 1.0000
49.2200 159.0000 1.0000
49.2400 167.0000 1.0000
49.2600 160.0000 1.0000
49.2800 154.0000 1.0000
49.3000 158.0000 1.0000
49.3200 156.0000 1.0000
49.3400 160.0000 1.0000
49.3600 167.0000 1.0000
49.3800 169.0000 1.0000
49.4000 163.0000 1.0000
49.4200 157.0000 1.0000
49.4400 182.0000 1.0000
49.4600 210.0000 1.0000
49.4800 208.0000 1.0000
49.5000 220.0000 1.0000
49.5200 230.0000 1.0000
49.5400 206.0000 1.0000
49.5600 206.0000 1.0000
49.5800 248.0000 1.0000
49.6000 227.0000 1.0000
49.6200 222.0000 1.0000
49.6400 229.0000 1.0000
49.6600 231.0000 1.0000
49.6800 247.0000 1.0000
49.7000 226.0000 1.0000
49.7200 213.0000 1.0000
49.7400 228.0000 1.0000
49.7600 233.0000 1.0000
49.7800 221.0000 1.0000
49.8000 240.0000 1.0000
49.8200 273.0000 1.0000
49.8400 276.0000 1.0000
49.8600 292.0000 1.0000
49.8800 311.0000 1.0000
49.9000 349.0000 1.0000
49.9200 428.0000 1.0000
49.9400 545.0000 1.0000
49.9600 643.0000 1.0000
49.9800 740.0000 1.0000
50.0000 812.0000 1.0000
50.0200 811.0000 1.0000
50.0400 757.0000 1.0000
50.0600 689.0000 1.0000
50.0800 606.0000 1.0000
50.1000 571.0000 1.0000
50.1200 509.0000 1.0000
50.1400 497.0000 1.0000
50.1600 446.0000 1.0000
50.1800 411.0000 1.0000
50.2000 334.0000 1.0000
50.2200 268.0000 1.0000
50.2400 234.0000 1.0000
50.2600 212.0000 1.0000
50.2800 204.0000 1.0000
50.3000 185.0000 1.0000
50.3200 170.0000 1.0000
50.3400 181.0000 1.0000
50.3600 161.0000 1.0000
50.3800 147.0000 1.0000
50.4000 166.0000 1.0000
50.4200 171.0000 1.0000
50.4400 184.0000 1.0000
50.4600 194.0000 1.0000
50.4800 182.0000 1.0000
50.5000 196.0000 1.0000
50.5200 185.0000 1.0000
50.5400 199.0000 1.0000
50.5600 195.0000 1.0000
50.5800 197.0000 1.0000
50.6000 220.0000 1.0000
50.6200 244.0000 1.0000
50.6400 225.0000 1.0000
50.6600 230.0000 1.0000
50.6800 218.0000 1.0000
50.7000 215.0000 1.0000
50.7200 206.0000 1.0000
50.7400 213.0000 1.0000
50.7600 198.0000 1.0000
50.7800 190.0000 1.0000
50.8000 172.0000 1.0000
50.8200 188.0000 1.0000
50.8400 157.0000 1.0000
50.8600 147.0000 1.0000
50.8800 164.0000 1.0000
50.9000 154.0000 1.0000
50.9200 153.0000 1.0000
50.9400 142.0000 1.0000
50.9600 153.0000 1.0000
50.9800 162.0000 1.0000
51.0000 163.0000 1.0000
51.0200 159.0000 1.0000
51.0400 151.0000 1.0000
51.0600 152.0000 1.0000
51.0800 152.0000 1.0000
51.1000 159.0000 1.0000
51.1200 152.0000 1.0000
51.1400 154.0000 1.0000
51.1600 159.0000 1.0000
51.1800 168.0000 1.0000
51.2000 161.0000 1.0000
51.2200 183.0000 1.0000
51.2400 185.0000 1.0000
51.2600 166.0000 1.0000
51.2800 194.0000 1.0000
51.3000 172.0000 1.0000
51.3200 192.0000 1.0000
51.3400 199.0000 1.0000
51.3600 221.0000 1.0000
51.3800 226.0000 1.0000
51.4000 199.0000 1.0000
51.4200 202.0000 1.0000
51.4400 211.0000 1.0000
51.4600 199.0000 1.0000
51.4800 226.0000 1.0000
51.5000 208.0000 1.0000
51.5200 182.0000 1.0000
51.5400 175.0000 1.0000
51.5600 178.0000 1.0000
51.5800 195.0000 1.0000
51.6000 184.0000 1.0000
51.6200 161.0000 1.0000
51.6400 158.0000 1.0000
51.6600 136.0000 1.0000
51.6800 150.0000 1.0000
51.7000 139.0000 1.0000
51.7200 149.0000 1.0000
51.7400 122.0000 1.0000
51.7600 156.0000 1.0000
51.7800 152.0000 1.0000
51.8000 149.0000 1.0000
51.8200 137.0000 1.0000
51.8400 142.0000 1.0000
51.8600 163.0000 1.0000
51.8800 176.0000 1.0000
51.9000 147.0000 1.0000
51.9200 169.0000 1.0000
51.9400 190.0000 1.0000
51.9600 176.0000 1.0000
51.9800 206.0000 1.0000
52.0000 175.0000 1.0000
52.0200 215.0000 1.0000
52.0400 209.0000 1.0000
52.0600 203.0000 1.0000
52.0800 218.0000 1.0000
52.1000 219.0000 1.0000
52.1200 195.0000 1.0000
52.1400 212.0000 1.0000
52.1600 222.0000 1.0000
52.1800 222.0000 1.0000
52.2000 223.0000 1.0000
52.2200 223.0000 1.0000
52.2400 248.0000 1.0000
52.2600 261.0000 1.0000
52.2800 273.0000 1.0000
52.3000 302.0000 1.0000
52.3200 322.0000 1.0000
52.3400 417.0000 1.0000
52.3600 514.0000 1.0000
52.3800 557.0000 1.0000
52.4000 680.0000 1.0000
52.4200 713.0000 1.0000
52.4400 737.0000 1.0000
52.4600 698.0000 1.0000
52.4800 639.0000 1.0000
52.5000 665.0000 1.0000
52.5200 552.0000 1.0000
52.5400 536.0000 1.0000
52.5600 484.0000 1.0000
52.5800 487.0000 1.0000
52.6000 420.0000 1.0000
52.6200 377.0000 1.0000
52.6400 337.0000 1.0000
52.6600 284.0000 1.0000
52.6800 217.0000 1.0000
52.7000 196.0000 1.0000
52.7200 170.0000 1.0000
52.7400 167.0000 1.0000
52.7600 173.0000 1.0000
52.7800 194.0000 1.0000
52.8000 163.0000 1.0000
52.8200 175.0000 1.0000
52.8400 181.0000 1.0000
52.8600 154.0000 1.0000
52.8800 149.0000 1.0000
52.9000 142.0000 1.0000
52.9200 163.0000 1.0000
52.9400 156.0000 1.0000
52.9600 154.0000 1.0000
52.9800 144.0000 1.0000
53.0000 162.0000 1.0000
53.0200 170.0000 1.0000
53.0400 174.0000 1.0000
53.0600 159.0000 1.0000
53.0800 147.0000 1.0000
53.1000 172.0000 1.0000
53.1200 171.0000 1.0000
53.1400 180.0000 1.0000
53.1600 173.0000 1.0000
53.1800 165.0000 1.0000
53.2000 147.0000 1.0000
53.2200 151.0000 1.0000
53.2400 149.0000 1.0000
53.2600 164.0000 1.0000
53.2800 148.0000 1.0000
53.3000 180.0000 1.0000
53.3200 172.0000 1.0000
53.3400 136.0000 1.0000
53.3600 134.0000 1.0000
53.3800 133.0000 1.0000
53.4000 134.0000 1.0000
53.4200 143.0000 1.0000
53.4400 157.0000 1.0000
53.4600 147.0000 1.0000
53.4800 137.0000 1.0000
53.5000 140.0000 1.0000
53.5200 134.0000 1.0000
53.5400 143.0000 1.0000
53.5600 143.0000 1.0000
53.5800 147.0000 1.0000
53.6000 131.0000 1.0000
53.6200 141.0000 1.0000
53.6400 144.0000 1.0000
53.6600 134.0000 1.0000
53.6800 141.0000 1.0000
53.7000 126.0000 1.0000
53.7200 115.0000 1.0000
53.7400 124.0000 1.0000
53.7600 125.0000 1.0000
53.7800 137.0000 1.0000
53.8000 139.0000 1.0000
53.8200 119.0000 1.0000
53.8400 116.0000 1.0000
53.8600 132.0000 1.0000
53.8800 131.0000 1.0000
53.9000 121.0000 1.0000
53.9200 133.0000 1.0000
53.9400 124.0000 1.0000
53.9600 128.0000 1.0000
53.9800 129.0000 1.0000
54.0000 130.0000 1.0000
54.0200 134.0000 1.0000
54.0400 133.0000 1.0000
54.0600 123.0000 1.0000
54.0800 127.0000 1.0000
54.1000 134.0000 1.0000
54.1200 148.0000 1.0000
54.1400 138.0000 1.0000
54.1600 132.0000 1.0000
54.1800 136.0000 1.0000
54.2000 139.0000 1.0000
54.2200 143.0000 1.0000
54.2400 131.0000 1.0000
54.2600 157.0000 1.0000
54.2800 164.0000 1.0000
54.3000 134.0000 1.0000
54.3200 128.0000 1.0000
54.3400 139.0000 1.0000
54.3600 155.0000 1.0000
54.3800 158.0000 1.0000
54.4000 151.0000 1.0000
54.4200 140.0000 1.0000
54.4400 157.0000 1.0000
54.4600 164.0000 1.0000
54.4800 152.0000 1.0000
54.5000 144.0000 1.0000
54.5200 148.0000 1.0000
54.5400 163.0000 1.0000
54.5600 163.0000 1.0000
54.5800 181.0000 1.0000
54.6000 201.0000 1.0000
54.6200 190.0000 1.0000
54.6400 200.0000 1.0000
54.6600 264.0000 1.0000
54.6800 281.0000 1.0000
54.7000 312.0000 1.0000
54.7200 305.0000 1.0000
54.7400 332.0000 1.0000
54.7600 330.0000 1.0000
54.7800 309.0000 1.0000
54.8000 312.0000 1.0000
54.8200 292.0000 1.0000
54.8400 278.0000 1.0000
54.8600 274.0000 1.0000
54.8800 265.0000 1.0000
54.9000 252.0000 1.0000
54.9200 256.0000 1.0000
54.9400 238.0000 1.0000
54.9600 210.0000 1.0000
54.9800 193.0000 1.0000
55.0000 191.0000 1.0000
55.0200 194.0000 1.0000
55.0400 177.0000 1.0000
55.0600 179.0000 1.0000
55.0800 186.0000 1.0000
55.1000 176.0000 1.0000
55.1200 173.0000 1.0000
55.1400 205.0000 1.0000
55.1600 213.0000 1.0000
55.1800 216.0000 1.0000
55.2000 223.0000 1.0000
55.2200 225.0000 1.0000
55.2400 225.0000 1.0000
55.2600 220.0000 1.0000
55.2800 215.0000 1.0000
55.3000 198.0000 1.0000
55.3200 192.0000 1.0000
55.3400 197.0000 1.0000
55.3600 183.0000 1.0000
55.3800 183.0000 1.0000
55.4000 180.0000 1.0000
55.4200 150.0000 1.0000
55.4400 138.0000 1.0000
55.4600 158.0000 1.0000
55.4800 157.0000 1.0000
55.5000 140.0000 1.0000
55.5200 136.0000 1.0000
55.5400 140.0000 1.0000
55.5600 152.0000 1.0000
55.5800 145.0000 1.0000
55.6000 134.0000 1.0000
55.6200 144.0000 1.0000
55.6400 145.0000 1.0000
55.6600 136.0000 1.0000
55.6800 139.0000 1.0000
55.7000 142.0000 1.0000
55.7200 135.0000 1.0000
55.7400 139.0000 1.0000
55.7600 141.0000 1.0000
55.7800 130.0000 1.0000
55.8000 125.0000 1.0000
55.8200 136.0000 1.0000
55.8400 141.0000 1.0000
55.8600 132.0000 1.0000
55.8800 129.0000 1.0000
55.9000 131.0000 1.0000
55.9200 148.0000 1.0000
55.9400 152.0000 1.0000
55.9600 143.0000 1.0000
55.9800 148.0000 1.0000
56.0000 148.0000 1.0000
56.0200 162.0000 1.0000
56.0400 175.0000 1.0000
56.0600 165.0000 1.0000
56.0800 163.0000 1.0000
56.1000 175.0000 1.0000
56.1200 169.0000 1.0000
56.1400 171.0000 1.0000
56.1600 181.0000 1.0000
56.1800 185.0000 1.0000
56.2000 183.0000 1.0000
56.2200 192.0000 1.0000
56.2400 208.0000 1.0000
56.2600 214.0000 1.0000
56.2800 218.0000 1.0000
56.3000 230.0000 1.0000
56.3200 250.0000 1.0000
56.3400 251.0000 1.0000
56.3600 262.0000 1.0000
56.3800 270.0000 1.0000
56.4000 267.0000 1.0000
56.4200 279.0000 1.0000
56.4400 297.0000 1.0000
56.4600 284.0000 1.0000
56.4800 291.0000 1.0000
56.5000 297.0000 1.0000
56.5200 289.0000 1.0000
56.5400 300.0000 1.0000
56.5600 295.0000 1.0000
56.5800 282.0000 1.0000
56.6000 267.0000 1.0000
56.6200 257.0000 1.0000
56.6400 254.0000 1.0000
56.6600 241.0000 1.0000
56.6800 236.0000 1.0000
56.7000 244.0000 1.0000
56.7200 234.0000 1.0000
56.7400 227.0000 1.0000
56.7600 214.0000 1.0000
56.7800 193.0000 1.0000
56.8000 194.0000 1.0000
56.8200 201.0000 1.0000
56.8400 209.0000 1.0000
56.8600 203.0000 1.0000
56.8800 195.0000 1.0000
56.9000 212.0000 1.0000
56.9200 201.0000 1.0000
56.9400 198.0000 1.0000
56.9600 221.0000 1.0000
56.9800 219.0000 1.0000
57.0000 228.0000 1.0000
57.0200 243.0000 1.0000
57.0400 225.0000 1.0000
57.0600 217.0000 1.0000
57.0800 226.0000 1.0000
57.1000 226.0000 1.0000
57.1200 228.0000 1.0000
57.1400 238.0000 1.0000
57.1600 253.0000 1.0000
57.1800 253.0000 1.0000
57.2000 291.0000 1.0000
57.2200 346.0000 1.0000
57.2400 398.0000 1.0000
57.2600 461.0000 1.0000
57.2800 549.0000 1.0000
57.3000 735.0000 1.0000
57.3200 917.0000 1.0000
57.3400 1108.0000 1.0000
57.3600 1218.0000 1.0000
57.3800 1295.0000 1.0000
57.4000 1279.0000 1.0000
57.4200 1203.0000 1.0000
57.4400 1063.0000 1.0000
57.4600 922.0000 1.0000
57.4800 821.0000 1.0000
57.5000 817.0000 1.0000
57.5200 807.0000 1.0000
57.5400 731.0000 1.0000
57.5600 713.0000 1.0000
57.5800 571.0000 1.0000
57.6000 505.0000 1.0000
57.6200 417.0000 1.0000
57.6400 318.0000 1.0000
57.6600 258.0000 1.0000
57.6800 217.0000 1.0000
57.7000 222.0000 1.0000
57.7200 204.0000 1.0000
57.7400 193.0000 1.0000
57.7600 196.0000 1.0000
57.7800 198.0000 1.0000
57.8000 164.0000 1.0000
57.8200 169.0000 1.0000
57.8400 167.0000 1.0000
57.8600 177.0000 1.0000
57.8800 151.0000 1.0000
57.9000 131.0000 1.0000
57.9200 140.0000 1.0000
57.9400 146.0000 1.0000
57.9600 134.0000 1.0000
57.9800 119.0000 1.0000
58.0000 131.0000 1.0000
58.0200 133.0000 1.0000
58.0400 150.0000 1.0000
58.0600 134.0000 1.0000
58.0800 118.0000 1.0000
58.1000 114.0000 1.0000
58.1200 114.0000 1.0000
58.1400 127.0000 1.0000
58.1600 118.0000 1.0000
58.1800 131.0000 1.0000
58.2000 132.0000 1.0000
58.2200 111.0000 1.0000
58.2400 118.0000 1.0000
58.2600 120.0000 1.0000
58.2800 105.0000 1.0000
58.3000 116.0000 1.0000
58.3200 116.0000 1.0000
58.3400 120.0000 1.0000
58.3600 136.0000 1.0000
58.3800 134.0000 1.0000
58.4000 112.0000 1.0000
58.4200 125.0000 1.0000
58.4400 129.0000 1.0000
58.4600 120.0000 1.0000
58.4800 110.0000 1.0000
58.5000 128.0000 1.0000
58.5200 139.0000 1.0000
58.5400 106.0000 1.0000
58.5600 107.0000 1.0000
58.5800 120.0000 1.0000
58.6000 140.0000 1.0000
58.6200 135.0000 1.0000
58.6400 136.0000 1.0000
58.6600 137.0000 1.0000
58.6800 128.0000 1.0000
58.7000 125.0000 1.0000
58.7200 121.0000 1.0000
58.7400 122.0000 1.0000
58.7600 131.0000 1.0000
58.7800 135.0000 1.0000
58.8000 137.0000 1.0000
58.8200 147.0000 1.0000
58.8400 126.0000 1.0000
58.8600 137.0000 1.0000
58.8800 136.0000 1.0000
58.9000 138.0000 1.0000
58.9200 142.0000 1.0000
58.9400 139.0000 1.0000
58.9600 130.0000 1.0000
58.9800 135.0000 1.0000
59.0000 146.0000 1.0000
59.0200 131.0000 1.0000
59.0400 139.0000 1.0000
59.0600 139.0000 1.0000
59.0800 124.0000 1.0000
59.1000 131.0000 1.0000
59.1200 129.0000 1.0000
59.1400 130.0000 1.0000
59.1600 133.0000 1.0000
59.1800 135.0000 1.0000
59.2000 153.0000 1.0000
59.2200 156.0000 1.0000
59.2400 137.0000 1.0000
59.2600 137.0000 1.0000
59.2800 140.0000 1.0000
59.3000 135.0000 1.0000
59.3200 144.0000 1.0000
59.3400 152.0000 1.0000
59.3600 150.0000 1.0000
59.3800 171.0000 1.0000
59.4000 154.0000 1.0000
59.4200 158.0000 1.0000
59.4400 166.0000 1.0000
59.4600 161.0000 1.0000
59.4800 177.0000 1.0000
59.5000 189.0000 1.0000
59.5200 192.0000 1.0000
59.5400 207.0000 1.0000
59.5600 199.0000 1.0000
59.5800 191.0000 1.0000
59.6000 219.0000 1.0000
59.6200 236.0000 1.0000
59.6400 231.0000 1.0000
59.6600 237.0000 1.0000
59.6800 258.0000 1.0000
59.7000 268.0000 1.0000
59.7200 324.0000 1.0000
59.7400 370.0000 1.0000
59.7600 411.0000 1.0000
59.7800 473.0000 1.0000
59.8000 558.0000 1.0000
59.8200 637.0000 1.0000
59.8400 630.0000 1.0000
59.8600 575.0000 1.0000
59.8800 557.0000 1.0000
59.9000 485.0000 1.0000
59.9200 454.0000 1.0000
59.9400 418.0000 1.0000
59.9600 392.0000 1.0000
59.9800 417.0000 1.0000
60.0000 414.0000 1.0000
60.0200 374.0000 1.0000
60.0400 370.0000 1.0000
60.0600 300.0000 1.0000
60.0800 293.0000 1.0000
60.1000 244.0000 1.0000
60.1200 241.0000 1.0000
60.1400 208.0000 1.0000
60.1600 212.0000 1.0000
60.1800 213.0000 1.0000
60.2000 211.0000 1.0000
60.2200 184.0000 1.0000
60.2400 183.0000 1.0000
60.2600 213.0000 1.0000
60.2800 194.0000 1.0000
60.3000 210.0000 1.0000
60.3200 189.0000 1.0000
60.3400 188.0000 1.0000
60.3600 194.0000 1.0000
60.3800 181.0000 1.0000
60.4000 197.0000 1.0000
60.4200 202.0000 1.0000
60.4400 193.0000 1.0000
60.4600 188.0000 1.0000
60.4800 170.0000 1.0000
60.5000 179.0000 1.0000
60.5200 187.0000 1.0000
60.5400 167.0000 1.0000
60.5600 188.0000 1.0000
60.5800 174.0000 1.0000
60.6000 184.0000 1.0000
60.6200 199.0000 1.0000
60.6400 171.0000 1.0000
60.6600 174.0000 1.0000
60.6800 188.0000 1.0000
60.7000 156.0000 1.0000
60.7200 184.0000 1.0000
60.7400 194.0000 1.0000
60.7600 183.0000 1.0000
60.7800 174.0000 1.0000
60.8000 173.0000 1.0000
60.8200 184.0000 1.0000
60.8400 193.0000 1.0000
60.8600 185.0000 1.0000
60.8800 182.0000 1.0000
60.9000 167.0000 1.0000
60.9200 170.0000 1.0000
60.9400 199.0000 1.0000
60.9600 191.0000 1.0000
60.9800 203.0000 1.0000
61.0000 208.0000 1.0000
61.0200 215.0000 1.0000
61.0400 222.0000 1.0000
61.0600 246.0000 1.0000
61.0800 192.0000 1.0000
61.1000 239.0000 1.0000
61.1200 226.0000 1.0000
61.1400 252.0000 1.0000
61.1600 253.0000 1.0000
61.1800 252.0000 1.0000
61.2000 271.0000 1.0000
61.2200 249.0000 1.0000
61.2400 278.0000 1.0000
61.2600 218.0000 1.0000
61.2800 256.0000 1.0000
61.3000 227.0000 1.0000
61.3200 232.0000 1.0000
61.3400 239.0000 1.0000
61.3600 237.0000 1.0000
61.3800 239.0000 1.0000
61.4000 235.0000 1.0000
61.4200 232.0000 1.0000
61.4400 234.0000 1.0000
61.4600 198.0000 1.0000
61.4800 249.0000 1.0000
61.5000 221.0000 1.0000
61.5200 218.0000 1.0000
61.5400 233.0000 1.0000
61.5600 227.0000 1.0000
61.5800 249.0000 1.0000
61.6000 226.0000 1.0000
61.6200 238.0000 1.0000
61.6400 239.0000 1.0000
61.6600 243.0000 1.0000
61.6800 223.0000 1.0000
61.7000 233.0000 1.0000
61.7200 238.0000 1.0000
61.7400 225.0000 1.0000
61.7600 240.0000 1.0000
61.7800 217.0000 1.0000
61.8000 219.0000 1.0000
61.8200 233.0000 1.0000
61.8400 248.0000 1.0000
61.8600 217.0000 1.0000
61.8800 215.0000 1.0000
61.9000 239.0000 1.0000
61.9200 253.0000 1.0000
61.9400 200.0000 1.0000
61.9600 238.0000 1.0000
61.9800 218.0000 1.0000
62.0000 224.0000 1.0000
62.0200 218.0000 1.0000
62.0400 206.0000 1.0000
62.0600 199.0000 1.0000
62.0800 237.0000 1.0000
62.1000 247.0000 1.0000
62.1200 234.0000 1.0000
62.1400 211.0000 1.0000
62.1600 219.0000 1.0000
62.1800 217.0000 1.0000
62.2000 191.0000 1.0000
62.2200 216.0000 1.0000
62.2400 221.0000 1.0000
62.2600 225.0000 1.0000
62.2800 216.0000 1.0000
62.3000 231.0000 1.0000
62.3200 206.0000 1.0000
62.3400 196.0000 1.0000
62.3600 208.0000 1.0000
62.3800 202.0000 1.0000
62.4000 203.0000 1.0000
62.4200 198.0000 1.0000
62.4400 177.0000 1.0000
62.4600 180.0000 1.0000
62.4800 187.0000 1.0000
62.5000 179.0000 1.0000
62.5200 198.0000 1.0000
62.5400 174.0000 1.0000
62.5600 178.0000 1.0000
62.5800 169.0000 1.0000
62.6000 180.0000 1.0000
62.6200 169.0000 1.0000
62.6400 162.0000 1.0000
62.6600 165.0000 1.0000
62.6800 154.0000 1.0000
62.7000 142.0000 1.0000
62.7200 160.0000 1.0000
62.7400 173.0000 1.0000
62.7600 185.0000 1.0000
62.7800 176.0000 1.0000
62.8000 161.0000 1.0000
62.8200 171.0000 1.0000
62.8400 156.0000 1.0000
62.8600 147.0000 1.0000
62.8800 147.0000 1.0000
62.9000 143.0000 1.0000
62.9200 138.0000 1.0000
62.9400 147.0000 1.0000
62.9600 154.0000 1.0000
62.9800 139.0000 1.0000
63.0000 150.0000 1.0000
63.0200 135.0000 1.0000
63.0400 156.0000 1.0000
63.0600 137.0000 1.0000
63.0800 141.0000 1.0000
63.1000 131.0000 1.0000
63.1200 138.0000 1.0000
63.1400 128.0000 1.0000
63.1600 116.0000 1.0000
63.1800 124.0000 1.0000
63.2000 134.0000 1.0000
63.2200 136.0000 1.0000
63.2400 117.0000 1.0000
63.2600 125.0000 1.0000
63.2800 135.0000 1.0000
63.3000 130.0000 1.0000
63.3200 135.0000 1.0000
63.3400 116.0000 1.0000
63.3600 103.0000 1.0000
63.3800 124.0000 1.0000
63.4000 136.0000 1.0000
63.4200 121.0000 1.0000
63.4400 142.0000 1.0000
63.4600 130.0000 1.0000
63.4800 134.0000 1.0000
63.5000 139.0000 1.0000
63.5200 148.0000 1.0000
63.5400 129.0000 1.0000
63.5600 135.0000 1.0000
63.5800 151.0000 1.0000
63.6000 135.0000 1.0000
63.6200 153.0000 1.0000
63.6400 138.0000 1.0000
63.6600 140.0000 1.0000
63.6800 143.0000 1.0000
63.7000 151.0000 1.0000
63.7200 141.0000 1.0000
63.7400 160.0000 1.0000
63.7600 164.0000 1.0000
63.7800 176.0000 1.0000
63.8000 155.0000 1.0000
63.8200 161.0000 1.0000
63.8400 170.0000 1.0000
63.8600 200.0000 1.0000
63.8800 193.0000 1.0000
63.9000 219.0000 1.0000
63.9200 217.0000 1.0000
63.9400 211.0000 1.0000
63.9600 213.0000 1.0000
63.9800 184.0000 1.0000
64.0000 184.0000 1.0000
64.0200 187.0000 1.0000
64.0400 199.0000 1.0000
64.0600 186.0000 1.0000
64.0800 174.0000 1.0000
64.1000 170.0000 1.0000
64.1200 150.0000 1.0000
64.1400 163.0000 1.0000
64.1600 146.0000 1.0000
64.1800 131.0000 1.0000
64.2000 134.0000 1.0000
64.2200 145.0000 1.0000
64.2400 141.0000 1.0000
64.2600 125.0000 1.0000
64.2800 109.0000 1.0000
64.3000 119.0000 1.0000
64.3200 148.0000 1.0000
64.3400 141.0000 1.0000
64.3600 120.0000 1.0000
64.3800 125.0000 1.0000
64.4000 131.0000 1.0000
64.4200 129.0000 1.0000
64.4400 132.0000 1.0000
64.4600 123.0000 1.0000
64.4800 134.0000 1.0000
64.5000 127.0000 1.0000
64.5200 126.0000 1.0000
64.5400 125.0000 1.0000
64.5600 122.0000 1.0000
64.5800 107.0000 1.0000
64.6000 124.0000 1.0000
64.6200 118.0000 1.0000
64.6400 119.0000 1.0000
64.6600 117.0000 1.0000
64.6800 119.0000 1.0000
64.7000 120.0000 1.0000
64.7200 124.0000 1.0000
64.7400 133.0000 1.0000
64.7600 121.0000 1.0000
64.7800 114.0000 1.0000
64.8000 115.0000 1.0000
64.8200 118.0000 1.0000
64.8400 134.0000 1.0000
64.8600 139.0000 1.0000
64.8800 146.0000 1.0000
64.9000 122.0000 1.0000
64.9200 124.0000 1.0000
64.9400 123.0000 1.0000
64.9600 121.0000 1.0000
64.9800 121.0000 1.0000
65.0000 121.0000 1.0000
*RAS_INT_END
*RAS_DATA_END
