*RAS_DATA_START
*RAS_HEADER_START
*CORR_POS_DB_NAME "Angle Correction ASC6 SC WITH Mono_04082019"
*CORR_POS_GONIO_RADIUS ""
*CORR_POS_NODE_INDEX01 ""
*CORR_POS_NODE_INDEX02 ""
*CORR_POS_NODE_INDEX03 ""
*CORR_POS_NODE_INDEX04 ""
*CORR_POS_NODE_INDEX05 ""
*CORR_POS_NODE_INDEX06 ""
*CORR_POS_NODE_INDEX07 ""
*CORR_POS_NODE_INDEX08 ""
*CORR_POS_NODE_INDEX09 ""
*CORR_POS_NODE_INDEX10 ""
*CORR_POS_NODE_INDEX11 ""
*CORR_POS_NODE_LABEL01 "Si(111)"
*CORR_POS_NODE_LABEL02 "Si(220)"
*CORR_POS_NODE_LABEL03 "Si(311)"
*CORR_POS_NODE_LABEL04 "Si(400)"
*CORR_POS_NODE_LABEL05 "Si(331)"
*CORR_POS_NODE_LABEL06 "Si(422)"
*CORR_POS_NODE_LABEL07 "Si(511)"
*CORR_POS_NODE_LABEL08 "Si(440)"
*CORR_POS_NODE_LABEL09 "Si(531)"
*CORR_POS_NODE_LABEL10 "Si(620)"
*CORR_POS_NODE_LABEL11 "Si(533)"
*CORR_POS_NODE_POS_CALC01 "28.377"
*CORR_POS_NODE_POS_CALC02 "47.2506"
*CORR_POS_NODE_POS_CALC03 "56.0725"
*CORR_POS_NODE_POS_CALC04 "69.0822"
*CORR_POS_NODE_POS_CALC05 "76.3294"
*CORR_POS_NODE_POS_CALC06 "87.9853"
*CORR_POS_NODE_POS_CALC07 "94.9091"
*CORR_POS_NODE_POS_CALC08 "106.668"
*CORR_POS_NODE_POS_CALC09 "114.054"
*CORR_POS_NODE_POS_CALC10 "127.511"
*CORR_POS_NODE_POS_CALC11 "136.864"
*CORR_POS_NODE_POS_MEAS01 "28.5058"
*CORR_POS_NODE_POS_MEAS02 "47.345"
*CORR_POS_NODE_POS_MEAS03 "56.1421"
*CORR_POS_NODE_POS_MEAS04 "69.1304"
*CORR_POS_NODE_POS_MEAS05 "76.366"
*CORR_POS_NODE_POS_MEAS06 "88.0213"
*CORR_POS_NODE_POS_MEAS07 "94.9406"
*CORR_POS_NODE_POS_MEAS08 "106.689"
*CORR_POS_NODE_POS_MEAS09 "114.065"
*CORR_POS_NODE_POS_MEAS10 "127.518"
*CORR_POS_NODE_POS_MEAS11 "136.869"
*CORR_POS_OPT_ATTR "集中法"
*CORR_POS_PARAM_MU ""
*CORR_POS_PARAM_PL ""
*CORR_POS_SEMODEL_TYPE "0"
*CORR_POS_STANDARD_TYPE ""
*CORR_POS_VALUE_ANALYZER "None"
*CORR_POS_VALUE_CMONO "None"
*CORR_POS_VALUE_IMONO "None"
*CORR_POS_VALUE_IS "1.250deg"
*CORR_POS_VALUE_ISL "10.0mm"
*CORR_POS_VALUE_ISOLLER "5.0deg"
*CORR_POS_VALUE_RS1 "1.250deg"
*CORR_POS_VALUE_RS2 "0.3mm"
*CORR_POS_VALUE_RSOLLER "5.0deg"
*CORR_POS_XG_FOCUS_L ""
*CORR_POS_XG_WAVE_TYPE ""
*CORR_POS_XG_WAVE_VALUE ""
*DISP_FMT_X "%.2f"
*DISP_FMT_Y "%.0f"
*DISP_FULLSCALE "6253.2000000000"
*DISP_LINE_COLOR "255.0000000000"
*DISP_LINE_STYLE "0.0000000000"
*DISP_LINE_WIDTH "0.2500000000"
*DISP_NOTE "Collected Data-16"
*DISP_OFFSET_Y "0.0000000000"
*DISP_PEAKSEARCH_UNIT_Y "CPS"
*DISP_RANGE_BOTTOM "0.0000000000"
*DISP_RANGE_LEFT "5.0000000000"
*DISP_RANGE_LOGCUTOFF "0.0100000000"
*DISP_RANGE_RIGHT "65.0000000000"
*DISP_RANGE_TOP "6253.2000000000"
*DISP_SCALE_MODE_Y "0.0000000000"
*DISP_TAB_NAME "Theta/2-Theta"
*DISP_TITLE_Y "Intensity"
*DISP_UNIT_Y "CPS"
*DISP_WINDOW_NAME "MSG_MACROENGINE"
*FILE_COMMENT " "
*FILE_MD5 ""
*FILE_MEMO " "
*FILE_OPERATOR "Administrator"
*FILE_PART_ID "MEAS_PBEA_00223"
*FILE_SAMPLE " "
*FILE_TYPE "RAS_RAW"
*FILE_USERGROUP "System Manager"
*FILE_VERSION "1.0000000000"
*HW_ATTACHMENT_ID "ATT1031"
*HW_ATTACHMENT_NAME "6サンプルチェンジャ|ASC-6"
*HW_COUNTER_ID-0 "CUT0021"
*HW_COUNTER_ID-1 "CUT0020"
*HW_COUNTER_ID-2 "CUT0020"
*HW_COUNTER_ID-3 "CMC0021"
*HW_COUNTER_NAME-0 "SC-70|SC-70"
*HW_COUNTER_NAME-1 "None|None"
*HW_COUNTER_NAME-2 "None|None"
*HW_COUNTER_NAME-3 "検出器モノクロメータ|Detector monochromator"
*HW_COUNTER_SELECT_NAME "SC-70|SC-70"
*HW_ECP_HV "671.5000000000"
*HW_ECP_HV_UNIT "V"
*HW_GONIOMETER_ID "GON0070"
*HW_GONIOMETER_NAME "MiniFlex 300/600|MiniFlex 300/600"
*HW_GONIOMETER_RADIUS-0 "79.0"
*HW_GONIOMETER_RADIUS-1 "91.5"
*HW_GONIOMETER_RADIUS-2 "150.0"
*HW_GONIOMETER_RADIUS-3 "0"
*HW_GONIOMETER_RADIUS-4 "103.4"
*HW_GONIOMETER_RADIUS-5 "150.0"
*HW_GONIOMETER_RADIUS-6 "46.6"
*HW_GONIOMETER_RADIUS-7 "160.0"
*HW_I_OPT_ID-0 "ISL0021"
*HW_I_OPT_ID-1 "ISO0021"
*HW_I_OPT_NAME-0 "発散スリット|Divergence slit"
*HW_I_OPT_NAME-1 "入射平行スリット|Incident parallel slit"
*HW_R_ATTENUATER_AUTOMODE "0"
*HW_R_OPT_ID-0 "RSS0021"
*HW_R_OPT_ID-1 "RSO0021"
*HW_R_OPT_ID-2 "RRS0021"
*HW_R_OPT_NAME-0 "散乱スリット|Scattering slit"
*HW_R_OPT_NAME-1 "受光平行スリット|Receiving soller slit"
*HW_R_OPT_NAME-2 "受光スリット|Receiving slit"
*HW_SAMPLE_HOLDER_ID "SMP0000"
*HW_SAMPLE_HOLDER_NAME "無し|None"
*HW_XG_CURRENT_MAX "15"
*HW_XG_CURRENT_MIN "2"
*HW_XG_CURRENT_RESOLUTION "1"
*HW_XG_CURRENT_UNIT "mA"
*HW_XG_FOCUS "1mm x 10mm"
*HW_XG_FOCUS_TYPE "Normal"
*HW_XG_ID "1060"
*HW_XG_NAME "300W/600W 封入管-B|300W/600W Sealed tube-B"
*HW_XG_TARGET_ATOMIC_NUMBER "29.0000000000"
*HW_XG_TARGET_NAME "Cu"
*HW_XG_TYPE "Hermetic"
*HW_XG_VOLTAGE_MAX "40"
*HW_XG_VOLTAGE_MIN "20"
*HW_XG_VOLTAGE_RESOLUTION "1"
*HW_XG_VOLTAGE_UNIT "kV"
*HW_XG_WATT_MAX "0.600"
*HW_XG_WATT_UNIT "kW"
*HW_XG_WAVE_LENGTH_ALPHA1 "1.540593"
*HW_XG_WAVE_LENGTH_ALPHA2 "1.544414"
*HW_XG_WAVE_LENGTH_BETA "1.392250"
*MEAS_COND_AXIS_NAME-0 "Theta/2-Theta"
*MEAS_COND_AXIS_NAME-1 "Spin"
*MEAS_COND_AXIS_NAME-2 "Change"
*MEAS_COND_AXIS_NAME-3 "Soller(inc.)"
*MEAS_COND_AXIS_NAME-4 "IHS"
*MEAS_COND_AXIS_NAME-5 "DS"
*MEAS_COND_AXIS_NAME-6 "SS"
*MEAS_COND_AXIS_NAME-7 "Soller(rec.)"
*MEAS_COND_AXIS_NAME-8 "RS"
*MEAS_COND_AXIS_NAME-9 "Filter"
*MEAS_COND_AXIS_NAME-10 "Monochromator"
*MEAS_COND_AXIS_NAME-11 "HV"
*MEAS_COND_AXIS_NAME-12 "PHA"
*MEAS_COND_AXIS_NAME_INTERNAL-0 "TwoThetaTheta"
*MEAS_COND_AXIS_NAME_INTERNAL-1 "Spin"
*MEAS_COND_AXIS_NAME_INTERNAL-2 "Change"
*MEAS_COND_AXIS_NAME_INTERNAL-3 "IncidentSollerSlit"
*MEAS_COND_AXIS_NAME_INTERNAL-4 "IncidentAxdSlit"
*MEAS_COND_AXIS_NAME_INTERNAL-5 "IncidentSlitBox"
*MEAS_COND_AXIS_NAME_INTERNAL-6 "ReceivingSlitBox1"
*MEAS_COND_AXIS_NAME_INTERNAL-7 "ReceivingSollerSlit"
*MEAS_COND_AXIS_NAME_INTERNAL-8 "ReceivingSlitBox2"
*MEAS_COND_AXIS_NAME_INTERNAL-9 "Filter"
*MEAS_COND_AXIS_NAME_INTERNAL-10 "CounterMonochromator"
*MEAS_COND_AXIS_NAME_INTERNAL-11 "HV"
*MEAS_COND_AXIS_NAME_INTERNAL-12 "PHA"
*MEAS_COND_AXIS_NAME_MAGICNO-0 "268632064.0000000000"
*MEAS_COND_AXIS_NAME_MAGICNO-1 "16842752.0000000000"
*MEAS_COND_AXIS_NAME_MAGICNO-2 "16842752.0000000000"
*MEAS_COND_AXIS_NAME_MAGICNO-3 "20971521.0000000000"
*MEAS_COND_AXIS_NAME_MAGICNO-4 "22020097.0000000000"
*MEAS_COND_AXIS_NAME_MAGICNO-5 "22020097.0000000000"
*MEAS_COND_AXIS_NAME_MAGICNO-6 "23068673.0000000000"
*MEAS_COND_AXIS_NAME_MAGICNO-7 "20971521.0000000000"
*MEAS_COND_AXIS_NAME_MAGICNO-8 "23068673.0000000000"
*MEAS_COND_AXIS_NAME_MAGICNO-9 "20971521.0000000000"
*MEAS_COND_AXIS_NAME_MAGICNO-10 "20971521.0000000000"
*MEAS_COND_AXIS_NAME_MAGICNO-11 "0.0000000000"
*MEAS_COND_AXIS_NAME_MAGICNO-12 "0.0000000000"
*MEAS_COND_AXIS_OFFSET-0 "0.0000000000"
*MEAS_COND_AXIS_OFFSET-1 "-"
*MEAS_COND_AXIS_OFFSET-2 "-"
*MEAS_COND_AXIS_OFFSET-3 "-"
*MEAS_COND_AXIS_OFFSET-4 "-"
*MEAS_COND_AXIS_OFFSET-5 "-"
*MEAS_COND_AXIS_OFFSET-6 "-"
*MEAS_COND_AXIS_OFFSET-7 "-"
*MEAS_COND_AXIS_OFFSET-8 "-"
*MEAS_COND_AXIS_OFFSET-9 "-"
*MEAS_COND_AXIS_OFFSET-10 "-"
*MEAS_COND_AXIS_OFFSET-11 "-"
*MEAS_COND_AXIS_OFFSET-12 "-"
*MEAS_COND_AXIS_POSITION-0 "65.0000000000"
*MEAS_COND_AXIS_POSITION-1 "0.0000000000"
*MEAS_COND_AXIS_POSITION-2 "2.0000000000"
*MEAS_COND_AXIS_POSITION-3 "5.0deg"
*MEAS_COND_AXIS_POSITION-4 "10.0mm"
*MEAS_COND_AXIS_POSITION-5 "1.250deg"
*MEAS_COND_AXIS_POSITION-6 "1.250deg"
*MEAS_COND_AXIS_POSITION-7 "5.0deg"
*MEAS_COND_AXIS_POSITION-8 "0.3mm"
*MEAS_COND_AXIS_POSITION-9 "None"
*MEAS_COND_AXIS_POSITION-10 "Bent"
*MEAS_COND_AXIS_POSITION-11 "671.5000000000"
*MEAS_COND_AXIS_POSITION-12 "551.2500000000"
*MEAS_COND_AXIS_UNIT-0 "deg"
*MEAS_COND_AXIS_UNIT-1 ""
*MEAS_COND_AXIS_UNIT-2 ""
*MEAS_COND_AXIS_UNIT-3 ""
*MEAS_COND_AXIS_UNIT-4 ""
*MEAS_COND_AXIS_UNIT-5 ""
*MEAS_COND_AXIS_UNIT-6 ""
*MEAS_COND_AXIS_UNIT-7 ""
*MEAS_COND_AXIS_UNIT-8 ""
*MEAS_COND_AXIS_UNIT-9 ""
*MEAS_COND_AXIS_UNIT-10 ""
*MEAS_COND_AXIS_UNIT-11 "V"
*MEAS_COND_AXIS_UNIT-12 "mV"
*MEAS_COND_CORRECTION_SLIT_COUNTERMONO "None"
*MEAS_COND_CORRECTION_SLIT_DS "1.250deg"
*MEAS_COND_CORRECTION_SLIT_FILTER "None"
*MEAS_COND_CORRECTION_SLIT_IHS "10.0mm"
*MEAS_COND_CORRECTION_SLIT_RS "0.3mm"
*MEAS_COND_CORRECTION_SLIT_SOLLER_INC "5.0deg"
*MEAS_COND_CORRECTION_SLIT_SOLLER_REC "5.0deg"
*MEAS_COND_CORRECTION_SLIT_SS "1.250deg"
*MEAS_COND_COUNTER_CNTLOSS_CORR "0.0000000000"
*MEAS_COND_COUNTER_PHABASE "551.2500000000"
*MEAS_COND_COUNTER_PHAWINDOW "926.2500000000"
*MEAS_COND_COUNTER_PHA_UNIT "mV"
*MEAS_COND_COUNTER_TAUDIFF "0.2500000000"
*MEAS_COND_COUNTER_TAUINT "0.7500000000"
*MEAS_COND_IRRADIATION_MODE "OFF"
*MEAS_COND_IRRADIATION_WIDTH ""
*MEAS_COND_OPT_ATTR " "
*MEAS_COND_OPT_NAME ""
*MEAS_COND_UNSYMMETRIC_MODE "OFF"
*MEAS_COND_XG_CURRENT "15.0000000000"
*MEAS_COND_XG_VOLTAGE "40.0000000000"
*MEAS_COND_XG_WAVE_TYPE "Ka"
*MEAS_DATA_COUNT "3001.0000000000"
*MEAS_SCAN_AXIS_X "Theta/2-Theta"
*MEAS_SCAN_AXIS_X_INTERNAL "TwoThetaTheta"
*MEAS_SCAN_END_TIME "05/06/25 17:24:43"
*MEAS_SCAN_MODE "STEP"
*MEAS_SCAN_MONITOR "0"
*MEAS_SCAN_RESOLUTION_X "0.0025"
*MEAS_SCAN_SPEED "2.00"
*MEAS_SCAN_SPEED_UNIT "sec."
*MEAS_SCAN_SPEED_USER "2.00"
*MEAS_SCAN_START "5.0000000000"
*MEAS_SCAN_START_TIME "05/06/25 15:39:27"
*MEAS_SCAN_STEP "0.0200000000"
*MEAS_SCAN_STOP "65.0000000000"
*MEAS_SCAN_UNIT_X "deg"
*MEAS_SCAN_UNIT_Y "counts"
*SLIT_SYSTEM "0"
*RAS_HEADER_END
*RAS_INT_START
5.0000 1139.0000 1.0000
5.0200 1175.0000 1.0000
5.0400 1149.0000 1.0000
5.0600 1103.0000 1.0000
5.0800 1132.0000 1.0000
5.1000 1201.0000 1.0000
5.1200 1080.0000 1.0000
5.1400 1108.0000 1.0000
5.1600 1187.0000 1.0000
5.1800 1164.0000 1.0000
5.2000 1095.0000 1.0000
5.2200 1163.0000 1.0000
5.2400 1101.0000 1.0000
5.2600 1076.0000 1.0000
5.2800 1089.0000 1.0000
5.3000 1096.0000 1.0000
5.3200 1095.0000 1.0000
5.3400 1192.0000 1.0000
5.3600 1185.0000 1.0000
5.3800 1034.0000 1.0000
5.4000 1103.0000 1.0000
5.4200 1123.0000 1.0000
5.4400 995.0000 1.0000
5.4600 954.0000 1.0000
5.4800 1114.0000 1.0000
5.5000 1008.0000 1.0000
5.5200 1032.0000 1.0000
5.5400 1112.0000 1.0000
5.5600 1085.0000 1.0000
5.5800 1058.0000 1.0000
5.6000 1060.0000 1.0000
5.6200 954.0000 1.0000
5.6400 960.0000 1.0000
5.6600 1043.0000 1.0000
5.6800 1078.0000 1.0000
5.7000 1052.0000 1.0000
5.7200 1081.0000 1.0000
5.7400 1077.0000 1.0000
5.7600 1050.0000 1.0000
5.7800 1082.0000 1.0000
5.8000 1092.0000 1.0000
5.8200 1020.0000 1.0000
5.8400 1004.0000 1.0000
5.8600 1077.0000 1.0000
5.8800 1102.0000 1.0000
5.9000 1019.0000 1.0000
5.9200 1019.0000 1.0000
5.9400 1157.0000 1.0000
5.9600 1134.0000 1.0000
5.9800 1134.0000 1.0000
6.0000 1139.0000 1.0000
6.0200 1108.0000 1.0000
6.0400 1070.0000 1.0000
6.0600 1072.0000 1.0000
6.0800 1100.0000 1.0000
6.1000 1078.0000 1.0000
6.1200 1068.0000 1.0000
6.1400 1138.0000 1.0000
6.1600 1085.0000 1.0000
6.1800 1049.0000 1.0000
6.2000 1003.0000 1.0000
6.2200 946.0000 1.0000
6.2400 1045.0000 1.0000
6.2600 946.0000 1.0000
6.2800 913.0000 1.0000
6.3000 880.0000 1.0000
6.3200 830.0000 1.0000
6.3400 822.0000 1.0000
6.3600 831.0000 1.0000
6.3800 770.0000 1.0000
6.4000 770.0000 1.0000
6.4200 756.0000 1.0000
6.4400 748.0000 1.0000
6.4600 815.0000 1.0000
6.4800 793.0000 1.0000
6.5000 759.0000 1.0000
6.5200 751.0000 1.0000
6.5400 743.0000 1.0000
6.5600 743.0000 1.0000
6.5800 789.0000 1.0000
6.6000 804.0000 1.0000
6.6200 784.0000 1.0000
6.6400 762.0000 1.0000
6.6600 726.0000 1.0000
6.6800 707.0000 1.0000
6.7000 677.0000 1.0000
6.7200 709.0000 1.0000
6.7400 707.0000 1.0000
6.7600 669.0000 1.0000
6.7800 722.0000 1.0000
6.8000 714.0000 1.0000
6.8200 676.0000 1.0000
6.8400 707.0000 1.0000
6.8600 719.0000 1.0000
6.8800 665.0000 1.0000
6.9000 696.0000 1.0000
6.9200 713.0000 1.0000
6.9400 684.0000 1.0000
6.9600 666.0000 1.0000
6.9800 634.0000 1.0000
7.0000 627.0000 1.0000
7.0200 665.0000 1.0000
7.0400 685.0000 1.0000
7.0600 675.0000 1.0000
7.0800 652.0000 1.0000
7.1000 663.0000 1.0000
7.1200 640.0000 1.0000
7.1400 620.0000 1.0000
7.1600 655.0000 1.0000
7.1800 658.0000 1.0000
7.2000 651.0000 1.0000
7.2200 657.0000 1.0000
7.2400 660.0000 1.0000
7.2600 654.0000 1.0000
7.2800 636.0000 1.0000
7.3000 635.0000 1.0000
7.3200 641.0000 1.0000
7.3400 603.0000 1.0000
7.3600 596.0000 1.0000
7.3800 645.0000 1.0000
7.4000 629.0000 1.0000
7.4200 577.0000 1.0000
7.4400 537.0000 1.0000
7.4600 556.0000 1.0000
7.4800 564.0000 1.0000
7.5000 555.0000 1.0000
7.5200 579.0000 1.0000
7.5400 567.0000 1.0000
7.5600 593.0000 1.0000
7.5800 599.0000 1.0000
7.6000 585.0000 1.0000
7.6200 583.0000 1.0000
7.6400 602.0000 1.0000
7.6600 585.0000 1.0000
7.6800 518.0000 1.0000
7.7000 565.0000 1.0000
7.7200 595.0000 1.0000
7.7400 603.0000 1.0000
7.7600 636.0000 1.0000
7.7800 579.0000 1.0000
7.8000 625.0000 1.0000
7.8200 645.0000 1.0000
7.8400 608.0000 1.0000
7.8600 604.0000 1.0000
7.8800 576.0000 1.0000
7.9000 596.0000 1.0000
7.9200 644.0000 1.0000
7.9400 624.0000 1.0000
7.9600 598.0000 1.0000
7.9800 604.0000 1.0000
8.0000 617.0000 1.0000
8.0200 641.0000 1.0000
8.0400 662.0000 1.0000
8.0600 624.0000 1.0000
8.0800 673.0000 1.0000
8.1000 710.0000 1.0000
8.1200 732.0000 1.0000
8.1400 737.0000 1.0000
8.1600 751.0000 1.0000
8.1800 740.0000 1.0000
8.2000 797.0000 1.0000
8.2200 761.0000 1.0000
8.2400 769.0000 1.0000
8.2600 866.0000 1.0000
8.2800 835.0000 1.0000
8.3000 853.0000 1.0000
8.3200 930.0000 1.0000
8.3400 954.0000 1.0000
8.3600 983.0000 1.0000
8.3800 1059.0000 1.0000
8.4000 1052.0000 1.0000
8.4200 1076.0000 1.0000
8.4400 1122.0000 1.0000
8.4600 1089.0000 1.0000
8.4800 1102.0000 1.0000
8.5000 1158.0000 1.0000
8.5200 1169.0000 1.0000
8.5400 1197.0000 1.0000
8.5600 1255.0000 1.0000
8.5800 1283.0000 1.0000
8.6000 1332.0000 1.0000
8.6200 1262.0000 1.0000
8.6400 1354.0000 1.0000
8.6600 1344.0000 1.0000
8.6800 1401.0000 1.0000
8.7000 1375.0000 1.0000
8.7200 1307.0000 1.0000
8.7400 1154.0000 1.0000
8.7600 1096.0000 1.0000
8.7800 1022.0000 1.0000
8.8000 881.0000 1.0000
8.8200 879.0000 1.0000
8.8400 695.0000 1.0000
8.8600 671.0000 1.0000
8.8800 692.0000 1.0000
8.9000 632.0000 1.0000
8.9200 664.0000 1.0000
8.9400 623.0000 1.0000
8.9600 594.0000 1.0000
8.9800 612.0000 1.0000
9.0000 602.0000 1.0000
9.0200 651.0000 1.0000
9.0400 684.0000 1.0000
9.0600 728.0000 1.0000
9.0800 757.0000 1.0000
9.1000 789.0000 1.0000
9.1200 934.0000 1.0000
9.1400 922.0000 1.0000
9.1600 959.0000 1.0000
9.1800 949.0000 1.0000
9.2000 898.0000 1.0000
9.2200 845.0000 1.0000
9.2400 645.0000 1.0000
9.2600 547.0000 1.0000
9.2800 477.0000 1.0000
9.3000 380.0000 1.0000
9.3200 373.0000 1.0000
9.3400 328.0000 1.0000
9.3600 319.0000 1.0000
9.3800 281.0000 1.0000
9.4000 322.0000 1.0000
9.4200 282.0000 1.0000
9.4400 301.0000 1.0000
9.4600 300.0000 1.0000
9.4800 292.0000 1.0000
9.5000 281.0000 1.0000
9.5200 265.0000 1.0000
9.5400 261.0000 1.0000
9.5600 248.0000 1.0000
9.5800 263.0000 1.0000
9.6000 245.0000 1.0000
9.6200 270.0000 1.0000
9.6400 258.0000 1.0000
9.6600 232.0000 1.0000
9.6800 288.0000 1.0000
9.7000 306.0000 1.0000
9.7200 296.0000 1.0000
9.7400 238.0000 1.0000
9.7600 234.0000 1.0000
9.7800 229.0000 1.0000
9.8000 238.0000 1.0000
9.8200 234.0000 1.0000
9.8400 247.0000 1.0000
9.8600 275.0000 1.0000
9.8800 240.0000 1.0000
9.9000 225.0000 1.0000
9.9200 260.0000 1.0000
9.9400 233.0000 1.0000
9.9600 227.0000 1.0000
9.9800 243.0000 1.0000
10.0000 236.0000 1.0000
10.0200 226.0000 1.0000
10.0400 248.0000 1.0000
10.0600 221.0000 1.0000
10.0800 224.0000 1.0000
10.1000 220.0000 1.0000
10.1200 240.0000 1.0000
10.1400 223.0000 1.0000
10.1600 223.0000 1.0000
10.1800 198.0000 1.0000
10.2000 233.0000 1.0000
10.2200 216.0000 1.0000
10.2400 203.0000 1.0000
10.2600 213.0000 1.0000
10.2800 227.0000 1.0000
10.3000 234.0000 1.0000
10.3200 226.0000 1.0000
10.3400 177.0000 1.0000
10.3600 222.0000 1.0000
10.3800 256.0000 1.0000
10.4000 205.0000 1.0000
10.4200 179.0000 1.0000
10.4400 242.0000 1.0000
10.4600 223.0000 1.0000
10.4800 202.0000 1.0000
10.5000 233.0000 1.0000
10.5200 222.0000 1.0000
10.5400 215.0000 1.0000
10.5600 218.0000 1.0000
10.5800 217.0000 1.0000
10.6000 192.0000 1.0000
10.6200 209.0000 1.0000
10.6400 202.0000 1.0000
10.6600 200.0000 1.0000
10.6800 196.0000 1.0000
10.7000 215.0000 1.0000
10.7200 199.0000 1.0000
10.7400 212.0000 1.0000
10.7600 235.0000 1.0000
10.7800 222.0000 1.0000
10.8000 234.0000 1.0000
10.8200 223.0000 1.0000
10.8400 210.0000 1.0000
10.8600 203.0000 1.0000
10.8800 208.0000 1.0000
10.9000 189.0000 1.0000
10.9200 202.0000 1.0000
10.9400 183.0000 1.0000
10.9600 229.0000 1.0000
10.9800 204.0000 1.0000
11.0000 209.0000 1.0000
11.0200 197.0000 1.0000
11.0400 195.0000 1.0000
11.0600 221.0000 1.0000
11.0800 201.0000 1.0000
11.1000 216.0000 1.0000
11.1200 185.0000 1.0000
11.1400 181.0000 1.0000
11.1600 223.0000 1.0000
11.1800 232.0000 1.0000
11.2000 194.0000 1.0000
11.2200 190.0000 1.0000
11.2400 201.0000 1.0000
11.2600 214.0000 1.0000
11.2800 191.0000 1.0000
11.3000 199.0000 1.0000
11.3200 211.0000 1.0000
11.3400 209.0000 1.0000
11.3600 219.0000 1.0000
11.3800 204.0000 1.0000
11.4000 212.0000 1.0000
11.4200 200.0000 1.0000
11.4400 195.0000 1.0000
11.4600 227.0000 1.0000
11.4800 226.0000 1.0000
11.5000 233.0000 1.0000
11.5200 219.0000 1.0000
11.5400 177.0000 1.0000
11.5600 218.0000 1.0000
11.5800 218.0000 1.0000
11.6000 240.0000 1.0000
11.6200 243.0000 1.0000
11.6400 222.0000 1.0000
11.6600 244.0000 1.0000
11.6800 234.0000 1.0000
11.7000 248.0000 1.0000
11.7200 244.0000 1.0000
11.7400 218.0000 1.0000
11.7600 213.0000 1.0000
11.7800 260.0000 1.0000
11.8000 238.0000 1.0000
11.8200 240.0000 1.0000
11.8400 243.0000 1.0000
11.8600 295.0000 1.0000
11.8800 279.0000 1.0000
11.9000 264.0000 1.0000
11.9200 306.0000 1.0000
11.9400 305.0000 1.0000
11.9600 310.0000 1.0000
11.9800 281.0000 1.0000
12.0000 323.0000 1.0000
12.0200 319.0000 1.0000
12.0400 336.0000 1.0000
12.0600 316.0000 1.0000
12.0800 355.0000 1.0000
12.1000 356.0000 1.0000
12.1200 398.0000 1.0000
12.1400 388.0000 1.0000
12.1600 431.0000 1.0000
12.1800 428.0000 1.0000
12.2000 422.0000 1.0000
12.2200 445.0000 1.0000
12.2400 443.0000 1.0000
12.2600 471.0000 1.0000
12.2800 469.0000 1.0000
12.3000 433.0000 1.0000
12.3200 446.0000 1.0000
12.3400 480.0000 1.0000
12.3600 424.0000 1.0000
12.3800 397.0000 1.0000
12.4000 386.0000 1.0000
12.4200 373.0000 1.0000
12.4400 368.0000 1.0000
12.4600 339.0000 1.0000
12.4800 307.0000 1.0000
12.5000 302.0000 1.0000
12.5200 288.0000 1.0000
12.5400 297.0000 1.0000
12.5600 319.0000 1.0000
12.5800 281.0000 1.0000
12.6000 301.0000 1.0000
12.6200 317.0000 1.0000
12.6400 343.0000 1.0000
12.6600 332.0000 1.0000
12.6800 330.0000 1.0000
12.7000 387.0000 1.0000
12.7200 421.0000 1.0000
12.7400 405.0000 1.0000
12.7600 443.0000 1.0000
12.7800 451.0000 1.0000
12.8000 452.0000 1.0000
12.8200 407.0000 1.0000
12.8400 358.0000 1.0000
12.8600 316.0000 1.0000
12.8800 264.0000 1.0000
12.9000 226.0000 1.0000
12.9200 203.0000 1.0000
12.9400 195.0000 1.0000
12.9600 212.0000 1.0000
12.9800 173.0000 1.0000
13.0000 176.0000 1.0000
13.0200 175.0000 1.0000
13.0400 192.0000 1.0000
13.0600 168.0000 1.0000
13.0800 162.0000 1.0000
13.1000 150.0000 1.0000
13.1200 171.0000 1.0000
13.1400 179.0000 1.0000
13.1600 152.0000 1.0000
13.1800 176.0000 1.0000
13.2000 166.0000 1.0000
13.2200 167.0000 1.0000
13.2400 161.0000 1.0000
13.2600 162.0000 1.0000
13.2800 175.0000 1.0000
13.3000 142.0000 1.0000
13.3200 149.0000 1.0000
13.3400 180.0000 1.0000
13.3600 169.0000 1.0000
13.3800 161.0000 1.0000
13.4000 156.0000 1.0000
13.4200 173.0000 1.0000
13.4400 166.0000 1.0000
13.4600 165.0000 1.0000
13.4800 186.0000 1.0000
13.5000 168.0000 1.0000
13.5200 173.0000 1.0000
13.5400 199.0000 1.0000
13.5600 197.0000 1.0000
13.5800 222.0000 1.0000
13.6000 228.0000 1.0000
13.6200 213.0000 1.0000
13.6400 210.0000 1.0000
13.6600 244.0000 1.0000
13.6800 265.0000 1.0000
13.7000 253.0000 1.0000
13.7200 262.0000 1.0000
13.7400 244.0000 1.0000
13.7600 246.0000 1.0000
13.7800 221.0000 1.0000
13.8000 221.0000 1.0000
13.8200 221.0000 1.0000
13.8400 192.0000 1.0000
13.8600 181.0000 1.0000
13.8800 178.0000 1.0000
13.9000 171.0000 1.0000
13.9200 159.0000 1.0000
13.9400 153.0000 1.0000
13.9600 154.0000 1.0000
13.9800 166.0000 1.0000
14.0000 155.0000 1.0000
14.0200 172.0000 1.0000
14.0400 177.0000 1.0000
14.0600 166.0000 1.0000
14.0800 162.0000 1.0000
14.1000 161.0000 1.0000
14.1200 174.0000 1.0000
14.1400 187.0000 1.0000
14.1600 201.0000 1.0000
14.1800 195.0000 1.0000
14.2000 181.0000 1.0000
14.2200 174.0000 1.0000
14.2400 171.0000 1.0000
14.2600 165.0000 1.0000
14.2800 155.0000 1.0000
14.3000 161.0000 1.0000
14.3200 153.0000 1.0000
14.3400 131.0000 1.0000
14.3600 120.0000 1.0000
14.3800 117.0000 1.0000
14.4000 131.0000 1.0000
14.4200 144.0000 1.0000
14.4400 148.0000 1.0000
14.4600 131.0000 1.0000
14.4800 111.0000 1.0000
14.5000 120.0000 1.0000
14.5200 126.0000 1.0000
14.5400 117.0000 1.0000
14.5600 121.0000 1.0000
14.5800 130.0000 1.0000
14.6000 136.0000 1.0000
14.6200 146.0000 1.0000
14.6400 148.0000 1.0000
14.6600 147.0000 1.0000
14.6800 148.0000 1.0000
14.7000 144.0000 1.0000
14.7200 139.0000 1.0000
14.7400 145.0000 1.0000
14.7600 151.0000 1.0000
14.7800 147.0000 1.0000
14.8000 159.0000 1.0000
14.8200 163.0000 1.0000
14.8400 163.0000 1.0000
14.8600 150.0000 1.0000
14.8800 133.0000 1.0000
14.9000 139.0000 1.0000
14.9200 144.0000 1.0000
14.9400 143.0000 1.0000
14.9600 138.0000 1.0000
14.9800 129.0000 1.0000
15.0000 125.0000 1.0000
15.0200 130.0000 1.0000
15.0400 134.0000 1.0000
15.0600 136.0000 1.0000
15.0800 118.0000 1.0000
15.1000 110.0000 1.0000
15.1200 125.0000 1.0000
15.1400 124.0000 1.0000
15.1600 126.0000 1.0000
15.1800 133.0000 1.0000
15.2000 132.0000 1.0000
15.2200 133.0000 1.0000
15.2400 122.0000 1.0000
15.2600 120.0000 1.0000
15.2800 119.0000 1.0000
15.3000 121.0000 1.0000
15.3200 126.0000 1.0000
15.3400 120.0000 1.0000
15.3600 122.0000 1.0000
15.3800 128.0000 1.0000
15.4000 131.0000 1.0000
15.4200 135.0000 1.0000
15.4400 138.0000 1.0000
15.4600 138.0000 1.0000
15.4800 127.0000 1.0000
15.5000 121.0000 1.0000
15.5200 127.0000 1.0000
15.5400 139.0000 1.0000
15.5600 129.0000 1.0000
15.5800 127.0000 1.0000
15.6000 133.0000 1.0000
15.6200 133.0000 1.0000
15.6400 132.0000 1.0000
15.6600 138.0000 1.0000
15.6800 140.0000 1.0000
15.7000 150.0000 1.0000
15.7200 161.0000 1.0000
15.7400 150.0000 1.0000
15.7600 147.0000 1.0000
15.7800 131.0000 1.0000
15.8000 132.0000 1.0000
15.8200 136.0000 1.0000
15.8400 123.0000 1.0000
15.8600 119.0000 1.0000
15.8800 114.0000 1.0000
15.9000 124.0000 1.0000
15.9200 125.0000 1.0000
15.9400 121.0000 1.0000
15.9600 111.0000 1.0000
15.9800 109.0000 1.0000
16.0000 119.0000 1.0000
16.0200 137.0000 1.0000
16.0400 133.0000 1.0000
16.0600 126.0000 1.0000
16.0800 123.0000 1.0000
16.1000 127.0000 1.0000
16.1200 115.0000 1.0000
16.1400 113.0000 1.0000
16.1600 132.0000 1.0000
16.1800 127.0000 1.0000
16.2000 113.0000 1.0000
16.2200 113.0000 1.0000
16.2400 127.0000 1.0000
16.2600 113.0000 1.0000
16.2800 135.0000 1.0000
16.3000 138.0000 1.0000
16.3200 119.0000 1.0000
16.3400 127.0000 1.0000
16.3600 139.0000 1.0000
16.3800 130.0000 1.0000
16.4000 125.0000 1.0000
16.4200 123.0000 1.0000
16.4400 113.0000 1.0000
16.4600 114.0000 1.0000
16.4800 115.0000 1.0000
16.5000 116.0000 1.0000
16.5200 120.0000 1.0000
16.5400 110.0000 1.0000
16.5600 113.0000 1.0000
16.5800 116.0000 1.0000
16.6000 121.0000 1.0000
16.6200 125.0000 1.0000
16.6400 120.0000 1.0000
16.6600 121.0000 1.0000
16.6800 115.0000 1.0000
16.7000 107.0000 1.0000
16.7200 127.0000 1.0000
16.7400 142.0000 1.0000
16.7600 146.0000 1.0000
16.7800 128.0000 1.0000
16.8000 126.0000 1.0000
16.8200 125.0000 1.0000
16.8400 112.0000 1.0000
16.8600 139.0000 1.0000
16.8800 144.0000 1.0000
16.9000 133.0000 1.0000
16.9200 131.0000 1.0000
16.9400 137.0000 1.0000
16.9600 145.0000 1.0000
16.9800 140.0000 1.0000
17.0000 148.0000 1.0000
17.0200 143.0000 1.0000
17.0400 145.0000 1.0000
17.0600 155.0000 1.0000
17.0800 131.0000 1.0000
17.1000 150.0000 1.0000
17.1200 155.0000 1.0000
17.1400 152.0000 1.0000
17.1600 178.0000 1.0000
17.1800 184.0000 1.0000
17.2000 157.0000 1.0000
17.2200 173.0000 1.0000
17.2400 184.0000 1.0000
17.2600 176.0000 1.0000
17.2800 165.0000 1.0000
17.3000 191.0000 1.0000
17.3200 184.0000 1.0000
17.3400 225.0000 1.0000
17.3600 243.0000 1.0000
17.3800 242.0000 1.0000
17.4000 249.0000 1.0000
17.4200 278.0000 1.0000
17.4400 276.0000 1.0000
17.4600 298.0000 1.0000
17.4800 296.0000 1.0000
17.5000 285.0000 1.0000
17.5200 278.0000 1.0000
17.5400 285.0000 1.0000
17.5600 256.0000 1.0000
17.5800 272.0000 1.0000
17.6000 261.0000 1.0000
17.6200 267.0000 1.0000
17.6400 280.0000 1.0000
17.6600 274.0000 1.0000
17.6800 281.0000 1.0000
17.7000 249.0000 1.0000
17.7200 242.0000 1.0000
17.7400 238.0000 1.0000
17.7600 233.0000 1.0000
17.7800 221.0000 1.0000
17.8000 198.0000 1.0000
17.8200 200.0000 1.0000
17.8400 200.0000 1.0000
17.8600 190.0000 1.0000
17.8800 196.0000 1.0000
17.9000 182.0000 1.0000
17.9200 186.0000 1.0000
17.9400 170.0000 1.0000
17.9600 165.0000 1.0000
17.9800 157.0000 1.0000
18.0000 162.0000 1.0000
18.0200 150.0000 1.0000
18.0400 164.0000 1.0000
18.0600 168.0000 1.0000
18.0800 161.0000 1.0000
18.1000 148.0000 1.0000
18.1200 129.0000 1.0000
18.1400 147.0000 1.0000
18.1600 136.0000 1.0000
18.1800 160.0000 1.0000
18.2000 139.0000 1.0000
18.2200 134.0000 1.0000
18.2400 148.0000 1.0000
18.2600 162.0000 1.0000
18.2800 157.0000 1.0000
18.3000 156.0000 1.0000
18.3200 181.0000 1.0000
18.3400 171.0000 1.0000
18.3600 160.0000 1.0000
18.3800 163.0000 1.0000
18.4000 175.0000 1.0000
18.4200 172.0000 1.0000
18.4400 172.0000 1.0000
18.4600 186.0000 1.0000
18.4800 205.0000 1.0000
18.5000 233.0000 1.0000
18.5200 218.0000 1.0000
18.5400 198.0000 1.0000
18.5600 227.0000 1.0000
18.5800 238.0000 1.0000
18.6000 233.0000 1.0000
18.6200 241.0000 1.0000
18.6400 246.0000 1.0000
18.6600 218.0000 1.0000
18.6800 194.0000 1.0000
18.7000 173.0000 1.0000
18.7200 184.0000 1.0000
18.7400 165.0000 1.0000
18.7600 173.0000 1.0000
18.7800 169.0000 1.0000
18.8000 170.0000 1.0000
18.8200 154.0000 1.0000
18.8400 169.0000 1.0000
18.8600 161.0000 1.0000
18.8800 146.0000 1.0000
18.9000 180.0000 1.0000
18.9200 169.0000 1.0000
18.9400 187.0000 1.0000
18.9600 167.0000 1.0000
18.9800 183.0000 1.0000
19.0000 185.0000 1.0000
19.0200 182.0000 1.0000
19.0400 190.0000 1.0000
19.0600 193.0000 1.0000
19.0800 190.0000 1.0000
19.1000 195.0000 1.0000
19.1200 213.0000 1.0000
19.1400 216.0000 1.0000
19.1600 202.0000 1.0000
19.1800 211.0000 1.0000
19.2000 223.0000 1.0000
19.2200 214.0000 1.0000
19.2400 237.0000 1.0000
19.2600 280.0000 1.0000
19.2800 257.0000 1.0000
19.3000 249.0000 1.0000
19.3200 268.0000 1.0000
19.3400 256.0000 1.0000
19.3600 277.0000 1.0000
19.3800 307.0000 1.0000
19.4000 330.0000 1.0000
19.4200 336.0000 1.0000
19.4400 400.0000 1.0000
19.4600 435.0000 1.0000
19.4800 459.0000 1.0000
19.5000 484.0000 1.0000
19.5200 529.0000 1.0000
19.5400 594.0000 1.0000
19.5600 648.0000 1.0000
19.5800 664.0000 1.0000
19.6000 672.0000 1.0000
19.6200 719.0000 1.0000
19.6400 735.0000 1.0000
19.6600 737.0000 1.0000
19.6800 703.0000 1.0000
19.7000 635.0000 1.0000
19.7200 608.0000 1.0000
19.7400 610.0000 1.0000
19.7600 559.0000 1.0000
19.7800 541.0000 1.0000
19.8000 521.0000 1.0000
19.8200 445.0000 1.0000
19.8400 434.0000 1.0000
19.8600 452.0000 1.0000
19.8800 405.0000 1.0000
19.9000 386.0000 1.0000
19.9200 365.0000 1.0000
19.9400 363.0000 1.0000
19.9600 337.0000 1.0000
19.9800 331.0000 1.0000
20.0000 338.0000 1.0000
20.0200 296.0000 1.0000
20.0400 322.0000 1.0000
20.0600 308.0000 1.0000
20.0800 277.0000 1.0000
20.1000 322.0000 1.0000
20.1200 287.0000 1.0000
20.1400 270.0000 1.0000
20.1600 306.0000 1.0000
20.1800 305.0000 1.0000
20.2000 284.0000 1.0000
20.2200 267.0000 1.0000
20.2400 280.0000 1.0000
20.2600 323.0000 1.0000
20.2800 310.0000 1.0000
20.3000 330.0000 1.0000
20.3200 305.0000 1.0000
20.3400 328.0000 1.0000
20.3600 348.0000 1.0000
20.3800 355.0000 1.0000
20.4000 350.0000 1.0000
20.4200 381.0000 1.0000
20.4400 385.0000 1.0000
20.4600 425.0000 1.0000
20.4800 461.0000 1.0000
20.5000 523.0000 1.0000
20.5200 596.0000 1.0000
20.5400 685.0000 1.0000
20.5600 735.0000 1.0000
20.5800 880.0000 1.0000
20.6000 981.0000 1.0000
20.6200 1325.0000 1.0000
20.6400 1521.0000 1.0000
20.6600 1731.0000 1.0000
20.6800 2044.0000 1.0000
20.7000 2116.0000 1.0000
20.7200 2249.0000 1.0000
20.7400 2078.0000 1.0000
20.7600 1927.0000 1.0000
20.7800 1447.0000 1.0000
20.8000 1145.0000 1.0000
20.8200 852.0000 1.0000
20.8400 633.0000 1.0000
20.8600 501.0000 1.0000
20.8800 402.0000 1.0000
20.9000 361.0000 1.0000
20.9200 370.0000 1.0000
20.9400 332.0000 1.0000
20.9600 338.0000 1.0000
20.9800 320.0000 1.0000
21.0000 301.0000 1.0000
21.0200 335.0000 1.0000
21.0400 351.0000 1.0000
21.0600 345.0000 1.0000
21.0800 370.0000 1.0000
21.1000 399.0000 1.0000
21.1200 407.0000 1.0000
21.1400 426.0000 1.0000
21.1600 437.0000 1.0000
21.1800 512.0000 1.0000
21.2000 464.0000 1.0000
21.2200 478.0000 1.0000
21.2400 465.0000 1.0000
21.2600 422.0000 1.0000
21.2800 423.0000 1.0000
21.3000 392.0000 1.0000
21.3200 346.0000 1.0000
21.3400 298.0000 1.0000
21.3600 252.0000 1.0000
21.3800 267.0000 1.0000
21.4000 229.0000 1.0000
21.4200 224.0000 1.0000
21.4400 219.0000 1.0000
21.4600 224.0000 1.0000
21.4800 220.0000 1.0000
21.5000 221.0000 1.0000
21.5200 232.0000 1.0000
21.5400 238.0000 1.0000
21.5600 216.0000 1.0000
21.5800 213.0000 1.0000
21.6000 223.0000 1.0000
21.6200 253.0000 1.0000
21.6400 254.0000 1.0000
21.6600 247.0000 1.0000
21.6800 263.0000 1.0000
21.7000 261.0000 1.0000
21.7200 290.0000 1.0000
21.7400 333.0000 1.0000
21.7600 373.0000 1.0000
21.7800 396.0000 1.0000
21.8000 469.0000 1.0000
21.8200 477.0000 1.0000
21.8400 520.0000 1.0000
21.8600 543.0000 1.0000
21.8800 565.0000 1.0000
21.9000 552.0000 1.0000
21.9200 518.0000 1.0000
21.9400 448.0000 1.0000
21.9600 429.0000 1.0000
21.9800 356.0000 1.0000
22.0000 302.0000 1.0000
22.0200 268.0000 1.0000
22.0400 253.0000 1.0000
22.0600 210.0000 1.0000
22.0800 205.0000 1.0000
22.1000 196.0000 1.0000
22.1200 200.0000 1.0000
22.1400 197.0000 1.0000
22.1600 194.0000 1.0000
22.1800 215.0000 1.0000
22.2000 219.0000 1.0000
22.2200 197.0000 1.0000
22.2400 196.0000 1.0000
22.2600 181.0000 1.0000
22.2800 184.0000 1.0000
22.3000 189.0000 1.0000
22.3200 198.0000 1.0000
22.3400 193.0000 1.0000
22.3600 175.0000 1.0000
22.3800 180.0000 1.0000
22.4000 176.0000 1.0000
22.4200 189.0000 1.0000
22.4400 209.0000 1.0000
22.4600 204.0000 1.0000
22.4800 200.0000 1.0000
22.5000 220.0000 1.0000
22.5200 202.0000 1.0000
22.5400 209.0000 1.0000
22.5600 198.0000 1.0000
22.5800 193.0000 1.0000
22.6000 194.0000 1.0000
22.6200 223.0000 1.0000
22.6400 224.0000 1.0000
22.6600 217.0000 1.0000
22.6800 229.0000 1.0000
22.7000 236.0000 1.0000
22.7200 247.0000 1.0000
22.7400 249.0000 1.0000
22.7600 244.0000 1.0000
22.7800 256.0000 1.0000
22.8000 273.0000 1.0000
22.8200 267.0000 1.0000
22.8400 261.0000 1.0000
22.8600 316.0000 1.0000
22.8800 315.0000 1.0000
22.9000 283.0000 1.0000
22.9200 286.0000 1.0000
22.9400 264.0000 1.0000
22.9600 244.0000 1.0000
22.9800 250.0000 1.0000
23.0000 249.0000 1.0000
23.0200 239.0000 1.0000
23.0400 218.0000 1.0000
23.0600 190.0000 1.0000
23.0800 205.0000 1.0000
23.1000 233.0000 1.0000
23.1200 215.0000 1.0000
23.1400 227.0000 1.0000
23.1600 230.0000 1.0000
23.1800 241.0000 1.0000
23.2000 230.0000 1.0000
23.2200 246.0000 1.0000
23.2400 223.0000 1.0000
23.2600 284.0000 1.0000
23.2800 294.0000 1.0000
23.3000 306.0000 1.0000
23.3200 296.0000 1.0000
23.3400 345.0000 1.0000
23.3600 380.0000 1.0000
23.3800 413.0000 1.0000
23.4000 397.0000 1.0000
23.4200 415.0000 1.0000
23.4400 408.0000 1.0000
23.4600 402.0000 1.0000
23.4800 371.0000 1.0000
23.5000 361.0000 1.0000
23.5200 330.0000 1.0000
23.5400 305.0000 1.0000
23.5600 284.0000 1.0000
23.5800 298.0000 1.0000
23.6000 286.0000 1.0000
23.6200 271.0000 1.0000
23.6400 259.0000 1.0000
23.6600 278.0000 1.0000
23.6800 261.0000 1.0000
23.7000 268.0000 1.0000
23.7200 257.0000 1.0000
23.7400 253.0000 1.0000
23.7600 267.0000 1.0000
23.7800 285.0000 1.0000
23.8000 267.0000 1.0000
23.8200 268.0000 1.0000
23.8400 264.0000 1.0000
23.8600 282.0000 1.0000
23.8800 301.0000 1.0000
23.9000 340.0000 1.0000
23.9200 343.0000 1.0000
23.9400 357.0000 1.0000
23.9600 383.0000 1.0000
23.9800 439.0000 1.0000
24.0000 442.0000 1.0000
24.0200 523.0000 1.0000
24.0400 552.0000 1.0000
24.0600 568.0000 1.0000
24.0800 569.0000 1.0000
24.1000 594.0000 1.0000
24.1200 587.0000 1.0000
24.1400 565.0000 1.0000
24.1600 596.0000 1.0000
24.1800 570.0000 1.0000
24.2000 558.0000 1.0000
24.2200 498.0000 1.0000
24.2400 430.0000 1.0000
24.2600 390.0000 1.0000
24.2800 364.0000 1.0000
24.3000 336.0000 1.0000
24.3200 295.0000 1.0000
24.3400 288.0000 1.0000
24.3600 291.0000 1.0000
24.3800 293.0000 1.0000
24.4000 287.0000 1.0000
24.4200 274.0000 1.0000
24.4400 265.0000 1.0000
24.4600 239.0000 1.0000
24.4800 246.0000 1.0000
24.5000 246.0000 1.0000
24.5200 251.0000 1.0000
24.5400 269.0000 1.0000
24.5600 286.0000 1.0000
24.5800 251.0000 1.0000
24.6000 251.0000 1.0000
24.6200 266.0000 1.0000
24.6400 266.0000 1.0000
24.6600 271.0000 1.0000
24.6800 257.0000 1.0000
24.7000 273.0000 1.0000
24.7200 280.0000 1.0000
24.7400 288.0000 1.0000
24.7600 280.0000 1.0000
24.7800 303.0000 1.0000
24.8000 304.0000 1.0000
24.8200 301.0000 1.0000
24.8400 322.0000 1.0000
24.8600 332.0000 1.0000
24.8800 320.0000 1.0000
24.9000 340.0000 1.0000
24.9200 353.0000 1.0000
24.9400 370.0000 1.0000
24.9600 394.0000 1.0000
24.9800 409.0000 1.0000
25.0000 397.0000 1.0000
25.0200 407.0000 1.0000
25.0400 452.0000 1.0000
25.0600 455.0000 1.0000
25.0800 459.0000 1.0000
25.1000 469.0000 1.0000
25.1200 500.0000 1.0000
25.1400 548.0000 1.0000
25.1600 585.0000 1.0000
25.1800 632.0000 1.0000
25.2000 697.0000 1.0000
25.2200 726.0000 1.0000
25.2400 794.0000 1.0000
25.2600 836.0000 1.0000
25.2800 878.0000 1.0000
25.3000 925.0000 1.0000
25.3200 986.0000 1.0000
25.3400 1074.0000 1.0000
25.3600 1221.0000 1.0000
25.3800 1311.0000 1.0000
25.4000 1407.0000 1.0000
25.4200 1443.0000 1.0000
25.4400 1425.0000 1.0000
25.4600 1351.0000 1.0000
25.4800 1212.0000 1.0000
25.5000 1075.0000 1.0000
25.5200 894.0000 1.0000
25.5400 687.0000 1.0000
25.5600 567.0000 1.0000
25.5800 525.0000 1.0000
25.6000 454.0000 1.0000
25.6200 405.0000 1.0000
25.6400 389.0000 1.0000
25.6600 342.0000 1.0000
25.6800 336.0000 1.0000
25.7000 333.0000 1.0000
25.7200 338.0000 1.0000
25.7400 336.0000 1.0000
25.7600 332.0000 1.0000
25.7800 316.0000 1.0000
25.8000 319.0000 1.0000
25.8200 352.0000 1.0000
25.8400 375.0000 1.0000
25.8600 361.0000 1.0000
25.8800 374.0000 1.0000
25.9000 385.0000 1.0000
25.9200 400.0000 1.0000
25.9400 423.0000 1.0000
25.9600 438.0000 1.0000
25.9800 454.0000 1.0000
26.0000 469.0000 1.0000
26.0200 497.0000 1.0000
26.0400 545.0000 1.0000
26.0600 577.0000 1.0000
26.0800 601.0000 1.0000
26.1000 644.0000 1.0000
26.1200 686.0000 1.0000
26.1400 747.0000 1.0000
26.1600 782.0000 1.0000
26.1800 828.0000 1.0000
26.2000 947.0000 1.0000
26.2200 1031.0000 1.0000
26.2400 1171.0000 1.0000
26.2600 1405.0000 1.0000
26.2800 1634.0000 1.0000
26.3000 1925.0000 1.0000
26.3200 2363.0000 1.0000
26.3400 2893.0000 1.0000
26.3600 3551.0000 1.0000
26.3800 4493.0000 1.0000
26.4000 5608.0000 1.0000
26.4200 6824.0000 1.0000
26.4400 8302.0000 1.0000
26.4600 9555.0000 1.0000
26.4800 10309.0000 1.0000
26.5000 10422.0000 1.0000
26.5200 9938.0000 1.0000
26.5400 8898.0000 1.0000
26.5600 7420.0000 1.0000
26.5800 5869.0000 1.0000
26.6000 4509.0000 1.0000
26.6200 3289.0000 1.0000
26.6400 2337.0000 1.0000
26.6600 1711.0000 1.0000
26.6800 1323.0000 1.0000
26.7000 1166.0000 1.0000
26.7200 1074.0000 1.0000
26.7400 936.0000 1.0000
26.7600 832.0000 1.0000
26.7800 802.0000 1.0000
26.8000 768.0000 1.0000
26.8200 729.0000 1.0000
26.8400 699.0000 1.0000
26.8600 656.0000 1.0000
26.8800 623.0000 1.0000
26.9000 583.0000 1.0000
26.9200 539.0000 1.0000
26.9400 508.0000 1.0000
26.9600 499.0000 1.0000
26.9800 501.0000 1.0000
27.0000 473.0000 1.0000
27.0200 459.0000 1.0000
27.0400 470.0000 1.0000
27.0600 474.0000 1.0000
27.0800 475.0000 1.0000
27.1000 471.0000 1.0000
27.1200 460.0000 1.0000
27.1400 472.0000 1.0000
27.1600 473.0000 1.0000
27.1800 444.0000 1.0000
27.2000 422.0000 1.0000
27.2200 429.0000 1.0000
27.2400 379.0000 1.0000
27.2600 349.0000 1.0000
27.2800 387.0000 1.0000
27.3000 406.0000 1.0000
27.3200 419.0000 1.0000
27.3400 406.0000 1.0000
27.3600 423.0000 1.0000
27.3800 448.0000 1.0000
27.4000 456.0000 1.0000
27.4200 456.0000 1.0000
27.4400 487.0000 1.0000
27.4600 527.0000 1.0000
27.4800 521.0000 1.0000
27.5000 561.0000 1.0000
27.5200 625.0000 1.0000
27.5400 643.0000 1.0000
27.5600 681.0000 1.0000
27.5800 724.0000 1.0000
27.6000 773.0000 1.0000
27.6200 837.0000 1.0000
27.6400 838.0000 1.0000
27.6600 830.0000 1.0000
27.6800 873.0000 1.0000
27.7000 931.0000 1.0000
27.7200 1007.0000 1.0000
27.7400 1125.0000 1.0000
27.7600 1221.0000 1.0000
27.7800 1288.0000 1.0000
27.8000 1271.0000 1.0000
27.8200 1215.0000 1.0000
27.8400 1180.0000 1.0000
27.8600 1102.0000 1.0000
27.8800 979.0000 1.0000
27.9000 844.0000 1.0000
27.9200 749.0000 1.0000
27.9400 670.0000 1.0000
27.9600 594.0000 1.0000
27.9800 560.0000 1.0000
28.0000 576.0000 1.0000
28.0200 563.0000 1.0000
28.0400 526.0000 1.0000
28.0600 536.0000 1.0000
28.0800 546.0000 1.0000
28.1000 516.0000 1.0000
28.1200 499.0000 1.0000
28.1400 486.0000 1.0000
28.1600 443.0000 1.0000
28.1800 401.0000 1.0000
28.2000 377.0000 1.0000
28.2200 345.0000 1.0000
28.2400 315.0000 1.0000
28.2600 288.0000 1.0000
28.2800 270.0000 1.0000
28.3000 269.0000 1.0000
28.3200 265.0000 1.0000
28.3400 267.0000 1.0000
28.3600 258.0000 1.0000
28.3800 251.0000 1.0000
28.4000 238.0000 1.0000
28.4200 232.0000 1.0000
28.4400 235.0000 1.0000
28.4600 236.0000 1.0000
28.4800 235.0000 1.0000
28.5000 230.0000 1.0000
28.5200 209.0000 1.0000
28.5400 215.0000 1.0000
28.5600 217.0000 1.0000
28.5800 213.0000 1.0000
28.6000 230.0000 1.0000
28.6200 221.0000 1.0000
28.6400 209.0000 1.0000
28.6600 216.0000 1.0000
28.6800 243.0000 1.0000
28.7000 228.0000 1.0000
28.7200 240.0000 1.0000
28.7400 245.0000 1.0000
28.7600 229.0000 1.0000
28.7800 244.0000 1.0000
28.8000 247.0000 1.0000
28.8200 244.0000 1.0000
28.8400 237.0000 1.0000
28.8600 225.0000 1.0000
28.8800 217.0000 1.0000
28.9000 200.0000 1.0000
28.9200 203.0000 1.0000
28.9400 211.0000 1.0000
28.9600 235.0000 1.0000
28.9800 237.0000 1.0000
29.0000 240.0000 1.0000
29.0200 234.0000 1.0000
29.0400 236.0000 1.0000
29.0600 230.0000 1.0000
29.0800 242.0000 1.0000
29.1000 241.0000 1.0000
29.1200 233.0000 1.0000
29.1400 237.0000 1.0000
29.1600 244.0000 1.0000
29.1800 256.0000 1.0000
29.2000 301.0000 1.0000
29.2200 295.0000 1.0000
29.2400 295.0000 1.0000
29.2600 317.0000 1.0000
29.2800 318.0000 1.0000
29.3000 309.0000 1.0000
29.3200 314.0000 1.0000
29.3400 323.0000 1.0000
29.3600 293.0000 1.0000
29.3800 281.0000 1.0000
29.4000 271.0000 1.0000
29.4200 253.0000 1.0000
29.4400 251.0000 1.0000
29.4600 243.0000 1.0000
29.4800 236.0000 1.0000
29.5000 233.0000 1.0000
29.5200 234.0000 1.0000
29.5400 252.0000 1.0000
29.5600 265.0000 1.0000
29.5800 272.0000 1.0000
29.6000 281.0000 1.0000
29.6200 286.0000 1.0000
29.6400 281.0000 1.0000
29.6600 293.0000 1.0000
29.6800 305.0000 1.0000
29.7000 311.0000 1.0000
29.7200 301.0000 1.0000
29.7400 329.0000 1.0000
29.7600 357.0000 1.0000
29.7800 380.0000 1.0000
29.8000 380.0000 1.0000
29.8200 355.0000 1.0000
29.8400 377.0000 1.0000
29.8600 355.0000 1.0000
29.8800 346.0000 1.0000
29.9000 341.0000 1.0000
29.9200 343.0000 1.0000
29.9400 334.0000 1.0000
29.9600 304.0000 1.0000
29.9800 306.0000 1.0000
30.0000 323.0000 1.0000
30.0200 309.0000 1.0000
30.0400 308.0000 1.0000
30.0600 286.0000 1.0000
30.0800 319.0000 1.0000
30.1000 336.0000 1.0000
30.1200 296.0000 1.0000
30.1400 282.0000 1.0000
30.1600 302.0000 1.0000
30.1800 334.0000 1.0000
30.2000 304.0000 1.0000
30.2200 307.0000 1.0000
30.2400 332.0000 1.0000
30.2600 316.0000 1.0000
30.2800 311.0000 1.0000
30.3000 345.0000 1.0000
30.3200 328.0000 1.0000
30.3400 347.0000 1.0000
30.3600 332.0000 1.0000
30.3800 348.0000 1.0000
30.4000 315.0000 1.0000
30.4200 290.0000 1.0000
30.4400 264.0000 1.0000
30.4600 263.0000 1.0000
30.4800 250.0000 1.0000
30.5000 228.0000 1.0000
30.5200 223.0000 1.0000
30.5400 235.0000 1.0000
30.5600 209.0000 1.0000
30.5800 230.0000 1.0000
30.6000 215.0000 1.0000
30.6200 239.0000 1.0000
30.6400 228.0000 1.0000
30.6600 206.0000 1.0000
30.6800 238.0000 1.0000
30.7000 245.0000 1.0000
30.7200 216.0000 1.0000
30.7400 248.0000 1.0000
30.7600 262.0000 1.0000
30.7800 250.0000 1.0000
30.8000 238.0000 1.0000
30.8200 234.0000 1.0000
30.8400 242.0000 1.0000
30.8600 264.0000 1.0000
30.8800 244.0000 1.0000
30.9000 236.0000 1.0000
30.9200 277.0000 1.0000
30.9400 304.0000 1.0000
30.9600 277.0000 1.0000
30.9800 271.0000 1.0000
31.0000 284.0000 1.0000
31.0200 291.0000 1.0000
31.0400 296.0000 1.0000
31.0600 299.0000 1.0000
31.0800 266.0000 1.0000
31.1000 261.0000 1.0000
31.1200 280.0000 1.0000
31.1400 270.0000 1.0000
31.1600 279.0000 1.0000
31.1800 266.0000 1.0000
31.2000 260.0000 1.0000
31.2200 251.0000 1.0000
31.2400 249.0000 1.0000
31.2600 258.0000 1.0000
31.2800 255.0000 1.0000
31.3000 238.0000 1.0000
31.3200 232.0000 1.0000
31.3400 241.0000 1.0000
31.3600 241.0000 1.0000
31.3800 244.0000 1.0000
31.4000 216.0000 1.0000
31.4200 206.0000 1.0000
31.4400 219.0000 1.0000
31.4600 201.0000 1.0000
31.4800 195.0000 1.0000
31.5000 192.0000 1.0000
31.5200 196.0000 1.0000
31.5400 197.0000 1.0000
31.5600 199.0000 1.0000
31.5800 189.0000 1.0000
31.6000 166.0000 1.0000
31.6200 176.0000 1.0000
31.6400 179.0000 1.0000
31.6600 175.0000 1.0000
31.6800 159.0000 1.0000
31.7000 175.0000 1.0000
31.7200 190.0000 1.0000
31.7400 203.0000 1.0000
31.7600 206.0000 1.0000
31.7800 199.0000 1.0000
31.8000 196.0000 1.0000
31.8200 204.0000 1.0000
31.8400 226.0000 1.0000
31.8600 212.0000 1.0000
31.8800 200.0000 1.0000
31.9000 233.0000 1.0000
31.9200 225.0000 1.0000
31.9400 219.0000 1.0000
31.9600 213.0000 1.0000
31.9800 212.0000 1.0000
32.0000 198.0000 1.0000
32.0200 187.0000 1.0000
32.0400 181.0000 1.0000
32.0600 161.0000 1.0000
32.0800 139.0000 1.0000
32.1000 148.0000 1.0000
32.1200 168.0000 1.0000
32.1400 160.0000 1.0000
32.1600 155.0000 1.0000
32.1800 149.0000 1.0000
32.2000 162.0000 1.0000
32.2200 152.0000 1.0000
32.2400 139.0000 1.0000
32.2600 134.0000 1.0000
32.2800 124.0000 1.0000
32.3000 129.0000 1.0000
32.3200 120.0000 1.0000
32.3400 136.0000 1.0000
32.3600 136.0000 1.0000
32.3800 131.0000 1.0000
32.4000 128.0000 1.0000
32.4200 121.0000 1.0000
32.4400 113.0000 1.0000
32.4600 121.0000 1.0000
32.4800 114.0000 1.0000
32.5000 127.0000 1.0000
32.5200 150.0000 1.0000
32.5400 119.0000 1.0000
32.5600 126.0000 1.0000
32.5800 141.0000 1.0000
32.6000 134.0000 1.0000
32.6200 123.0000 1.0000
32.6400 125.0000 1.0000
32.6600 129.0000 1.0000
32.6800 138.0000 1.0000
32.7000 141.0000 1.0000
32.7200 139.0000 1.0000
32.7400 127.0000 1.0000
32.7600 127.0000 1.0000
32.7800 136.0000 1.0000
32.8000 121.0000 1.0000
32.8200 141.0000 1.0000
32.8400 125.0000 1.0000
32.8600 136.0000 1.0000
32.8800 124.0000 1.0000
32.9000 121.0000 1.0000
32.9200 126.0000 1.0000
32.9400 128.0000 1.0000
32.9600 138.0000 1.0000
32.9800 150.0000 1.0000
33.0000 123.0000 1.0000
33.0200 127.0000 1.0000
33.0400 127.0000 1.0000
33.0600 140.0000 1.0000
33.0800 139.0000 1.0000
33.1000 139.0000 1.0000
33.1200 125.0000 1.0000
33.1400 126.0000 1.0000
33.1600 144.0000 1.0000
33.1800 153.0000 1.0000
33.2000 156.0000 1.0000
33.2200 147.0000 1.0000
33.2400 163.0000 1.0000
33.2600 143.0000 1.0000
33.2800 152.0000 1.0000
33.3000 168.0000 1.0000
33.3200 146.0000 1.0000
33.3400 156.0000 1.0000
33.3600 158.0000 1.0000
33.3800 169.0000 1.0000
33.4000 189.0000 1.0000
33.4200 173.0000 1.0000
33.4400 160.0000 1.0000
33.4600 178.0000 1.0000
33.4800 171.0000 1.0000
33.5000 168.0000 1.0000
33.5200 170.0000 1.0000
33.5400 191.0000 1.0000
33.5600 200.0000 1.0000
33.5800 188.0000 1.0000
33.6000 168.0000 1.0000
33.6200 161.0000 1.0000
33.6400 180.0000 1.0000
33.6600 184.0000 1.0000
33.6800 201.0000 1.0000
33.7000 184.0000 1.0000
33.7200 194.0000 1.0000
33.7400 214.0000 1.0000
33.7600 204.0000 1.0000
33.7800 194.0000 1.0000
33.8000 208.0000 1.0000
33.8200 246.0000 1.0000
33.8400 195.0000 1.0000
33.8600 225.0000 1.0000
33.8800 178.0000 1.0000
33.9000 209.0000 1.0000
33.9200 203.0000 1.0000
33.9400 194.0000 1.0000
33.9600 192.0000 1.0000
33.9800 164.0000 1.0000
34.0000 184.0000 1.0000
34.0200 192.0000 1.0000
34.0400 196.0000 1.0000
34.0600 216.0000 1.0000
34.0800 203.0000 1.0000
34.1000 202.0000 1.0000
34.1200 196.0000 1.0000
34.1400 220.0000 1.0000
34.1600 223.0000 1.0000
34.1800 258.0000 1.0000
34.2000 241.0000 1.0000
34.2200 270.0000 1.0000
34.2400 295.0000 1.0000
34.2600 311.0000 1.0000
34.2800 340.0000 1.0000
34.3000 324.0000 1.0000
34.3200 376.0000 1.0000
34.3400 391.0000 1.0000
34.3600 434.0000 1.0000
34.3800 422.0000 1.0000
34.4000 441.0000 1.0000
34.4200 447.0000 1.0000
34.4400 527.0000 1.0000
34.4600 454.0000 1.0000
34.4800 514.0000 1.0000
34.5000 550.0000 1.0000
34.5200 570.0000 1.0000
34.5400 581.0000 1.0000
34.5600 575.0000 1.0000
34.5800 597.0000 1.0000
34.6000 609.0000 1.0000
34.6200 626.0000 1.0000
34.6400 632.0000 1.0000
34.6600 662.0000 1.0000
34.6800 652.0000 1.0000
34.7000 657.0000 1.0000
34.7200 700.0000 1.0000
34.7400 706.0000 1.0000
34.7600 741.0000 1.0000
34.7800 769.0000 1.0000
34.8000 822.0000 1.0000
34.8200 796.0000 1.0000
34.8400 895.0000 1.0000
34.8600 894.0000 1.0000
34.8800 1089.0000 1.0000
34.9000 1127.0000 1.0000
34.9200 1337.0000 1.0000
34.9400 1510.0000 1.0000
34.9600 1642.0000 1.0000
34.9800 1867.0000 1.0000
35.0000 1978.0000 1.0000
35.0200 1944.0000 1.0000
35.0400 1989.0000 1.0000
35.0600 1852.0000 1.0000
35.0800 1543.0000 1.0000
35.1000 1345.0000 1.0000
35.1200 1104.0000 1.0000
35.1400 848.0000 1.0000
35.1600 714.0000 1.0000
35.1800 595.0000 1.0000
35.2000 497.0000 1.0000
35.2200 406.0000 1.0000
35.2400 374.0000 1.0000
35.2600 375.0000 1.0000
35.2800 347.0000 1.0000
35.3000 331.0000 1.0000
35.3200 284.0000 1.0000
35.3400 299.0000 1.0000
35.3600 304.0000 1.0000
35.3800 279.0000 1.0000
35.4000 264.0000 1.0000
35.4200 263.0000 1.0000
35.4400 258.0000 1.0000
35.4600 258.0000 1.0000
35.4800 272.0000 1.0000
35.5000 269.0000 1.0000
35.5200 270.0000 1.0000
35.5400 234.0000 1.0000
35.5600 249.0000 1.0000
35.5800 250.0000 1.0000
35.6000 264.0000 1.0000
35.6200 243.0000 1.0000
35.6400 223.0000 1.0000
35.6600 244.0000 1.0000
35.6800 213.0000 1.0000
35.7000 239.0000 1.0000
35.7200 229.0000 1.0000
35.7400 230.0000 1.0000
35.7600 235.0000 1.0000
35.7800 217.0000 1.0000
35.8000 230.0000 1.0000
35.8200 224.0000 1.0000
35.8400 222.0000 1.0000
35.8600 204.0000 1.0000
35.8800 216.0000 1.0000
35.9000 222.0000 1.0000
35.9200 220.0000 1.0000
35.9400 252.0000 1.0000
35.9600 220.0000 1.0000
35.9800 211.0000 1.0000
36.0000 252.0000 1.0000
36.0200 254.0000 1.0000
36.0400 220.0000 1.0000
36.0600 230.0000 1.0000
36.0800 249.0000 1.0000
36.1000 279.0000 1.0000
36.1200 260.0000 1.0000
36.1400 288.0000 1.0000
36.1600 287.0000 1.0000
36.1800 328.0000 1.0000
36.2000 312.0000 1.0000
36.2200 373.0000 1.0000
36.2400 395.0000 1.0000
36.2600 418.0000 1.0000
36.2800 483.0000 1.0000
36.3000 575.0000 1.0000
36.3200 631.0000 1.0000
36.3400 769.0000 1.0000
36.3600 861.0000 1.0000
36.3800 900.0000 1.0000
36.4000 954.0000 1.0000
36.4200 972.0000 1.0000
36.4400 943.0000 1.0000
36.4600 876.0000 1.0000
36.4800 776.0000 1.0000
36.5000 733.0000 1.0000
36.5200 662.0000 1.0000
36.5400 603.0000 1.0000
36.5600 534.0000 1.0000
36.5800 499.0000 1.0000
36.6000 447.0000 1.0000
36.6200 403.0000 1.0000
36.6400 411.0000 1.0000
36.6600 376.0000 1.0000
36.6800 400.0000 1.0000
36.7000 382.0000 1.0000
36.7200 365.0000 1.0000
36.7400 397.0000 1.0000
36.7600 382.0000 1.0000
36.7800 373.0000 1.0000
36.8000 358.0000 1.0000
36.8200 324.0000 1.0000
36.8400 327.0000 1.0000
36.8600 306.0000 1.0000
36.8800 281.0000 1.0000
36.9000 279.0000 1.0000
36.9200 287.0000 1.0000
36.9400 274.0000 1.0000
36.9600 270.0000 1.0000
36.9800 264.0000 1.0000
37.0000 263.0000 1.0000
37.0200 254.0000 1.0000
37.0400 277.0000 1.0000
37.0600 292.0000 1.0000
37.0800 259.0000 1.0000
37.1000 258.0000 1.0000
37.1200 269.0000 1.0000
37.1400 260.0000 1.0000
37.1600 290.0000 1.0000
37.1800 288.0000 1.0000
37.2000 303.0000 1.0000
37.2200 312.0000 1.0000
37.2400 315.0000 1.0000
37.2600 305.0000 1.0000
37.2800 315.0000 1.0000
37.3000 316.0000 1.0000
37.3200 295.0000 1.0000
37.3400 312.0000 1.0000
37.3600 330.0000 1.0000
37.3800 329.0000 1.0000
37.4000 340.0000 1.0000
37.4200 365.0000 1.0000
37.4400 375.0000 1.0000
37.4600 392.0000 1.0000
37.4800 408.0000 1.0000
37.5000 460.0000 1.0000
37.5200 521.0000 1.0000
37.5400 591.0000 1.0000
37.5600 658.0000 1.0000
37.5800 771.0000 1.0000
37.6000 822.0000 1.0000
37.6200 838.0000 1.0000
37.6400 875.0000 1.0000
37.6600 898.0000 1.0000
37.6800 818.0000 1.0000
37.7000 776.0000 1.0000
37.7200 673.0000 1.0000
37.7400 577.0000 1.0000
37.7600 502.0000 1.0000
37.7800 438.0000 1.0000
37.8000 375.0000 1.0000
37.8200 326.0000 1.0000
37.8400 294.0000 1.0000
37.8600 272.0000 1.0000
37.8800 239.0000 1.0000
37.9000 243.0000 1.0000
37.9200 263.0000 1.0000
37.9400 244.0000 1.0000
37.9600 225.0000 1.0000
37.9800 206.0000 1.0000
38.0000 204.0000 1.0000
38.0200 190.0000 1.0000
38.0400 199.0000 1.0000
38.0600 186.0000 1.0000
38.0800 202.0000 1.0000
38.1000 182.0000 1.0000
38.1200 183.0000 1.0000
38.1400 185.0000 1.0000
38.1600 164.0000 1.0000
38.1800 179.0000 1.0000
38.2000 171.0000 1.0000
38.2200 152.0000 1.0000
38.2400 147.0000 1.0000
38.2600 135.0000 1.0000
38.2800 146.0000 1.0000
38.3000 141.0000 1.0000
38.3200 140.0000 1.0000
38.3400 146.0000 1.0000
38.3600 147.0000 1.0000
38.3800 140.0000 1.0000
38.4000 147.0000 1.0000
38.4200 142.0000 1.0000
38.4400 134.0000 1.0000
38.4600 131.0000 1.0000
38.4800 132.0000 1.0000
38.5000 134.0000 1.0000
38.5200 146.0000 1.0000
38.5400 122.0000 1.0000
38.5600 122.0000 1.0000
38.5800 144.0000 1.0000
38.6000 151.0000 1.0000
38.6200 162.0000 1.0000
38.6400 152.0000 1.0000
38.6600 155.0000 1.0000
38.6800 151.0000 1.0000
38.7000 164.0000 1.0000
38.7200 159.0000 1.0000
38.7400 171.0000 1.0000
38.7600 172.0000 1.0000
38.7800 151.0000 1.0000
38.8000 148.0000 1.0000
38.8200 163.0000 1.0000
38.8400 157.0000 1.0000
38.8600 152.0000 1.0000
38.8800 154.0000 1.0000
38.9000 156.0000 1.0000
38.9200 138.0000 1.0000
38.9400 146.0000 1.0000
38.9600 148.0000 1.0000
38.9800 159.0000 1.0000
39.0000 146.0000 1.0000
39.0200 145.0000 1.0000
39.0400 164.0000 1.0000
39.0600 168.0000 1.0000
39.0800 169.0000 1.0000
39.1000 181.0000 1.0000
39.1200 192.0000 1.0000
39.1400 215.0000 1.0000
39.1600 237.0000 1.0000
39.1800 247.0000 1.0000
39.2000 285.0000 1.0000
39.2200 336.0000 1.0000
39.2400 429.0000 1.0000
39.2600 533.0000 1.0000
39.2800 613.0000 1.0000
39.3000 685.0000 1.0000
39.3200 746.0000 1.0000
39.3400 738.0000 1.0000
39.3600 700.0000 1.0000
39.3800 676.0000 1.0000
39.4000 623.0000 1.0000
39.4200 579.0000 1.0000
39.4400 511.0000 1.0000
39.4600 430.0000 1.0000
39.4800 371.0000 1.0000
39.5000 322.0000 1.0000
39.5200 306.0000 1.0000
39.5400 266.0000 1.0000
39.5600 248.0000 1.0000
39.5800 238.0000 1.0000
39.6000 225.0000 1.0000
39.6200 202.0000 1.0000
39.6400 191.0000 1.0000
39.6600 185.0000 1.0000
39.6800 187.0000 1.0000
39.7000 196.0000 1.0000
39.7200 200.0000 1.0000
39.7400 202.0000 1.0000
39.7600 204.0000 1.0000
39.7800 187.0000 1.0000
39.8000 187.0000 1.0000
39.8200 195.0000 1.0000
39.8400 188.0000 1.0000
39.8600 184.0000 1.0000
39.8800 195.0000 1.0000
39.9000 198.0000 1.0000
39.9200 205.0000 1.0000
39.9400 235.0000 1.0000
39.9600 237.0000 1.0000
39.9800 221.0000 1.0000
40.0000 239.0000 1.0000
40.0200 286.0000 1.0000
40.0400 319.0000 1.0000
40.0600 336.0000 1.0000
40.0800 365.0000 1.0000
40.1000 416.0000 1.0000
40.1200 447.0000 1.0000
40.1400 466.0000 1.0000
40.1600 472.0000 1.0000
40.1800 460.0000 1.0000
40.2000 430.0000 1.0000
40.2200 392.0000 1.0000
40.2400 351.0000 1.0000
40.2600 321.0000 1.0000
40.2800 307.0000 1.0000
40.3000 287.0000 1.0000
40.3200 246.0000 1.0000
40.3400 222.0000 1.0000
40.3600 212.0000 1.0000
40.3800 196.0000 1.0000
40.4000 190.0000 1.0000
40.4200 193.0000 1.0000
40.4400 187.0000 1.0000
40.4600 178.0000 1.0000
40.4800 187.0000 1.0000
40.5000 197.0000 1.0000
40.5200 207.0000 1.0000
40.5400 198.0000 1.0000
40.5600 191.0000 1.0000
40.5800 203.0000 1.0000
40.6000 198.0000 1.0000
40.6200 191.0000 1.0000
40.6400 189.0000 1.0000
40.6600 195.0000 1.0000
40.6800 201.0000 1.0000
40.7000 190.0000 1.0000
40.7200 178.0000 1.0000
40.7400 176.0000 1.0000
40.7600 176.0000 1.0000
40.7800 186.0000 1.0000
40.8000 198.0000 1.0000
40.8200 182.0000 1.0000
40.8400 168.0000 1.0000
40.8600 163.0000 1.0000
40.8800 167.0000 1.0000
40.9000 172.0000 1.0000
40.9200 173.0000 1.0000
40.9400 190.0000 1.0000
40.9600 186.0000 1.0000
40.9800 169.0000 1.0000
41.0000 165.0000 1.0000
41.0200 178.0000 1.0000
41.0400 193.0000 1.0000
41.0600 191.0000 1.0000
41.0800 188.0000 1.0000
41.1000 194.0000 1.0000
41.1200 192.0000 1.0000
41.1400 176.0000 1.0000
41.1600 179.0000 1.0000
41.1800 185.0000 1.0000
41.2000 192.0000 1.0000
41.2200 210.0000 1.0000
41.2400 200.0000 1.0000
41.2600 185.0000 1.0000
41.2800 178.0000 1.0000
41.3000 174.0000 1.0000
41.3200 179.0000 1.0000
41.3400 180.0000 1.0000
41.3600 185.0000 1.0000
41.3800 183.0000 1.0000
41.4000 167.0000 1.0000
41.4200 169.0000 1.0000
41.4400 171.0000 1.0000
41.4600 180.0000 1.0000
41.4800 192.0000 1.0000
41.5000 190.0000 1.0000
41.5200 187.0000 1.0000
41.5400 190.0000 1.0000
41.5600 205.0000 1.0000
41.5800 202.0000 1.0000
41.6000 210.0000 1.0000
41.6200 193.0000 1.0000
41.6400 185.0000 1.0000
41.6600 194.0000 1.0000
41.6800 194.0000 1.0000
41.7000 209.0000 1.0000
41.7200 218.0000 1.0000
41.7400 210.0000 1.0000
41.7600 221.0000 1.0000
41.7800 222.0000 1.0000
41.8000 234.0000 1.0000
41.8200 241.0000 1.0000
41.8400 236.0000 1.0000
41.8600 221.0000 1.0000
41.8800 242.0000 1.0000
41.9000 253.0000 1.0000
41.9200 237.0000 1.0000
41.9400 259.0000 1.0000
41.9600 274.0000 1.0000
41.9800 252.0000 1.0000
42.0000 244.0000 1.0000
42.0200 228.0000 1.0000
42.0400 235.0000 1.0000
42.0600 246.0000 1.0000
42.0800 273.0000 1.0000
42.1000 275.0000 1.0000
42.1200 295.0000 1.0000
42.1400 307.0000 1.0000
42.1600 321.0000 1.0000
42.1800 348.0000 1.0000
42.2000 402.0000 1.0000
42.2200 454.0000 1.0000
42.2400 514.0000 1.0000
42.2600 552.0000 1.0000
42.2800 602.0000 1.0000
42.3000 664.0000 1.0000
42.3200 668.0000 1.0000
42.3400 657.0000 1.0000
42.3600 655.0000 1.0000
42.3800 617.0000 1.0000
42.4000 534.0000 1.0000
42.4200 496.0000 1.0000
42.4400 443.0000 1.0000
42.4600 391.0000 1.0000
42.4800 334.0000 1.0000
42.5000 307.0000 1.0000
42.5200 252.0000 1.0000
42.5400 252.0000 1.0000
42.5600 246.0000 1.0000
42.5800 233.0000 1.0000
42.6000 223.0000 1.0000
42.6200 225.0000 1.0000
42.6400 227.0000 1.0000
42.6600 220.0000 1.0000
42.6800 214.0000 1.0000
42.7000 208.0000 1.0000
42.7200 225.0000 1.0000
42.7400 200.0000 1.0000
42.7600 186.0000 1.0000
42.7800 205.0000 1.0000
42.8000 206.0000 1.0000
42.8200 225.0000 1.0000
42.8400 225.0000 1.0000
42.8600 204.0000 1.0000
42.8800 218.0000 1.0000
42.9000 206.0000 1.0000
42.9200 241.0000 1.0000
42.9400 259.0000 1.0000
42.9600 273.0000 1.0000
42.9800 288.0000 1.0000
43.0000 307.0000 1.0000
43.0200 335.0000 1.0000
43.0400 400.0000 1.0000
43.0600 475.0000 1.0000
43.0800 572.0000 1.0000
43.1000 680.0000 1.0000
43.1200 867.0000 1.0000
43.1400 1064.0000 1.0000
43.1600 1297.0000 1.0000
43.1800 1566.0000 1.0000
43.2000 1712.0000 1.0000
43.2200 1786.0000 1.0000
43.2400 1734.0000 1.0000
43.2600 1632.0000 1.0000
43.2800 1581.0000 1.0000
43.3000 1389.0000 1.0000
43.3200 1215.0000 1.0000
43.3400 1048.0000 1.0000
43.3600 957.0000 1.0000
43.3800 777.0000 1.0000
43.4000 645.0000 1.0000
43.4200 494.0000 1.0000
43.4400 352.0000 1.0000
43.4600 300.0000 1.0000
43.4800 269.0000 1.0000
43.5000 256.0000 1.0000
43.5200 212.0000 1.0000
43.5400 226.0000 1.0000
43.5600 214.0000 1.0000
43.5800 205.0000 1.0000
43.6000 196.0000 1.0000
43.6200 198.0000 1.0000
43.6400 184.0000 1.0000
43.6600 161.0000 1.0000
43.6800 177.0000 1.0000
43.7000 173.0000 1.0000
43.7200 187.0000 1.0000
43.7400 156.0000 1.0000
43.7600 157.0000 1.0000
43.7800 177.0000 1.0000
43.8000 168.0000 1.0000
43.8200 166.0000 1.0000
43.8400 139.0000 1.0000
43.8600 166.0000 1.0000
43.8800 173.0000 1.0000
43.9000 177.0000 1.0000
43.9200 181.0000 1.0000
43.9400 146.0000 1.0000
43.9600 171.0000 1.0000
43.9800 181.0000 1.0000
44.0000 164.0000 1.0000
44.0200 161.0000 1.0000
44.0400 146.0000 1.0000
44.0600 157.0000 1.0000
44.0800 155.0000 1.0000
44.1000 132.0000 1.0000
44.1200 152.0000 1.0000
44.1400 145.0000 1.0000
44.1600 134.0000 1.0000
44.1800 144.0000 1.0000
44.2000 160.0000 1.0000
44.2200 149.0000 1.0000
44.2400 157.0000 1.0000
44.2600 161.0000 1.0000
44.2800 153.0000 1.0000
44.3000 149.0000 1.0000
44.3200 144.0000 1.0000
44.3400 143.0000 1.0000
44.3600 162.0000 1.0000
44.3800 152.0000 1.0000
44.4000 139.0000 1.0000
44.4200 159.0000 1.0000
44.4400 146.0000 1.0000
44.4600 165.0000 1.0000
44.4800 164.0000 1.0000
44.5000 143.0000 1.0000
44.5200 152.0000 1.0000
44.5400 137.0000 1.0000
44.5600 146.0000 1.0000
44.5800 172.0000 1.0000
44.6000 144.0000 1.0000
44.6200 164.0000 1.0000
44.6400 178.0000 1.0000
44.6600 169.0000 1.0000
44.6800 145.0000 1.0000
44.7000 151.0000 1.0000
44.7200 152.0000 1.0000
44.7400 155.0000 1.0000
44.7600 149.0000 1.0000
44.7800 141.0000 1.0000
44.8000 166.0000 1.0000
44.8200 164.0000 1.0000
44.8400 153.0000 1.0000
44.8600 165.0000 1.0000
44.8800 179.0000 1.0000
44.9000 177.0000 1.0000
44.9200 156.0000 1.0000
44.9400 189.0000 1.0000
44.9600 166.0000 1.0000
44.9800 181.0000 1.0000
45.0000 217.0000 1.0000
45.0200 199.0000 1.0000
45.0400 204.0000 1.0000
45.0600 205.0000 1.0000
45.0800 212.0000 1.0000
45.1000 199.0000 1.0000
45.1200 216.0000 1.0000
45.1400 219.0000 1.0000
45.1600 239.0000 1.0000
45.1800 221.0000 1.0000
45.2000 261.0000 1.0000
45.2200 241.0000 1.0000
45.2400 251.0000 1.0000
45.2600 250.0000 1.0000
45.2800 259.0000 1.0000
45.3000 261.0000 1.0000
45.3200 268.0000 1.0000
45.3400 278.0000 1.0000
45.3600 276.0000 1.0000
45.3800 241.0000 1.0000
45.4000 232.0000 1.0000
45.4200 263.0000 1.0000
45.4400 261.0000 1.0000
45.4600 240.0000 1.0000
45.4800 216.0000 1.0000
45.5000 264.0000 1.0000
45.5200 268.0000 1.0000
45.5400 259.0000 1.0000
45.5600 328.0000 1.0000
45.5800 355.0000 1.0000
45.6000 424.0000 1.0000
45.6200 413.0000 1.0000
45.6400 451.0000 1.0000
45.6600 469.0000 1.0000
45.6800 446.0000 1.0000
45.7000 430.0000 1.0000
45.7200 404.0000 1.0000
45.7400 389.0000 1.0000
45.7600 325.0000 1.0000
45.7800 333.0000 1.0000
45.8000 321.0000 1.0000
45.8200 292.0000 1.0000
45.8400 238.0000 1.0000
45.8600 241.0000 1.0000
45.8800 219.0000 1.0000
45.9000 192.0000 1.0000
45.9200 202.0000 1.0000
45.9400 171.0000 1.0000
45.9600 196.0000 1.0000
45.9800 188.0000 1.0000
46.0000 189.0000 1.0000
46.0200 202.0000 1.0000
46.0400 178.0000 1.0000
46.0600 179.0000 1.0000
46.0800 189.0000 1.0000
46.1000 207.0000 1.0000
46.1200 192.0000 1.0000
46.1400 192.0000 1.0000
46.1600 180.0000 1.0000
46.1800 196.0000 1.0000
46.2000 188.0000 1.0000
46.2200 191.0000 1.0000
46.2400 174.0000 1.0000
46.2600 166.0000 1.0000
46.2800 162.0000 1.0000
46.3000 141.0000 1.0000
46.3200 151.0000 1.0000
46.3400 148.0000 1.0000
46.3600 154.0000 1.0000
46.3800 142.0000 1.0000
46.4000 136.0000 1.0000
46.4200 132.0000 1.0000
46.4400 121.0000 1.0000
46.4600 136.0000 1.0000
46.4800 118.0000 1.0000
46.5000 129.0000 1.0000
46.5200 126.0000 1.0000
46.5400 133.0000 1.0000
46.5600 133.0000 1.0000
46.5800 106.0000 1.0000
46.6000 127.0000 1.0000
46.6200 136.0000 1.0000
46.6400 133.0000 1.0000
46.6600 128.0000 1.0000
46.6800 119.0000 1.0000
46.7000 107.0000 1.0000
46.7200 124.0000 1.0000
46.7400 122.0000 1.0000
46.7600 141.0000 1.0000
46.7800 113.0000 1.0000
46.8000 110.0000 1.0000
46.8200 132.0000 1.0000
46.8400 124.0000 1.0000
46.8600 119.0000 1.0000
46.8800 119.0000 1.0000
46.9000 117.0000 1.0000
46.9200 114.0000 1.0000
46.9400 111.0000 1.0000
46.9600 101.0000 1.0000
46.9800 109.0000 1.0000
47.0000 109.0000 1.0000
47.0200 113.0000 1.0000
47.0400 106.0000 1.0000
47.0600 104.0000 1.0000
47.0800 95.0000 1.0000
47.1000 86.0000 1.0000
47.1200 88.0000 1.0000
47.1400 91.0000 1.0000
47.1600 95.0000 1.0000
47.1800 91.0000 1.0000
47.2000 91.0000 1.0000
47.2200 92.0000 1.0000
47.2400 109.0000 1.0000
47.2600 108.0000 1.0000
47.2800 95.0000 1.0000
47.3000 91.0000 1.0000
47.3200 90.0000 1.0000
47.3400 92.0000 1.0000
47.3600 99.0000 1.0000
47.3800 102.0000 1.0000
47.4000 106.0000 1.0000
47.4200 98.0000 1.0000
47.4400 106.0000 1.0000
47.4600 107.0000 1.0000
47.4800 107.0000 1.0000
47.5000 121.0000 1.0000
47.5200 109.0000 1.0000
47.5400 105.0000 1.0000
47.5600 115.0000 1.0000
47.5800 111.0000 1.0000
47.6000 103.0000 1.0000
47.6200 118.0000 1.0000
47.6400 124.0000 1.0000
47.6600 104.0000 1.0000
47.6800 118.0000 1.0000
47.7000 122.0000 1.0000
47.7200 129.0000 1.0000
47.7400 128.0000 1.0000
47.7600 133.0000 1.0000
47.7800 134.0000 1.0000
47.8000 130.0000 1.0000
47.8200 119.0000 1.0000
47.8400 118.0000 1.0000
47.8600 127.0000 1.0000
47.8800 127.0000 1.0000
47.9000 129.0000 1.0000
47.9200 117.0000 1.0000
47.9400 127.0000 1.0000
47.9600 132.0000 1.0000
47.9800 125.0000 1.0000
48.0000 129.0000 1.0000
48.0200 139.0000 1.0000
48.0400 138.0000 1.0000
48.0600 147.0000 1.0000
48.0800 159.0000 1.0000
48.1000 156.0000 1.0000
48.1200 151.0000 1.0000
48.1400 148.0000 1.0000
48.1600 154.0000 1.0000
48.1800 151.0000 1.0000
48.2000 132.0000 1.0000
48.2200 133.0000 1.0000
48.2400 136.0000 1.0000
48.2600 129.0000 1.0000
48.2800 135.0000 1.0000
48.3000 138.0000 1.0000
48.3200 125.0000 1.0000
48.3400 119.0000 1.0000
48.3600 115.0000 1.0000
48.3800 113.0000 1.0000
48.4000 120.0000 1.0000
48.4200 130.0000 1.0000
48.4400 122.0000 1.0000
48.4600 122.0000 1.0000
48.4800 128.0000 1.0000
48.5000 130.0000 1.0000
48.5200 115.0000 1.0000
48.5400 111.0000 1.0000
48.5600 118.0000 1.0000
48.5800 127.0000 1.0000
48.6000 131.0000 1.0000
48.6200 132.0000 1.0000
48.6400 139.0000 1.0000
48.6600 132.0000 1.0000
48.6800 128.0000 1.0000
48.7000 138.0000 1.0000
48.7200 132.0000 1.0000
48.7400 119.0000 1.0000
48.7600 120.0000 1.0000
48.7800 126.0000 1.0000
48.8000 134.0000 1.0000
48.8200 122.0000 1.0000
48.8400 124.0000 1.0000
48.8600 139.0000 1.0000
48.8800 130.0000 1.0000
48.9000 126.0000 1.0000
48.9200 121.0000 1.0000
48.9400 127.0000 1.0000
48.9600 137.0000 1.0000
48.9800 138.0000 1.0000
49.0000 134.0000 1.0000
49.0200 141.0000 1.0000
49.0400 156.0000 1.0000
49.0600 160.0000 1.0000
49.0800 168.0000 1.0000
49.1000 173.0000 1.0000
49.1200 187.0000 1.0000
49.1400 191.0000 1.0000
49.1600 181.0000 1.0000
49.1800 171.0000 1.0000
49.2000 164.0000 1.0000
49.2200 160.0000 1.0000
49.2400 151.0000 1.0000
49.2600 149.0000 1.0000
49.2800 156.0000 1.0000
49.3000 151.0000 1.0000
49.3200 144.0000 1.0000
49.3400 139.0000 1.0000
49.3600 148.0000 1.0000
49.3800 142.0000 1.0000
49.4000 150.0000 1.0000
49.4200 159.0000 1.0000
49.4400 149.0000 1.0000
49.4600 147.0000 1.0000
49.4800 154.0000 1.0000
49.5000 168.0000 1.0000
49.5200 172.0000 1.0000
49.5400 176.0000 1.0000
49.5600 184.0000 1.0000
49.5800 198.0000 1.0000
49.6000 201.0000 1.0000
49.6200 183.0000 1.0000
49.6400 188.0000 1.0000
49.6600 190.0000 1.0000
49.6800 213.0000 1.0000
49.7000 216.0000 1.0000
49.7200 238.0000 1.0000
49.7400 263.0000 1.0000
49.7600 253.0000 1.0000
49.7800 256.0000 1.0000
49.8000 313.0000 1.0000
49.8200 355.0000 1.0000
49.8400 386.0000 1.0000
49.8600 426.0000 1.0000
49.8800 519.0000 1.0000
49.9000 606.0000 1.0000
49.9200 709.0000 1.0000
49.9400 881.0000 1.0000
49.9600 995.0000 1.0000
49.9800 1098.0000 1.0000
50.0000 1176.0000 1.0000
50.0200 1170.0000 1.0000
50.0400 1111.0000 1.0000
50.0600 1053.0000 1.0000
50.0800 918.0000 1.0000
50.1000 870.0000 1.0000
50.1200 797.0000 1.0000
50.1400 760.0000 1.0000
50.1600 650.0000 1.0000
50.1800 560.0000 1.0000
50.2000 494.0000 1.0000
50.2200 402.0000 1.0000
50.2400 348.0000 1.0000
50.2600 279.0000 1.0000
50.2800 233.0000 1.0000
50.3000 204.0000 1.0000
50.3200 184.0000 1.0000
50.3400 191.0000 1.0000
50.3600 182.0000 1.0000
50.3800 201.0000 1.0000
50.4000 193.0000 1.0000
50.4200 202.0000 1.0000
50.4400 179.0000 1.0000
50.4600 188.0000 1.0000
50.4800 191.0000 1.0000
50.5000 191.0000 1.0000
50.5200 170.0000 1.0000
50.5400 169.0000 1.0000
50.5600 183.0000 1.0000
50.5800 181.0000 1.0000
50.6000 169.0000 1.0000
50.6200 167.0000 1.0000
50.6400 164.0000 1.0000
50.6600 143.0000 1.0000
50.6800 157.0000 1.0000
50.7000 149.0000 1.0000
50.7200 149.0000 1.0000
50.7400 120.0000 1.0000
50.7600 140.0000 1.0000
50.7800 135.0000 1.0000
50.8000 130.0000 1.0000
50.8200 134.0000 1.0000
50.8400 130.0000 1.0000
50.8600 126.0000 1.0000
50.8800 122.0000 1.0000
50.9000 134.0000 1.0000
50.9200 139.0000 1.0000
50.9400 126.0000 1.0000
50.9600 134.0000 1.0000
50.9800 140.0000 1.0000
51.0000 149.0000 1.0000
51.0200 156.0000 1.0000
51.0400 171.0000 1.0000
51.0600 173.0000 1.0000
51.0800 153.0000 1.0000
51.1000 162.0000 1.0000
51.1200 164.0000 1.0000
51.1400 147.0000 1.0000
51.1600 149.0000 1.0000
51.1800 135.0000 1.0000
51.2000 127.0000 1.0000
51.2200 120.0000 1.0000
51.2400 128.0000 1.0000
51.2600 124.0000 1.0000
51.2800 115.0000 1.0000
51.3000 115.0000 1.0000
51.3200 104.0000 1.0000
51.3400 126.0000 1.0000
51.3600 121.0000 1.0000
51.3800 113.0000 1.0000
51.4000 125.0000 1.0000
51.4200 108.0000 1.0000
51.4400 120.0000 1.0000
51.4600 90.0000 1.0000
51.4800 98.0000 1.0000
51.5000 127.0000 1.0000
51.5200 115.0000 1.0000
51.5400 122.0000 1.0000
51.5600 110.0000 1.0000
51.5800 117.0000 1.0000
51.6000 108.0000 1.0000
51.6200 109.0000 1.0000
51.6400 103.0000 1.0000
51.6600 99.0000 1.0000
51.6800 128.0000 1.0000
51.7000 110.0000 1.0000
51.7200 112.0000 1.0000
51.7400 111.0000 1.0000
51.7600 126.0000 1.0000
51.7800 117.0000 1.0000
51.8000 125.0000 1.0000
51.8200 130.0000 1.0000
51.8400 122.0000 1.0000
51.8600 129.0000 1.0000
51.8800 120.0000 1.0000
51.9000 125.0000 1.0000
51.9200 148.0000 1.0000
51.9400 140.0000 1.0000
51.9600 150.0000 1.0000
51.9800 133.0000 1.0000
52.0000 151.0000 1.0000
52.0200 133.0000 1.0000
52.0400 157.0000 1.0000
52.0600 163.0000 1.0000
52.0800 167.0000 1.0000
52.1000 169.0000 1.0000
52.1200 165.0000 1.0000
52.1400 174.0000 1.0000
52.1600 158.0000 1.0000
52.1800 185.0000 1.0000
52.2000 213.0000 1.0000
52.2200 214.0000 1.0000
52.2400 237.0000 1.0000
52.2600 249.0000 1.0000
52.2800 306.0000 1.0000
52.3000 300.0000 1.0000
52.3200 391.0000 1.0000
52.3400 455.0000 1.0000
52.3600 580.0000 1.0000
52.3800 654.0000 1.0000
52.4000 753.0000 1.0000
52.4200 833.0000 1.0000
52.4400 827.0000 1.0000
52.4600 783.0000 1.0000
52.4800 727.0000 1.0000
52.5000 675.0000 1.0000
52.5200 643.0000 1.0000
52.5400 568.0000 1.0000
52.5600 501.0000 1.0000
52.5800 539.0000 1.0000
52.6000 483.0000 1.0000
52.6200 428.0000 1.0000
52.6400 336.0000 1.0000
52.6600 280.0000 1.0000
52.6800 254.0000 1.0000
52.7000 224.0000 1.0000
52.7200 209.0000 1.0000
52.7400 184.0000 1.0000
52.7600 169.0000 1.0000
52.7800 167.0000 1.0000
52.8000 168.0000 1.0000
52.8200 160.0000 1.0000
52.8400 163.0000 1.0000
52.8600 157.0000 1.0000
52.8800 161.0000 1.0000
52.9000 172.0000 1.0000
52.9200 175.0000 1.0000
52.9400 169.0000 1.0000
52.9600 158.0000 1.0000
52.9800 162.0000 1.0000
53.0000 159.0000 1.0000
53.0200 170.0000 1.0000
53.0400 174.0000 1.0000
53.0600 187.0000 1.0000
53.0800 151.0000 1.0000
53.1000 170.0000 1.0000
53.1200 194.0000 1.0000
53.1400 168.0000 1.0000
53.1600 172.0000 1.0000
53.1800 167.0000 1.0000
53.2000 179.0000 1.0000
53.2200 157.0000 1.0000
53.2400 145.0000 1.0000
53.2600 167.0000 1.0000
53.2800 171.0000 1.0000
53.3000 152.0000 1.0000
53.3200 163.0000 1.0000
53.3400 160.0000 1.0000
53.3600 138.0000 1.0000
53.3800 143.0000 1.0000
53.4000 153.0000 1.0000
53.4200 165.0000 1.0000
53.4400 151.0000 1.0000
53.4600 159.0000 1.0000
53.4800 166.0000 1.0000
53.5000 177.0000 1.0000
53.5200 163.0000 1.0000
53.5400 158.0000 1.0000
53.5600 163.0000 1.0000
53.5800 178.0000 1.0000
53.6000 158.0000 1.0000
53.6200 178.0000 1.0000
53.6400 161.0000 1.0000
53.6600 162.0000 1.0000
53.6800 162.0000 1.0000
53.7000 171.0000 1.0000
53.7200 149.0000 1.0000
53.7400 174.0000 1.0000
53.7600 193.0000 1.0000
53.7800 180.0000 1.0000
53.8000 190.0000 1.0000
53.8200 182.0000 1.0000
53.8400 176.0000 1.0000
53.8600 178.0000 1.0000
53.8800 167.0000 1.0000
53.9000 178.0000 1.0000
53.9200 176.0000 1.0000
53.9400 176.0000 1.0000
53.9600 170.0000 1.0000
53.9800 178.0000 1.0000
54.0000 170.0000 1.0000
54.0200 163.0000 1.0000
54.0400 169.0000 1.0000
54.0600 166.0000 1.0000
54.0800 157.0000 1.0000
54.1000 163.0000 1.0000
54.1200 176.0000 1.0000
54.1400 153.0000 1.0000
54.1600 147.0000 1.0000
54.1800 139.0000 1.0000
54.2000 161.0000 1.0000
54.2200 163.0000 1.0000
54.2400 176.0000 1.0000
54.2600 190.0000 1.0000
54.2800 170.0000 1.0000
54.3000 154.0000 1.0000
54.3200 176.0000 1.0000
54.3400 177.0000 1.0000
54.3600 186.0000 1.0000
54.3800 174.0000 1.0000
54.4000 165.0000 1.0000
54.4200 171.0000 1.0000
54.4400 192.0000 1.0000
54.4600 184.0000 1.0000
54.4800 175.0000 1.0000
54.5000 186.0000 1.0000
54.5200 208.0000 1.0000
54.5400 225.0000 1.0000
54.5600 224.0000 1.0000
54.5800 237.0000 1.0000
54.6000 260.0000 1.0000
54.6200 290.0000 1.0000
54.6400 288.0000 1.0000
54.6600 321.0000 1.0000
54.6800 380.0000 1.0000
54.7000 393.0000 1.0000
54.7200 430.0000 1.0000
54.7400 443.0000 1.0000
54.7600 443.0000 1.0000
54.7800 436.0000 1.0000
54.8000 404.0000 1.0000
54.8200 401.0000 1.0000
54.8400 383.0000 1.0000
54.8600 371.0000 1.0000
54.8800 373.0000 1.0000
54.9000 346.0000 1.0000
54.9200 328.0000 1.0000
54.9400 326.0000 1.0000
54.9600 296.0000 1.0000
54.9800 269.0000 1.0000
55.0000 249.0000 1.0000
55.0200 233.0000 1.0000
55.0400 227.0000 1.0000
55.0600 241.0000 1.0000
55.0800 257.0000 1.0000
55.1000 268.0000 1.0000
55.1200 263.0000 1.0000
55.1400 266.0000 1.0000
55.1600 287.0000 1.0000
55.1800 307.0000 1.0000
55.2000 300.0000 1.0000
55.2200 301.0000 1.0000
55.2400 306.0000 1.0000
55.2600 312.0000 1.0000
55.2800 280.0000 1.0000
55.3000 261.0000 1.0000
55.3200 264.0000 1.0000
55.3400 259.0000 1.0000
55.3600 266.0000 1.0000
55.3800 253.0000 1.0000
55.4000 223.0000 1.0000
55.4200 210.0000 1.0000
55.4400 216.0000 1.0000
55.4600 224.0000 1.0000
55.4800 205.0000 1.0000
55.5000 189.0000 1.0000
55.5200 194.0000 1.0000
55.5400 212.0000 1.0000
55.5600 215.0000 1.0000
55.5800 191.0000 1.0000
55.6000 202.0000 1.0000
55.6200 210.0000 1.0000
55.6400 196.0000 1.0000
55.6600 197.0000 1.0000
55.6800 196.0000 1.0000
55.7000 193.0000 1.0000
55.7200 201.0000 1.0000
55.7400 211.0000 1.0000
55.7600 204.0000 1.0000
55.7800 201.0000 1.0000
55.8000 193.0000 1.0000
55.8200 181.0000 1.0000
55.8400 188.0000 1.0000
55.8600 190.0000 1.0000
55.8800 196.0000 1.0000
55.9000 205.0000 1.0000
55.9200 199.0000 1.0000
55.9400 194.0000 1.0000
55.9600 200.0000 1.0000
55.9800 201.0000 1.0000
56.0000 198.0000 1.0000
56.0200 190.0000 1.0000
56.0400 204.0000 1.0000
56.0600 214.0000 1.0000
56.0800 194.0000 1.0000
56.1000 195.0000 1.0000
56.1200 189.0000 1.0000
56.1400 187.0000 1.0000
56.1600 200.0000 1.0000
56.1800 184.0000 1.0000
56.2000 185.0000 1.0000
56.2200 192.0000 1.0000
56.2400 168.0000 1.0000
56.2600 164.0000 1.0000
56.2800 181.0000 1.0000
56.3000 192.0000 1.0000
56.3200 188.0000 1.0000
56.3400 186.0000 1.0000
56.3600 175.0000 1.0000
56.3800 173.0000 1.0000
56.4000 190.0000 1.0000
56.4200 180.0000 1.0000
56.4400 162.0000 1.0000
56.4600 167.0000 1.0000
56.4800 176.0000 1.0000
56.5000 182.0000 1.0000
56.5200 172.0000 1.0000
56.5400 168.0000 1.0000
56.5600 169.0000 1.0000
56.5800 170.0000 1.0000
56.6000 180.0000 1.0000
56.6200 185.0000 1.0000
56.6400 197.0000 1.0000
56.6600 188.0000 1.0000
56.6800 181.0000 1.0000
56.7000 190.0000 1.0000
56.7200 176.0000 1.0000
56.7400 180.0000 1.0000
56.7600 180.0000 1.0000
56.7800 150.0000 1.0000
56.8000 157.0000 1.0000
56.8200 165.0000 1.0000
56.8400 164.0000 1.0000
56.8600 169.0000 1.0000
56.8800 160.0000 1.0000
56.9000 149.0000 1.0000
56.9200 170.0000 1.0000
56.9400 187.0000 1.0000
56.9600 173.0000 1.0000
56.9800 173.0000 1.0000
57.0000 183.0000 1.0000
57.0200 180.0000 1.0000
57.0400 208.0000 1.0000
57.0600 237.0000 1.0000
57.0800 238.0000 1.0000
57.1000 232.0000 1.0000
57.1200 237.0000 1.0000
57.1400 277.0000 1.0000
57.1600 286.0000 1.0000
57.1800 311.0000 1.0000
57.2000 354.0000 1.0000
57.2200 405.0000 1.0000
57.2400 501.0000 1.0000
57.2600 603.0000 1.0000
57.2800 697.0000 1.0000
57.3000 873.0000 1.0000
57.3200 1018.0000 1.0000
57.3400 1182.0000 1.0000
57.3600 1341.0000 1.0000
57.3800 1404.0000 1.0000
57.4000 1348.0000 1.0000
57.4200 1290.0000 1.0000
57.4400 1211.0000 1.0000
57.4600 1135.0000 1.0000
57.4800 991.0000 1.0000
57.5000 928.0000 1.0000
57.5200 906.0000 1.0000
57.5400 869.0000 1.0000
57.5600 803.0000 1.0000
57.5800 670.0000 1.0000
57.6000 603.0000 1.0000
57.6200 497.0000 1.0000
57.6400 374.0000 1.0000
57.6600 307.0000 1.0000
57.6800 286.0000 1.0000
57.7000 240.0000 1.0000
57.7200 227.0000 1.0000
57.7400 216.0000 1.0000
57.7600 205.0000 1.0000
57.7800 184.0000 1.0000
57.8000 194.0000 1.0000
57.8200 188.0000 1.0000
57.8400 177.0000 1.0000
57.8600 172.0000 1.0000
57.8800 152.0000 1.0000
57.9000 165.0000 1.0000
57.9200 166.0000 1.0000
57.9400 151.0000 1.0000
57.9600 164.0000 1.0000
57.9800 153.0000 1.0000
58.0000 158.0000 1.0000
58.0200 138.0000 1.0000
58.0400 151.0000 1.0000
58.0600 158.0000 1.0000
58.0800 149.0000 1.0000
58.1000 138.0000 1.0000
58.1200 152.0000 1.0000
58.1400 148.0000 1.0000
58.1600 139.0000 1.0000
58.1800 148.0000 1.0000
58.2000 141.0000 1.0000
58.2200 140.0000 1.0000
58.2400 136.0000 1.0000
58.2600 142.0000 1.0000
58.2800 145.0000 1.0000
58.3000 111.0000 1.0000
58.3200 125.0000 1.0000
58.3400 127.0000 1.0000
58.3600 129.0000 1.0000
58.3800 128.0000 1.0000
58.4000 129.0000 1.0000
58.4200 130.0000 1.0000
58.4400 155.0000 1.0000
58.4600 138.0000 1.0000
58.4800 157.0000 1.0000
58.5000 151.0000 1.0000
58.5200 132.0000 1.0000
58.5400 122.0000 1.0000
58.5600 158.0000 1.0000
58.5800 138.0000 1.0000
58.6000 138.0000 1.0000
58.6200 122.0000 1.0000
58.6400 138.0000 1.0000
58.6600 141.0000 1.0000
58.6800 151.0000 1.0000
58.7000 129.0000 1.0000
58.7200 162.0000 1.0000
58.7400 141.0000 1.0000
58.7600 142.0000 1.0000
58.7800 145.0000 1.0000
58.8000 150.0000 1.0000
58.8200 153.0000 1.0000
58.8400 147.0000 1.0000
58.8600 139.0000 1.0000
58.8800 140.0000 1.0000
58.9000 153.0000 1.0000
58.9200 145.0000 1.0000
58.9400 152.0000 1.0000
58.9600 152.0000 1.0000
58.9800 150.0000 1.0000
59.0000 182.0000 1.0000
59.0200 175.0000 1.0000
59.0400 178.0000 1.0000
59.0600 152.0000 1.0000
59.0800 148.0000 1.0000
59.1000 171.0000 1.0000
59.1200 166.0000 1.0000
59.1400 156.0000 1.0000
59.1600 168.0000 1.0000
59.1800 168.0000 1.0000
59.2000 163.0000 1.0000
59.2200 173.0000 1.0000
59.2400 165.0000 1.0000
59.2600 163.0000 1.0000
59.2800 167.0000 1.0000
59.3000 153.0000 1.0000
59.3200 183.0000 1.0000
59.3400 179.0000 1.0000
59.3600 189.0000 1.0000
59.3800 208.0000 1.0000
59.4000 197.0000 1.0000
59.4200 208.0000 1.0000
59.4400 183.0000 1.0000
59.4600 196.0000 1.0000
59.4800 227.0000 1.0000
59.5000 236.0000 1.0000
59.5200 219.0000 1.0000
59.5400 236.0000 1.0000
59.5600 256.0000 1.0000
59.5800 254.0000 1.0000
59.6000 299.0000 1.0000
59.6200 312.0000 1.0000
59.6400 338.0000 1.0000
59.6600 370.0000 1.0000
59.6800 362.0000 1.0000
59.7000 432.0000 1.0000
59.7200 457.0000 1.0000
59.7400 521.0000 1.0000
59.7600 636.0000 1.0000
59.7800 668.0000 1.0000
59.8000 740.0000 1.0000
59.8200 794.0000 1.0000
59.8400 858.0000 1.0000
59.8600 855.0000 1.0000
59.8800 770.0000 1.0000
59.9000 664.0000 1.0000
59.9200 673.0000 1.0000
59.9400 595.0000 1.0000
59.9600 577.0000 1.0000
59.9800 590.0000 1.0000
60.0000 565.0000 1.0000
60.0200 505.0000 1.0000
60.0400 487.0000 1.0000
60.0600 448.0000 1.0000
60.0800 352.0000 1.0000
60.1000 294.0000 1.0000
60.1200 280.0000 1.0000
60.1400 251.0000 1.0000
60.1600 246.0000 1.0000
60.1800 227.0000 1.0000
60.2000 215.0000 1.0000
60.2200 228.0000 1.0000
60.2400 201.0000 1.0000
60.2600 200.0000 1.0000
60.2800 193.0000 1.0000
60.3000 172.0000 1.0000
60.3200 188.0000 1.0000
60.3400 222.0000 1.0000
60.3600 187.0000 1.0000
60.3800 190.0000 1.0000
60.4000 169.0000 1.0000
60.4200 212.0000 1.0000
60.4400 175.0000 1.0000
60.4600 188.0000 1.0000
60.4800 186.0000 1.0000
60.5000 163.0000 1.0000
60.5200 169.0000 1.0000
60.5400 194.0000 1.0000
60.5600 164.0000 1.0000
60.5800 176.0000 1.0000
60.6000 164.0000 1.0000
60.6200 162.0000 1.0000
60.6400 191.0000 1.0000
60.6600 186.0000 1.0000
60.6800 159.0000 1.0000
60.7000 185.0000 1.0000
60.7200 204.0000 1.0000
60.7400 234.0000 1.0000
60.7600 213.0000 1.0000
60.7800 206.0000 1.0000
60.8000 164.0000 1.0000
60.8200 195.0000 1.0000
60.8400 187.0000 1.0000
60.8600 187.0000 1.0000
60.8800 197.0000 1.0000
60.9000 189.0000 1.0000
60.9200 205.0000 1.0000
60.9400 190.0000 1.0000
60.9600 206.0000 1.0000
60.9800 212.0000 1.0000
61.0000 240.0000 1.0000
61.0200 203.0000 1.0000
61.0400 237.0000 1.0000
61.0600 234.0000 1.0000
61.0800 238.0000 1.0000
61.1000 251.0000 1.0000
61.1200 255.0000 1.0000
61.1400 249.0000 1.0000
61.1600 287.0000 1.0000
61.1800 292.0000 1.0000
61.2000 266.0000 1.0000
61.2200 297.0000 1.0000
61.2400 314.0000 1.0000
61.2600 294.0000 1.0000
61.2800 264.0000 1.0000
61.3000 283.0000 1.0000
61.3200 289.0000 1.0000
61.3400 283.0000 1.0000
61.3600 284.0000 1.0000
61.3800 254.0000 1.0000
61.4000 262.0000 1.0000
61.4200 299.0000 1.0000
61.4400 272.0000 1.0000
61.4600 271.0000 1.0000
61.4800 267.0000 1.0000
61.5000 265.0000 1.0000
61.5200 298.0000 1.0000
61.5400 287.0000 1.0000
61.5600 275.0000 1.0000
61.5800 284.0000 1.0000
61.6000 296.0000 1.0000
61.6200 316.0000 1.0000
61.6400 317.0000 1.0000
61.6600 311.0000 1.0000
61.6800 324.0000 1.0000
61.7000 314.0000 1.0000
61.7200 332.0000 1.0000
61.7400 320.0000 1.0000
61.7600 323.0000 1.0000
61.7800 337.0000 1.0000
61.8000 296.0000 1.0000
61.8200 327.0000 1.0000
61.8400 306.0000 1.0000
61.8600 276.0000 1.0000
61.8800 279.0000 1.0000
61.9000 230.0000 1.0000
61.9200 264.0000 1.0000
61.9400 250.0000 1.0000
61.9600 244.0000 1.0000
61.9800 225.0000 1.0000
62.0000 209.0000 1.0000
62.0200 206.0000 1.0000
62.0400 195.0000 1.0000
62.0600 186.0000 1.0000
62.0800 186.0000 1.0000
62.1000 195.0000 1.0000
62.1200 190.0000 1.0000
62.1400 184.0000 1.0000
62.1600 183.0000 1.0000
62.1800 171.0000 1.0000
62.2000 156.0000 1.0000
62.2200 157.0000 1.0000
62.2400 156.0000 1.0000
62.2600 157.0000 1.0000
62.2800 184.0000 1.0000
62.3000 149.0000 1.0000
62.3200 146.0000 1.0000
62.3400 151.0000 1.0000
62.3600 140.0000 1.0000
62.3800 149.0000 1.0000
62.4000 147.0000 1.0000
62.4200 136.0000 1.0000
62.4400 143.0000 1.0000
62.4600 141.0000 1.0000
62.4800 154.0000 1.0000
62.5000 152.0000 1.0000
62.5200 139.0000 1.0000
62.5400 131.0000 1.0000
62.5600 138.0000 1.0000
62.5800 136.0000 1.0000
62.6000 145.0000 1.0000
62.6200 133.0000 1.0000
62.6400 119.0000 1.0000
62.6600 132.0000 1.0000
62.6800 133.0000 1.0000
62.7000 122.0000 1.0000
62.7200 121.0000 1.0000
62.7400 110.0000 1.0000
62.7600 128.0000 1.0000
62.7800 137.0000 1.0000
62.8000 120.0000 1.0000
62.8200 118.0000 1.0000
62.8400 119.0000 1.0000
62.8600 126.0000 1.0000
62.8800 117.0000 1.0000
62.9000 119.0000 1.0000
62.9200 124.0000 1.0000
62.9400 132.0000 1.0000
62.9600 128.0000 1.0000
62.9800 106.0000 1.0000
63.0000 133.0000 1.0000
63.0200 129.0000 1.0000
63.0400 119.0000 1.0000
63.0600 121.0000 1.0000
63.0800 117.0000 1.0000
63.1000 122.0000 1.0000
63.1200 119.0000 1.0000
63.1400 116.0000 1.0000
63.1600 109.0000 1.0000
63.1800 113.0000 1.0000
63.2000 141.0000 1.0000
63.2200 132.0000 1.0000
63.2400 125.0000 1.0000
63.2600 125.0000 1.0000
63.2800 131.0000 1.0000
63.3000 128.0000 1.0000
63.3200 124.0000 1.0000
63.3400 132.0000 1.0000
63.3600 120.0000 1.0000
63.3800 140.0000 1.0000
63.4000 123.0000 1.0000
63.4200 132.0000 1.0000
63.4400 152.0000 1.0000
63.4600 141.0000 1.0000
63.4800 145.0000 1.0000
63.5000 147.0000 1.0000
63.5200 143.0000 1.0000
63.5400 132.0000 1.0000
63.5600 137.0000 1.0000
63.5800 146.0000 1.0000
63.6000 131.0000 1.0000
63.6200 154.0000 1.0000
63.6400 142.0000 1.0000
63.6600 152.0000 1.0000
63.6800 161.0000 1.0000
63.7000 173.0000 1.0000
63.7200 156.0000 1.0000
63.7400 150.0000 1.0000
63.7600 157.0000 1.0000
63.7800 164.0000 1.0000
63.8000 187.0000 1.0000
63.8200 185.0000 1.0000
63.8400 219.0000 1.0000
63.8600 238.0000 1.0000
63.8800 236.0000 1.0000
63.9000 237.0000 1.0000
63.9200 236.0000 1.0000
63.9400 240.0000 1.0000
63.9600 217.0000 1.0000
63.9800 196.0000 1.0000
64.0000 198.0000 1.0000
64.0200 208.0000 1.0000
64.0400 172.0000 1.0000
64.0600 157.0000 1.0000
64.0800 176.0000 1.0000
64.1000 175.0000 1.0000
64.1200 174.0000 1.0000
64.1400 156.0000 1.0000
64.1600 150.0000 1.0000
64.1800 140.0000 1.0000
64.2000 159.0000 1.0000
64.2200 163.0000 1.0000
64.2400 135.0000 1.0000
64.2600 117.0000 1.0000
64.2800 122.0000 1.0000
64.3000 134.0000 1.0000
64.3200 133.0000 1.0000
64.3400 132.0000 1.0000
64.3600 121.0000 1.0000
64.3800 119.0000 1.0000
64.4000 125.0000 1.0000
64.4200 118.0000 1.0000
64.4400 122.0000 1.0000
64.4600 122.0000 1.0000
64.4800 143.0000 1.0000
64.5000 125.0000 1.0000
64.5200 116.0000 1.0000
64.5400 121.0000 1.0000
64.5600 136.0000 1.0000
64.5800 126.0000 1.0000
64.6000 137.0000 1.0000
64.6200 135.0000 1.0000
64.6400 130.0000 1.0000
64.6600 129.0000 1.0000
64.6800 134.0000 1.0000
64.7000 120.0000 1.0000
64.7200 128.0000 1.0000
64.7400 134.0000 1.0000
64.7600 137.0000 1.0000
64.7800 129.0000 1.0000
64.8000 127.0000 1.0000
64.8200 129.0000 1.0000
64.8400 142.0000 1.0000
64.8600 156.0000 1.0000
64.8800 154.0000 1.0000
64.9000 142.0000 1.0000
64.9200 136.0000 1.0000
64.9400 142.0000 1.0000
64.9600 145.0000 1.0000
64.9800 145.0000 1.0000
65.0000 145.0000 1.0000
*RAS_INT_END
*RAS_DATA_END
