*RAS_DATA_START
*RAS_HEADER_START
*CORR_POS_DB_NAME "Angle Correction ASC6 SC WITH Mono_04082019"
*CORR_POS_GONIO_RADIUS ""
*CORR_POS_NODE_INDEX01 ""
*CORR_POS_NODE_INDEX02 ""
*CORR_POS_NODE_INDEX03 ""
*CORR_POS_NODE_INDEX04 ""
*CORR_POS_NODE_INDEX05 ""
*CORR_POS_NODE_INDEX06 ""
*CORR_POS_NODE_INDEX07 ""
*CORR_POS_NODE_INDEX08 ""
*CORR_POS_NODE_INDEX09 ""
*CORR_POS_NODE_INDEX10 ""
*CORR_POS_NODE_INDEX11 ""
*CORR_POS_NODE_LABEL01 "Si(111)"
*CORR_POS_NODE_LABEL02 "Si(220)"
*CORR_POS_NODE_LABEL03 "Si(311)"
*CORR_POS_NODE_LABEL04 "Si(400)"
*CORR_POS_NODE_LABEL05 "Si(331)"
*CORR_POS_NODE_LABEL06 "Si(422)"
*CORR_POS_NODE_LABEL07 "Si(511)"
*CORR_POS_NODE_LABEL08 "Si(440)"
*CORR_POS_NODE_LABEL09 "Si(531)"
*CORR_POS_NODE_LABEL10 "Si(620)"
*CORR_POS_NODE_LABEL11 "Si(533)"
*CORR_POS_NODE_POS_CALC01 "28.377"
*CORR_POS_NODE_POS_CALC02 "47.2506"
*CORR_POS_NODE_POS_CALC03 "56.0725"
*CORR_POS_NODE_POS_CALC04 "69.0822"
*CORR_POS_NODE_POS_CALC05 "76.3294"
*CORR_POS_NODE_POS_CALC06 "87.9853"
*CORR_POS_NODE_POS_CALC07 "94.9091"
*CORR_POS_NODE_POS_CALC08 "106.668"
*CORR_POS_NODE_POS_CALC09 "114.054"
*CORR_POS_NODE_POS_CALC10 "127.511"
*CORR_POS_NODE_POS_CALC11 "136.864"
*CORR_POS_NODE_POS_MEAS01 "28.5058"
*CORR_POS_NODE_POS_MEAS02 "47.345"
*CORR_POS_NODE_POS_MEAS03 "56.1421"
*CORR_POS_NODE_POS_MEAS04 "69.1304"
*CORR_POS_NODE_POS_MEAS05 "76.366"
*CORR_POS_NODE_POS_MEAS06 "88.0213"
*CORR_POS_NODE_POS_MEAS07 "94.9406"
*CORR_POS_NODE_POS_MEAS08 "106.689"
*CORR_POS_NODE_POS_MEAS09 "114.065"
*CORR_POS_NODE_POS_MEAS10 "127.518"
*CORR_POS_NODE_POS_MEAS11 "136.869"
*CORR_POS_OPT_ATTR "集中法"
*CORR_POS_PARAM_MU ""
*CORR_POS_PARAM_PL ""
*CORR_POS_SEMODEL_TYPE "0"
*CORR_POS_STANDARD_TYPE ""
*CORR_POS_VALUE_ANALYZER "None"
*CORR_POS_VALUE_CMONO "None"
*CORR_POS_VALUE_IMONO "None"
*CORR_POS_VALUE_IS "1.250deg"
*CORR_POS_VALUE_ISL "10.0mm"
*CORR_POS_VALUE_ISOLLER "5.0deg"
*CORR_POS_VALUE_RS1 "1.250deg"
*CORR_POS_VALUE_RS2 "0.3mm"
*CORR_POS_VALUE_RSOLLER "5.0deg"
*CORR_POS_XG_FOCUS_L ""
*CORR_POS_XG_WAVE_TYPE ""
*CORR_POS_XG_WAVE_VALUE ""
*DISP_FMT_X "%.2f"
*DISP_FMT_Y "%.0f"
*DISP_FULLSCALE "5320.2000000000"
*DISP_LINE_COLOR "255.0000000000"
*DISP_LINE_STYLE "0.0000000000"
*DISP_LINE_WIDTH "0.2500000000"
*DISP_NOTE "Collected Data-17"
*DISP_OFFSET_Y "0.0000000000"
*DISP_PEAKSEARCH_UNIT_Y "CPS"
*DISP_RANGE_BOTTOM "0.0000000000"
*DISP_RANGE_LEFT "5.0000000000"
*DISP_RANGE_LOGCUTOFF "0.0100000000"
*DISP_RANGE_RIGHT "65.0000000000"
*DISP_RANGE_TOP "5320.2000000000"
*DISP_SCALE_MODE_Y "0.0000000000"
*DISP_TAB_NAME "Theta/2-Theta"
*DISP_TITLE_Y "Intensity"
*DISP_UNIT_Y "CPS"
*DISP_WINDOW_NAME "MSG_MACROENGINE"
*FILE_COMMENT " "
*FILE_MD5 ""
*FILE_MEMO " "
*FILE_OPERATOR "Administrator"
*FILE_PART_ID "MEAS_PBEA_00223"
*FILE_SAMPLE " "
*FILE_TYPE "RAS_RAW"
*FILE_USERGROUP "System Manager"
*FILE_VERSION "1.0000000000"
*HW_ATTACHMENT_ID "ATT1031"
*HW_ATTACHMENT_NAME "6サンプルチェンジャ|ASC-6"
*HW_COUNTER_ID-0 "CUT0021"
*HW_COUNTER_ID-1 "CUT0020"
*HW_COUNTER_ID-2 "CUT0020"
*HW_COUNTER_ID-3 "CMC0021"
*HW_COUNTER_NAME-0 "SC-70|SC-70"
*HW_COUNTER_NAME-1 "None|None"
*HW_COUNTER_NAME-2 "None|None"
*HW_COUNTER_NAME-3 "検出器モノクロメータ|Detector monochromator"
*HW_COUNTER_SELECT_NAME "SC-70|SC-70"
*HW_ECP_HV "671.5000000000"
*HW_ECP_HV_UNIT "V"
*HW_GONIOMETER_ID "GON0070"
*HW_GONIOMETER_NAME "MiniFlex 300/600|MiniFlex 300/600"
*HW_GONIOMETER_RADIUS-0 "79.0"
*HW_GONIOMETER_RADIUS-1 "91.5"
*HW_GONIOMETER_RADIUS-2 "150.0"
*HW_GONIOMETER_RADIUS-3 "0"
*HW_GONIOMETER_RADIUS-4 "103.4"
*HW_GONIOMETER_RADIUS-5 "150.0"
*HW_GONIOMETER_RADIUS-6 "46.6"
*HW_GONIOMETER_RADIUS-7 "160.0"
*HW_I_OPT_ID-0 "ISL0021"
*HW_I_OPT_ID-1 "ISO0021"
*HW_I_OPT_NAME-0 "発散スリット|Divergence slit"
*HW_I_OPT_NAME-1 "入射平行スリット|Incident parallel slit"
*HW_R_ATTENUATER_AUTOMODE "0"
*HW_R_OPT_ID-0 "RSS0021"
*HW_R_OPT_ID-1 "RSO0021"
*HW_R_OPT_ID-2 "RRS0021"
*HW_R_OPT_NAME-0 "散乱スリット|Scattering slit"
*HW_R_OPT_NAME-1 "受光平行スリット|Receiving soller slit"
*HW_R_OPT_NAME-2 "受光スリット|Receiving slit"
*HW_SAMPLE_HOLDER_ID "SMP0000"
*HW_SAMPLE_HOLDER_NAME "無し|None"
*HW_XG_CURRENT_MAX "15"
*HW_XG_CURRENT_MIN "2"
*HW_XG_CURRENT_RESOLUTION "1"
*HW_XG_CURRENT_UNIT "mA"
*HW_XG_FOCUS "1mm x 10mm"
*HW_XG_FOCUS_TYPE "Normal"
*HW_XG_ID "1060"
*HW_XG_NAME "300W/600W 封入管-B|300W/600W Sealed tube-B"
*HW_XG_TARGET_ATOMIC_NUMBER "29.0000000000"
*HW_XG_TARGET_NAME "Cu"
*HW_XG_TYPE "Hermetic"
*HW_XG_VOLTAGE_MAX "40"
*HW_XG_VOLTAGE_MIN "20"
*HW_XG_VOLTAGE_RESOLUTION "1"
*HW_XG_VOLTAGE_UNIT "kV"
*HW_XG_WATT_MAX "0.600"
*HW_XG_WATT_UNIT "kW"
*HW_XG_WAVE_LENGTH_ALPHA1 "1.540593"
*HW_XG_WAVE_LENGTH_ALPHA2 "1.544414"
*HW_XG_WAVE_LENGTH_BETA "1.392250"
*MEAS_COND_AXIS_NAME-0 "Theta/2-Theta"
*MEAS_COND_AXIS_NAME-1 "Spin"
*MEAS_COND_AXIS_NAME-2 "Change"
*MEAS_COND_AXIS_NAME-3 "Soller(inc.)"
*MEAS_COND_AXIS_NAME-4 "IHS"
*MEAS_COND_AXIS_NAME-5 "DS"
*MEAS_COND_AXIS_NAME-6 "SS"
*MEAS_COND_AXIS_NAME-7 "Soller(rec.)"
*MEAS_COND_AXIS_NAME-8 "RS"
*MEAS_COND_AXIS_NAME-9 "Filter"
*MEAS_COND_AXIS_NAME-10 "Monochromator"
*MEAS_COND_AXIS_NAME-11 "HV"
*MEAS_COND_AXIS_NAME-12 "PHA"
*MEAS_COND_AXIS_NAME_INTERNAL-0 "TwoThetaTheta"
*MEAS_COND_AXIS_NAME_INTERNAL-1 "Spin"
*MEAS_COND_AXIS_NAME_INTERNAL-2 "Change"
*MEAS_COND_AXIS_NAME_INTERNAL-3 "IncidentSollerSlit"
*MEAS_COND_AXIS_NAME_INTERNAL-4 "IncidentAxdSlit"
*MEAS_COND_AXIS_NAME_INTERNAL-5 "IncidentSlitBox"
*MEAS_COND_AXIS_NAME_INTERNAL-6 "ReceivingSlitBox1"
*MEAS_COND_AXIS_NAME_INTERNAL-7 "ReceivingSollerSlit"
*MEAS_COND_AXIS_NAME_INTERNAL-8 "ReceivingSlitBox2"
*MEAS_COND_AXIS_NAME_INTERNAL-9 "Filter"
*MEAS_COND_AXIS_NAME_INTERNAL-10 "CounterMonochromator"
*MEAS_COND_AXIS_NAME_INTERNAL-11 "HV"
*MEAS_COND_AXIS_NAME_INTERNAL-12 "PHA"
*MEAS_COND_AXIS_NAME_MAGICNO-0 "268632064.0000000000"
*MEAS_COND_AXIS_NAME_MAGICNO-1 "16842752.0000000000"
*MEAS_COND_AXIS_NAME_MAGICNO-2 "16842752.0000000000"
*MEAS_COND_AXIS_NAME_MAGICNO-3 "20971521.0000000000"
*MEAS_COND_AXIS_NAME_MAGICNO-4 "22020097.0000000000"
*MEAS_COND_AXIS_NAME_MAGICNO-5 "22020097.0000000000"
*MEAS_COND_AXIS_NAME_MAGICNO-6 "23068673.0000000000"
*MEAS_COND_AXIS_NAME_MAGICNO-7 "20971521.0000000000"
*MEAS_COND_AXIS_NAME_MAGICNO-8 "23068673.0000000000"
*MEAS_COND_AXIS_NAME_MAGICNO-9 "20971521.0000000000"
*MEAS_COND_AXIS_NAME_MAGICNO-10 "20971521.0000000000"
*MEAS_COND_AXIS_NAME_MAGICNO-11 "0.0000000000"
*MEAS_COND_AXIS_NAME_MAGICNO-12 "0.0000000000"
*MEAS_COND_AXIS_OFFSET-0 "0.0000000000"
*MEAS_COND_AXIS_OFFSET-1 "-"
*MEAS_COND_AXIS_OFFSET-2 "-"
*MEAS_COND_AXIS_OFFSET-3 "-"
*MEAS_COND_AXIS_OFFSET-4 "-"
*MEAS_COND_AXIS_OFFSET-5 "-"
*MEAS_COND_AXIS_OFFSET-6 "-"
*MEAS_COND_AXIS_OFFSET-7 "-"
*MEAS_COND_AXIS_OFFSET-8 "-"
*MEAS_COND_AXIS_OFFSET-9 "-"
*MEAS_COND_AXIS_OFFSET-10 "-"
*MEAS_COND_AXIS_OFFSET-11 "-"
*MEAS_COND_AXIS_OFFSET-12 "-"
*MEAS_COND_AXIS_POSITION-0 "65.0000000000"
*MEAS_COND_AXIS_POSITION-1 "0.0000000000"
*MEAS_COND_AXIS_POSITION-2 "3.0000000000"
*MEAS_COND_AXIS_POSITION-3 "5.0deg"
*MEAS_COND_AXIS_POSITION-4 "10.0mm"
*MEAS_COND_AXIS_POSITION-5 "1.250deg"
*MEAS_COND_AXIS_POSITION-6 "1.250deg"
*MEAS_COND_AXIS_POSITION-7 "5.0deg"
*MEAS_COND_AXIS_POSITION-8 "0.3mm"
*MEAS_COND_AXIS_POSITION-9 "None"
*MEAS_COND_AXIS_POSITION-10 "Bent"
*MEAS_COND_AXIS_POSITION-11 "671.5000000000"
*MEAS_COND_AXIS_POSITION-12 "551.2500000000"
*MEAS_COND_AXIS_UNIT-0 "deg"
*MEAS_COND_AXIS_UNIT-1 ""
*MEAS_COND_AXIS_UNIT-2 ""
*MEAS_COND_AXIS_UNIT-3 ""
*MEAS_COND_AXIS_UNIT-4 ""
*MEAS_COND_AXIS_UNIT-5 ""
*MEAS_COND_AXIS_UNIT-6 ""
*MEAS_COND_AXIS_UNIT-7 ""
*MEAS_COND_AXIS_UNIT-8 ""
*MEAS_COND_AXIS_UNIT-9 ""
*MEAS_COND_AXIS_UNIT-10 ""
*MEAS_COND_AXIS_UNIT-11 "V"
*MEAS_COND_AXIS_UNIT-12 "mV"
*MEAS_COND_CORRECTION_SLIT_COUNTERMONO "None"
*MEAS_COND_CORRECTION_SLIT_DS "1.250deg"
*MEAS_COND_CORRECTION_SLIT_FILTER "None"
*MEAS_COND_CORRECTION_SLIT_IHS "10.0mm"
*MEAS_COND_CORRECTION_SLIT_RS "0.3mm"
*MEAS_COND_CORRECTION_SLIT_SOLLER_INC "5.0deg"
*MEAS_COND_CORRECTION_SLIT_SOLLER_REC "5.0deg"
*MEAS_COND_CORRECTION_SLIT_SS "1.250deg"
*MEAS_COND_COUNTER_CNTLOSS_CORR "0.0000000000"
*MEAS_COND_COUNTER_PHABASE "551.2500000000"
*MEAS_COND_COUNTER_PHAWINDOW "926.2500000000"
*MEAS_COND_COUNTER_PHA_UNIT "mV"
*MEAS_COND_COUNTER_TAUDIFF "0.2500000000"
*MEAS_COND_COUNTER_TAUINT "0.7500000000"
*MEAS_COND_IRRADIATION_MODE "OFF"
*MEAS_COND_IRRADIATION_WIDTH ""
*MEAS_COND_OPT_ATTR " "
*MEAS_COND_OPT_NAME ""
*MEAS_COND_UNSYMMETRIC_MODE "OFF"
*MEAS_COND_XG_CURRENT "15.0000000000"
*MEAS_COND_XG_VOLTAGE "40.0000000000"
*MEAS_COND_XG_WAVE_TYPE "Ka"
*MEAS_DATA_COUNT "3001.0000000000"
*MEAS_SCAN_AXIS_X "Theta/2-Theta"
*MEAS_SCAN_AXIS_X_INTERNAL "TwoThetaTheta"
*MEAS_SCAN_END_TIME "05/06/25 19:10:12"
*MEAS_SCAN_MODE "STEP"
*MEAS_SCAN_MONITOR "0"
*MEAS_SCAN_RESOLUTION_X "0.0025"
*MEAS_SCAN_SPEED "2.00"
*MEAS_SCAN_SPEED_UNIT "sec."
*MEAS_SCAN_SPEED_USER "2.00"
*MEAS_SCAN_START "5.0000000000"
*MEAS_SCAN_START_TIME "05/06/25 17:24:55"
*MEAS_SCAN_STEP "0.0200000000"
*MEAS_SCAN_STOP "65.0000000000"
*MEAS_SCAN_UNIT_X "deg"
*MEAS_SCAN_UNIT_Y "counts"
*SLIT_SYSTEM "0"
*RAS_HEADER_END
*RAS_INT_START
5.0000 1262.0000 1.0000
5.0200 1216.0000 1.0000
5.0400 1252.0000 1.0000
5.0600 1203.0000 1.0000
5.0800 1147.0000 1.0000
5.1000 1230.0000 1.0000
5.1200 1251.0000 1.0000
5.1400 1141.0000 1.0000
5.1600 1115.0000 1.0000
5.1800 1099.0000 1.0000
5.2000 1081.0000 1.0000
5.2200 1070.0000 1.0000
5.2400 1165.0000 1.0000
5.2600 1164.0000 1.0000
5.2800 1174.0000 1.0000
5.3000 1127.0000 1.0000
5.3200 1144.0000 1.0000
5.3400 1276.0000 1.0000
5.3600 1191.0000 1.0000
5.3800 1149.0000 1.0000
5.4000 1079.0000 1.0000
5.4200 1099.0000 1.0000
5.4400 1047.0000 1.0000
5.4600 1050.0000 1.0000
5.4800 1043.0000 1.0000
5.5000 1039.0000 1.0000
5.5200 1062.0000 1.0000
5.5400 1082.0000 1.0000
5.5600 1115.0000 1.0000
5.5800 1061.0000 1.0000
5.6000 1047.0000 1.0000
5.6200 994.0000 1.0000
5.6400 1046.0000 1.0000
5.6600 1023.0000 1.0000
5.6800 1036.0000 1.0000
5.7000 1153.0000 1.0000
5.7200 1015.0000 1.0000
5.7400 1044.0000 1.0000
5.7600 1005.0000 1.0000
5.7800 1008.0000 1.0000
5.8000 1088.0000 1.0000
5.8200 1120.0000 1.0000
5.8400 1078.0000 1.0000
5.8600 982.0000 1.0000
5.8800 1051.0000 1.0000
5.9000 1181.0000 1.0000
5.9200 1215.0000 1.0000
5.9400 1217.0000 1.0000
5.9600 1147.0000 1.0000
5.9800 1162.0000 1.0000
6.0000 1114.0000 1.0000
6.0200 1098.0000 1.0000
6.0400 1110.0000 1.0000
6.0600 1085.0000 1.0000
6.0800 1066.0000 1.0000
6.1000 1108.0000 1.0000
6.1200 1099.0000 1.0000
6.1400 1065.0000 1.0000
6.1600 970.0000 1.0000
6.1800 1000.0000 1.0000
6.2000 994.0000 1.0000
6.2200 1003.0000 1.0000
6.2400 976.0000 1.0000
6.2600 988.0000 1.0000
6.2800 904.0000 1.0000
6.3000 931.0000 1.0000
6.3200 889.0000 1.0000
6.3400 857.0000 1.0000
6.3600 846.0000 1.0000
6.3800 899.0000 1.0000
6.4000 884.0000 1.0000
6.4200 849.0000 1.0000
6.4400 838.0000 1.0000
6.4600 801.0000 1.0000
6.4800 850.0000 1.0000
6.5000 862.0000 1.0000
6.5200 822.0000 1.0000
6.5400 788.0000 1.0000
6.5600 777.0000 1.0000
6.5800 809.0000 1.0000
6.6000 855.0000 1.0000
6.6200 804.0000 1.0000
6.6400 740.0000 1.0000
6.6600 740.0000 1.0000
6.6800 794.0000 1.0000
6.7000 811.0000 1.0000
6.7200 781.0000 1.0000
6.7400 745.0000 1.0000
6.7600 688.0000 1.0000
6.7800 727.0000 1.0000
6.8000 764.0000 1.0000
6.8200 761.0000 1.0000
6.8400 756.0000 1.0000
6.8600 732.0000 1.0000
6.8800 722.0000 1.0000
6.9000 701.0000 1.0000
6.9200 699.0000 1.0000
6.9400 711.0000 1.0000
6.9600 695.0000 1.0000
6.9800 725.0000 1.0000
7.0000 742.0000 1.0000
7.0200 721.0000 1.0000
7.0400 735.0000 1.0000
7.0600 733.0000 1.0000
7.0800 707.0000 1.0000
7.1000 676.0000 1.0000
7.1200 669.0000 1.0000
7.1400 670.0000 1.0000
7.1600 650.0000 1.0000
7.1800 684.0000 1.0000
7.2000 706.0000 1.0000
7.2200 673.0000 1.0000
7.2400 707.0000 1.0000
7.2600 720.0000 1.0000
7.2800 670.0000 1.0000
7.3000 650.0000 1.0000
7.3200 648.0000 1.0000
7.3400 680.0000 1.0000
7.3600 665.0000 1.0000
7.3800 656.0000 1.0000
7.4000 684.0000 1.0000
7.4200 637.0000 1.0000
7.4400 623.0000 1.0000
7.4600 644.0000 1.0000
7.4800 622.0000 1.0000
7.5000 595.0000 1.0000
7.5200 614.0000 1.0000
7.5400 624.0000 1.0000
7.5600 591.0000 1.0000
7.5800 572.0000 1.0000
7.6000 632.0000 1.0000
7.6200 637.0000 1.0000
7.6400 631.0000 1.0000
7.6600 676.0000 1.0000
7.6800 679.0000 1.0000
7.7000 645.0000 1.0000
7.7200 641.0000 1.0000
7.7400 642.0000 1.0000
7.7600 652.0000 1.0000
7.7800 660.0000 1.0000
7.8000 618.0000 1.0000
7.8200 564.0000 1.0000
7.8400 615.0000 1.0000
7.8600 651.0000 1.0000
7.8800 633.0000 1.0000
7.9000 638.0000 1.0000
7.9200 623.0000 1.0000
7.9400 696.0000 1.0000
7.9600 725.0000 1.0000
7.9800 709.0000 1.0000
8.0000 649.0000 1.0000
8.0200 685.0000 1.0000
8.0400 753.0000 1.0000
8.0600 786.0000 1.0000
8.0800 798.0000 1.0000
8.1000 828.0000 1.0000
8.1200 796.0000 1.0000
8.1400 776.0000 1.0000
8.1600 859.0000 1.0000
8.1800 843.0000 1.0000
8.2000 825.0000 1.0000
8.2200 850.0000 1.0000
8.2400 961.0000 1.0000
8.2600 973.0000 1.0000
8.2800 975.0000 1.0000
8.3000 1020.0000 1.0000
8.3200 988.0000 1.0000
8.3400 1028.0000 1.0000
8.3600 1129.0000 1.0000
8.3800 1128.0000 1.0000
8.4000 1114.0000 1.0000
8.4200 1134.0000 1.0000
8.4400 1211.0000 1.0000
8.4600 1257.0000 1.0000
8.4800 1274.0000 1.0000
8.5000 1290.0000 1.0000
8.5200 1268.0000 1.0000
8.5400 1359.0000 1.0000
8.5600 1384.0000 1.0000
8.5800 1298.0000 1.0000
8.6000 1280.0000 1.0000
8.6200 1272.0000 1.0000
8.6400 1192.0000 1.0000
8.6600 1087.0000 1.0000
8.6800 1035.0000 1.0000
8.7000 934.0000 1.0000
8.7200 840.0000 1.0000
8.7400 853.0000 1.0000
8.7600 704.0000 1.0000
8.7800 668.0000 1.0000
8.8000 635.0000 1.0000
8.8200 617.0000 1.0000
8.8400 547.0000 1.0000
8.8600 538.0000 1.0000
8.8800 518.0000 1.0000
8.9000 451.0000 1.0000
8.9200 463.0000 1.0000
8.9400 449.0000 1.0000
8.9600 436.0000 1.0000
8.9800 433.0000 1.0000
9.0000 397.0000 1.0000
9.0200 437.0000 1.0000
9.0400 424.0000 1.0000
9.0600 402.0000 1.0000
9.0800 375.0000 1.0000
9.1000 396.0000 1.0000
9.1200 387.0000 1.0000
9.1400 354.0000 1.0000
9.1600 371.0000 1.0000
9.1800 318.0000 1.0000
9.2000 357.0000 1.0000
9.2200 343.0000 1.0000
9.2400 313.0000 1.0000
9.2600 299.0000 1.0000
9.2800 334.0000 1.0000
9.3000 324.0000 1.0000
9.3200 319.0000 1.0000
9.3400 320.0000 1.0000
9.3600 313.0000 1.0000
9.3800 307.0000 1.0000
9.4000 282.0000 1.0000
9.4200 280.0000 1.0000
9.4400 291.0000 1.0000
9.4600 292.0000 1.0000
9.4800 272.0000 1.0000
9.5000 299.0000 1.0000
9.5200 275.0000 1.0000
9.5400 304.0000 1.0000
9.5600 264.0000 1.0000
9.5800 252.0000 1.0000
9.6000 273.0000 1.0000
9.6200 291.0000 1.0000
9.6400 293.0000 1.0000
9.6600 279.0000 1.0000
9.6800 232.0000 1.0000
9.7000 258.0000 1.0000
9.7200 210.0000 1.0000
9.7400 246.0000 1.0000
9.7600 262.0000 1.0000
9.7800 285.0000 1.0000
9.8000 233.0000 1.0000
9.8200 240.0000 1.0000
9.8400 270.0000 1.0000
9.8600 246.0000 1.0000
9.8800 236.0000 1.0000
9.9000 253.0000 1.0000
9.9200 234.0000 1.0000
9.9400 248.0000 1.0000
9.9600 238.0000 1.0000
9.9800 240.0000 1.0000
10.0000 280.0000 1.0000
10.0200 241.0000 1.0000
10.0400 218.0000 1.0000
10.0600 292.0000 1.0000
10.0800 210.0000 1.0000
10.1000 257.0000 1.0000
10.1200 236.0000 1.0000
10.1400 227.0000 1.0000
10.1600 259.0000 1.0000
10.1800 242.0000 1.0000
10.2000 236.0000 1.0000
10.2200 229.0000 1.0000
10.2400 234.0000 1.0000
10.2600 246.0000 1.0000
10.2800 233.0000 1.0000
10.3000 234.0000 1.0000
10.3200 230.0000 1.0000
10.3400 230.0000 1.0000
10.3600 226.0000 1.0000
10.3800 243.0000 1.0000
10.4000 214.0000 1.0000
10.4200 239.0000 1.0000
10.4400 217.0000 1.0000
10.4600 243.0000 1.0000
10.4800 216.0000 1.0000
10.5000 192.0000 1.0000
10.5200 194.0000 1.0000
10.5400 188.0000 1.0000
10.5600 278.0000 1.0000
10.5800 244.0000 1.0000
10.6000 226.0000 1.0000
10.6200 238.0000 1.0000
10.6400 216.0000 1.0000
10.6600 198.0000 1.0000
10.6800 210.0000 1.0000
10.7000 208.0000 1.0000
10.7200 221.0000 1.0000
10.7400 218.0000 1.0000
10.7600 207.0000 1.0000
10.7800 222.0000 1.0000
10.8000 209.0000 1.0000
10.8200 216.0000 1.0000
10.8400 228.0000 1.0000
10.8600 200.0000 1.0000
10.8800 246.0000 1.0000
10.9000 218.0000 1.0000
10.9200 216.0000 1.0000
10.9400 208.0000 1.0000
10.9600 229.0000 1.0000
10.9800 216.0000 1.0000
11.0000 252.0000 1.0000
11.0200 243.0000 1.0000
11.0400 207.0000 1.0000
11.0600 262.0000 1.0000
11.0800 258.0000 1.0000
11.1000 195.0000 1.0000
11.1200 207.0000 1.0000
11.1400 253.0000 1.0000
11.1600 209.0000 1.0000
11.1800 224.0000 1.0000
11.2000 245.0000 1.0000
11.2200 210.0000 1.0000
11.2400 180.0000 1.0000
11.2600 216.0000 1.0000
11.2800 224.0000 1.0000
11.3000 212.0000 1.0000
11.3200 235.0000 1.0000
11.3400 201.0000 1.0000
11.3600 214.0000 1.0000
11.3800 214.0000 1.0000
11.4000 228.0000 1.0000
11.4200 228.0000 1.0000
11.4400 229.0000 1.0000
11.4600 202.0000 1.0000
11.4800 252.0000 1.0000
11.5000 241.0000 1.0000
11.5200 200.0000 1.0000
11.5400 212.0000 1.0000
11.5600 243.0000 1.0000
11.5800 231.0000 1.0000
11.6000 251.0000 1.0000
11.6200 253.0000 1.0000
11.6400 239.0000 1.0000
11.6600 234.0000 1.0000
11.6800 251.0000 1.0000
11.7000 219.0000 1.0000
11.7200 260.0000 1.0000
11.7400 290.0000 1.0000
11.7600 275.0000 1.0000
11.7800 264.0000 1.0000
11.8000 277.0000 1.0000
11.8200 269.0000 1.0000
11.8400 265.0000 1.0000
11.8600 270.0000 1.0000
11.8800 285.0000 1.0000
11.9000 291.0000 1.0000
11.9200 309.0000 1.0000
11.9400 296.0000 1.0000
11.9600 271.0000 1.0000
11.9800 293.0000 1.0000
12.0000 327.0000 1.0000
12.0200 308.0000 1.0000
12.0400 314.0000 1.0000
12.0600 296.0000 1.0000
12.0800 311.0000 1.0000
12.1000 326.0000 1.0000
12.1200 367.0000 1.0000
12.1400 371.0000 1.0000
12.1600 331.0000 1.0000
12.1800 369.0000 1.0000
12.2000 340.0000 1.0000
12.2200 369.0000 1.0000
12.2400 362.0000 1.0000
12.2600 311.0000 1.0000
12.2800 309.0000 1.0000
12.3000 321.0000 1.0000
12.3200 307.0000 1.0000
12.3400 299.0000 1.0000
12.3600 253.0000 1.0000
12.3800 260.0000 1.0000
12.4000 264.0000 1.0000
12.4200 273.0000 1.0000
12.4400 299.0000 1.0000
12.4600 239.0000 1.0000
12.4800 225.0000 1.0000
12.5000 223.0000 1.0000
12.5200 244.0000 1.0000
12.5400 246.0000 1.0000
12.5600 234.0000 1.0000
12.5800 229.0000 1.0000
12.6000 220.0000 1.0000
12.6200 194.0000 1.0000
12.6400 198.0000 1.0000
12.6600 201.0000 1.0000
12.6800 204.0000 1.0000
12.7000 214.0000 1.0000
12.7200 188.0000 1.0000
12.7400 185.0000 1.0000
12.7600 194.0000 1.0000
12.7800 208.0000 1.0000
12.8000 187.0000 1.0000
12.8200 193.0000 1.0000
12.8400 179.0000 1.0000
12.8600 164.0000 1.0000
12.8800 177.0000 1.0000
12.9000 190.0000 1.0000
12.9200 180.0000 1.0000
12.9400 182.0000 1.0000
12.9600 183.0000 1.0000
12.9800 169.0000 1.0000
13.0000 145.0000 1.0000
13.0200 172.0000 1.0000
13.0400 164.0000 1.0000
13.0600 168.0000 1.0000
13.0800 179.0000 1.0000
13.1000 169.0000 1.0000
13.1200 164.0000 1.0000
13.1400 157.0000 1.0000
13.1600 163.0000 1.0000
13.1800 156.0000 1.0000
13.2000 147.0000 1.0000
13.2200 150.0000 1.0000
13.2400 165.0000 1.0000
13.2600 164.0000 1.0000
13.2800 159.0000 1.0000
13.3000 143.0000 1.0000
13.3200 166.0000 1.0000
13.3400 174.0000 1.0000
13.3600 172.0000 1.0000
13.3800 171.0000 1.0000
13.4000 186.0000 1.0000
13.4200 185.0000 1.0000
13.4400 194.0000 1.0000
13.4600 195.0000 1.0000
13.4800 228.0000 1.0000
13.5000 220.0000 1.0000
13.5200 223.0000 1.0000
13.5400 238.0000 1.0000
13.5600 243.0000 1.0000
13.5800 256.0000 1.0000
13.6000 275.0000 1.0000
13.6200 306.0000 1.0000
13.6400 316.0000 1.0000
13.6600 300.0000 1.0000
13.6800 316.0000 1.0000
13.7000 300.0000 1.0000
13.7200 256.0000 1.0000
13.7400 200.0000 1.0000
13.7600 201.0000 1.0000
13.7800 215.0000 1.0000
13.8000 194.0000 1.0000
13.8200 188.0000 1.0000
13.8400 196.0000 1.0000
13.8600 190.0000 1.0000
13.8800 166.0000 1.0000
13.9000 166.0000 1.0000
13.9200 169.0000 1.0000
13.9400 154.0000 1.0000
13.9600 143.0000 1.0000
13.9800 141.0000 1.0000
14.0000 154.0000 1.0000
14.0200 158.0000 1.0000
14.0400 152.0000 1.0000
14.0600 173.0000 1.0000
14.0800 158.0000 1.0000
14.1000 150.0000 1.0000
14.1200 151.0000 1.0000
14.1400 148.0000 1.0000
14.1600 143.0000 1.0000
14.1800 147.0000 1.0000
14.2000 145.0000 1.0000
14.2200 151.0000 1.0000
14.2400 156.0000 1.0000
14.2600 147.0000 1.0000
14.2800 132.0000 1.0000
14.3000 145.0000 1.0000
14.3200 154.0000 1.0000
14.3400 157.0000 1.0000
14.3600 163.0000 1.0000
14.3800 156.0000 1.0000
14.4000 155.0000 1.0000
14.4200 149.0000 1.0000
14.4400 152.0000 1.0000
14.4600 154.0000 1.0000
14.4800 162.0000 1.0000
14.5000 168.0000 1.0000
14.5200 164.0000 1.0000
14.5400 152.0000 1.0000
14.5600 135.0000 1.0000
14.5800 140.0000 1.0000
14.6000 154.0000 1.0000
14.6200 161.0000 1.0000
14.6400 166.0000 1.0000
14.6600 161.0000 1.0000
14.6800 167.0000 1.0000
14.7000 182.0000 1.0000
14.7200 182.0000 1.0000
14.7400 171.0000 1.0000
14.7600 180.0000 1.0000
14.7800 186.0000 1.0000
14.8000 172.0000 1.0000
14.8200 162.0000 1.0000
14.8400 173.0000 1.0000
14.8600 164.0000 1.0000
14.8800 145.0000 1.0000
14.9000 162.0000 1.0000
14.9200 167.0000 1.0000
14.9400 158.0000 1.0000
14.9600 164.0000 1.0000
14.9800 149.0000 1.0000
15.0000 129.0000 1.0000
15.0200 125.0000 1.0000
15.0400 124.0000 1.0000
15.0600 129.0000 1.0000
15.0800 128.0000 1.0000
15.1000 126.0000 1.0000
15.1200 147.0000 1.0000
15.1400 153.0000 1.0000
15.1600 138.0000 1.0000
15.1800 126.0000 1.0000
15.2000 117.0000 1.0000
15.2200 137.0000 1.0000
15.2400 143.0000 1.0000
15.2600 128.0000 1.0000
15.2800 136.0000 1.0000
15.3000 141.0000 1.0000
15.3200 147.0000 1.0000
15.3400 161.0000 1.0000
15.3600 141.0000 1.0000
15.3800 119.0000 1.0000
15.4000 124.0000 1.0000
15.4200 137.0000 1.0000
15.4400 147.0000 1.0000
15.4600 134.0000 1.0000
15.4800 134.0000 1.0000
15.5000 135.0000 1.0000
15.5200 133.0000 1.0000
15.5400 161.0000 1.0000
15.5600 171.0000 1.0000
15.5800 151.0000 1.0000
15.6000 161.0000 1.0000
15.6200 161.0000 1.0000
15.6400 154.0000 1.0000
15.6600 146.0000 1.0000
15.6800 134.0000 1.0000
15.7000 148.0000 1.0000
15.7200 147.0000 1.0000
15.7400 125.0000 1.0000
15.7600 138.0000 1.0000
15.7800 128.0000 1.0000
15.8000 128.0000 1.0000
15.8200 130.0000 1.0000
15.8400 131.0000 1.0000
15.8600 143.0000 1.0000
15.8800 142.0000 1.0000
15.9000 132.0000 1.0000
15.9200 139.0000 1.0000
15.9400 130.0000 1.0000
15.9600 124.0000 1.0000
15.9800 124.0000 1.0000
16.0000 112.0000 1.0000
16.0200 119.0000 1.0000
16.0400 121.0000 1.0000
16.0600 132.0000 1.0000
16.0800 128.0000 1.0000
16.1000 128.0000 1.0000
16.1200 127.0000 1.0000
16.1400 118.0000 1.0000
16.1600 117.0000 1.0000
16.1800 118.0000 1.0000
16.2000 121.0000 1.0000
16.2200 124.0000 1.0000
16.2400 111.0000 1.0000
16.2600 119.0000 1.0000
16.2800 122.0000 1.0000
16.3000 120.0000 1.0000
16.3200 135.0000 1.0000
16.3400 125.0000 1.0000
16.3600 117.0000 1.0000
16.3800 129.0000 1.0000
16.4000 123.0000 1.0000
16.4200 122.0000 1.0000
16.4400 128.0000 1.0000
16.4600 146.0000 1.0000
16.4800 158.0000 1.0000
16.5000 140.0000 1.0000
16.5200 130.0000 1.0000
16.5400 129.0000 1.0000
16.5600 129.0000 1.0000
16.5800 122.0000 1.0000
16.6000 124.0000 1.0000
16.6200 135.0000 1.0000
16.6400 119.0000 1.0000
16.6600 125.0000 1.0000
16.6800 127.0000 1.0000
16.7000 130.0000 1.0000
16.7200 127.0000 1.0000
16.7400 132.0000 1.0000
16.7600 132.0000 1.0000
16.7800 137.0000 1.0000
16.8000 129.0000 1.0000
16.8200 130.0000 1.0000
16.8400 134.0000 1.0000
16.8600 130.0000 1.0000
16.8800 130.0000 1.0000
16.9000 133.0000 1.0000
16.9200 143.0000 1.0000
16.9400 143.0000 1.0000
16.9600 141.0000 1.0000
16.9800 156.0000 1.0000
17.0000 155.0000 1.0000
17.0200 139.0000 1.0000
17.0400 157.0000 1.0000
17.0600 167.0000 1.0000
17.0800 167.0000 1.0000
17.1000 170.0000 1.0000
17.1200 173.0000 1.0000
17.1400 168.0000 1.0000
17.1600 166.0000 1.0000
17.1800 167.0000 1.0000
17.2000 178.0000 1.0000
17.2200 172.0000 1.0000
17.2400 174.0000 1.0000
17.2600 179.0000 1.0000
17.2800 180.0000 1.0000
17.3000 187.0000 1.0000
17.3200 199.0000 1.0000
17.3400 211.0000 1.0000
17.3600 227.0000 1.0000
17.3800 230.0000 1.0000
17.4000 207.0000 1.0000
17.4200 238.0000 1.0000
17.4400 236.0000 1.0000
17.4600 262.0000 1.0000
17.4800 271.0000 1.0000
17.5000 252.0000 1.0000
17.5200 260.0000 1.0000
17.5400 261.0000 1.0000
17.5600 256.0000 1.0000
17.5800 259.0000 1.0000
17.6000 242.0000 1.0000
17.6200 247.0000 1.0000
17.6400 241.0000 1.0000
17.6600 235.0000 1.0000
17.6800 236.0000 1.0000
17.7000 231.0000 1.0000
17.7200 235.0000 1.0000
17.7400 225.0000 1.0000
17.7600 192.0000 1.0000
17.7800 201.0000 1.0000
17.8000 195.0000 1.0000
17.8200 182.0000 1.0000
17.8400 187.0000 1.0000
17.8600 200.0000 1.0000
17.8800 199.0000 1.0000
17.9000 187.0000 1.0000
17.9200 179.0000 1.0000
17.9400 164.0000 1.0000
17.9600 163.0000 1.0000
17.9800 179.0000 1.0000
18.0000 149.0000 1.0000
18.0200 164.0000 1.0000
18.0400 158.0000 1.0000
18.0600 171.0000 1.0000
18.0800 176.0000 1.0000
18.1000 152.0000 1.0000
18.1200 155.0000 1.0000
18.1400 189.0000 1.0000
18.1600 174.0000 1.0000
18.1800 147.0000 1.0000
18.2000 168.0000 1.0000
18.2200 161.0000 1.0000
18.2400 175.0000 1.0000
18.2600 177.0000 1.0000
18.2800 183.0000 1.0000
18.3000 196.0000 1.0000
18.3200 178.0000 1.0000
18.3400 183.0000 1.0000
18.3600 161.0000 1.0000
18.3800 163.0000 1.0000
18.4000 192.0000 1.0000
18.4200 187.0000 1.0000
18.4400 176.0000 1.0000
18.4600 185.0000 1.0000
18.4800 203.0000 1.0000
18.5000 190.0000 1.0000
18.5200 190.0000 1.0000
18.5400 181.0000 1.0000
18.5600 179.0000 1.0000
18.5800 179.0000 1.0000
18.6000 203.0000 1.0000
18.6200 176.0000 1.0000
18.6400 184.0000 1.0000
18.6600 179.0000 1.0000
18.6800 173.0000 1.0000
18.7000 176.0000 1.0000
18.7200 168.0000 1.0000
18.7400 158.0000 1.0000
18.7600 150.0000 1.0000
18.7800 178.0000 1.0000
18.8000 154.0000 1.0000
18.8200 161.0000 1.0000
18.8400 182.0000 1.0000
18.8600 154.0000 1.0000
18.8800 160.0000 1.0000
18.9000 173.0000 1.0000
18.9200 178.0000 1.0000
18.9400 189.0000 1.0000
18.9600 171.0000 1.0000
18.9800 193.0000 1.0000
19.0000 185.0000 1.0000
19.0200 207.0000 1.0000
19.0400 225.0000 1.0000
19.0600 239.0000 1.0000
19.0800 214.0000 1.0000
19.1000 231.0000 1.0000
19.1200 225.0000 1.0000
19.1400 234.0000 1.0000
19.1600 275.0000 1.0000
19.1800 238.0000 1.0000
19.2000 268.0000 1.0000
19.2200 256.0000 1.0000
19.2400 286.0000 1.0000
19.2600 294.0000 1.0000
19.2800 320.0000 1.0000
19.3000 346.0000 1.0000
19.3200 374.0000 1.0000
19.3400 342.0000 1.0000
19.3600 373.0000 1.0000
19.3800 372.0000 1.0000
19.4000 416.0000 1.0000
19.4200 481.0000 1.0000
19.4400 503.0000 1.0000
19.4600 524.0000 1.0000
19.4800 605.0000 1.0000
19.5000 614.0000 1.0000
19.5200 672.0000 1.0000
19.5400 718.0000 1.0000
19.5600 728.0000 1.0000
19.5800 753.0000 1.0000
19.6000 718.0000 1.0000
19.6200 756.0000 1.0000
19.6400 756.0000 1.0000
19.6600 687.0000 1.0000
19.6800 677.0000 1.0000
19.7000 622.0000 1.0000
19.7200 576.0000 1.0000
19.7400 609.0000 1.0000
19.7600 547.0000 1.0000
19.7800 556.0000 1.0000
19.8000 511.0000 1.0000
19.8200 463.0000 1.0000
19.8400 436.0000 1.0000
19.8600 435.0000 1.0000
19.8800 418.0000 1.0000
19.9000 395.0000 1.0000
19.9200 372.0000 1.0000
19.9400 373.0000 1.0000
19.9600 359.0000 1.0000
19.9800 316.0000 1.0000
20.0000 324.0000 1.0000
20.0200 334.0000 1.0000
20.0400 347.0000 1.0000
20.0600 327.0000 1.0000
20.0800 297.0000 1.0000
20.1000 309.0000 1.0000
20.1200 325.0000 1.0000
20.1400 333.0000 1.0000
20.1600 308.0000 1.0000
20.1800 297.0000 1.0000
20.2000 331.0000 1.0000
20.2200 309.0000 1.0000
20.2400 308.0000 1.0000
20.2600 316.0000 1.0000
20.2800 298.0000 1.0000
20.3000 353.0000 1.0000
20.3200 345.0000 1.0000
20.3400 364.0000 1.0000
20.3600 371.0000 1.0000
20.3800 393.0000 1.0000
20.4000 405.0000 1.0000
20.4200 473.0000 1.0000
20.4400 519.0000 1.0000
20.4600 555.0000 1.0000
20.4800 594.0000 1.0000
20.5000 696.0000 1.0000
20.5200 808.0000 1.0000
20.5400 862.0000 1.0000
20.5600 1014.0000 1.0000
20.5800 1262.0000 1.0000
20.6000 1500.0000 1.0000
20.6200 1771.0000 1.0000
20.6400 1820.0000 1.0000
20.6600 1832.0000 1.0000
20.6800 1919.0000 1.0000
20.7000 1672.0000 1.0000
20.7200 1443.0000 1.0000
20.7400 1128.0000 1.0000
20.7600 865.0000 1.0000
20.7800 653.0000 1.0000
20.8000 470.0000 1.0000
20.8200 391.0000 1.0000
20.8400 316.0000 1.0000
20.8600 331.0000 1.0000
20.8800 276.0000 1.0000
20.9000 293.0000 1.0000
20.9200 266.0000 1.0000
20.9400 280.0000 1.0000
20.9600 261.0000 1.0000
20.9800 259.0000 1.0000
21.0000 270.0000 1.0000
21.0200 282.0000 1.0000
21.0400 261.0000 1.0000
21.0600 246.0000 1.0000
21.0800 205.0000 1.0000
21.1000 255.0000 1.0000
21.1200 258.0000 1.0000
21.1400 222.0000 1.0000
21.1600 224.0000 1.0000
21.1800 223.0000 1.0000
21.2000 241.0000 1.0000
21.2200 224.0000 1.0000
21.2400 228.0000 1.0000
21.2600 220.0000 1.0000
21.2800 231.0000 1.0000
21.3000 256.0000 1.0000
21.3200 251.0000 1.0000
21.3400 231.0000 1.0000
21.3600 257.0000 1.0000
21.3800 221.0000 1.0000
21.4000 236.0000 1.0000
21.4200 221.0000 1.0000
21.4400 216.0000 1.0000
21.4600 224.0000 1.0000
21.4800 247.0000 1.0000
21.5000 234.0000 1.0000
21.5200 225.0000 1.0000
21.5400 259.0000 1.0000
21.5600 212.0000 1.0000
21.5800 239.0000 1.0000
21.6000 286.0000 1.0000
21.6200 310.0000 1.0000
21.6400 287.0000 1.0000
21.6600 338.0000 1.0000
21.6800 352.0000 1.0000
21.7000 363.0000 1.0000
21.7200 415.0000 1.0000
21.7400 429.0000 1.0000
21.7600 539.0000 1.0000
21.7800 662.0000 1.0000
21.8000 675.0000 1.0000
21.8200 716.0000 1.0000
21.8400 714.0000 1.0000
21.8600 707.0000 1.0000
21.8800 590.0000 1.0000
21.9000 527.0000 1.0000
21.9200 470.0000 1.0000
21.9400 358.0000 1.0000
21.9600 323.0000 1.0000
21.9800 274.0000 1.0000
22.0000 256.0000 1.0000
22.0200 247.0000 1.0000
22.0400 223.0000 1.0000
22.0600 226.0000 1.0000
22.0800 216.0000 1.0000
22.1000 226.0000 1.0000
22.1200 207.0000 1.0000
22.1400 208.0000 1.0000
22.1600 190.0000 1.0000
22.1800 226.0000 1.0000
22.2000 239.0000 1.0000
22.2200 197.0000 1.0000
22.2400 219.0000 1.0000
22.2600 199.0000 1.0000
22.2800 190.0000 1.0000
22.3000 206.0000 1.0000
22.3200 195.0000 1.0000
22.3400 223.0000 1.0000
22.3600 202.0000 1.0000
22.3800 208.0000 1.0000
22.4000 201.0000 1.0000
22.4200 221.0000 1.0000
22.4400 201.0000 1.0000
22.4600 218.0000 1.0000
22.4800 212.0000 1.0000
22.5000 220.0000 1.0000
22.5200 229.0000 1.0000
22.5400 225.0000 1.0000
22.5600 237.0000 1.0000
22.5800 220.0000 1.0000
22.6000 232.0000 1.0000
22.6200 234.0000 1.0000
22.6400 261.0000 1.0000
22.6600 275.0000 1.0000
22.6800 282.0000 1.0000
22.7000 270.0000 1.0000
22.7200 290.0000 1.0000
22.7400 318.0000 1.0000
22.7600 304.0000 1.0000
22.7800 323.0000 1.0000
22.8000 311.0000 1.0000
22.8200 320.0000 1.0000
22.8400 324.0000 1.0000
22.8600 330.0000 1.0000
22.8800 327.0000 1.0000
22.9000 294.0000 1.0000
22.9200 268.0000 1.0000
22.9400 251.0000 1.0000
22.9600 239.0000 1.0000
22.9800 246.0000 1.0000
23.0000 250.0000 1.0000
23.0200 235.0000 1.0000
23.0400 204.0000 1.0000
23.0600 218.0000 1.0000
23.0800 242.0000 1.0000
23.1000 265.0000 1.0000
23.1200 257.0000 1.0000
23.1400 258.0000 1.0000
23.1600 232.0000 1.0000
23.1800 282.0000 1.0000
23.2000 303.0000 1.0000
23.2200 291.0000 1.0000
23.2400 342.0000 1.0000
23.2600 357.0000 1.0000
23.2800 386.0000 1.0000
23.3000 371.0000 1.0000
23.3200 447.0000 1.0000
23.3400 485.0000 1.0000
23.3600 477.0000 1.0000
23.3800 498.0000 1.0000
23.4000 453.0000 1.0000
23.4200 440.0000 1.0000
23.4400 427.0000 1.0000
23.4600 420.0000 1.0000
23.4800 393.0000 1.0000
23.5000 348.0000 1.0000
23.5200 321.0000 1.0000
23.5400 284.0000 1.0000
23.5600 269.0000 1.0000
23.5800 293.0000 1.0000
23.6000 287.0000 1.0000
23.6200 272.0000 1.0000
23.6400 288.0000 1.0000
23.6600 289.0000 1.0000
23.6800 308.0000 1.0000
23.7000 289.0000 1.0000
23.7200 289.0000 1.0000
23.7400 293.0000 1.0000
23.7600 295.0000 1.0000
23.7800 316.0000 1.0000
23.8000 326.0000 1.0000
23.8200 341.0000 1.0000
23.8400 350.0000 1.0000
23.8600 346.0000 1.0000
23.8800 374.0000 1.0000
23.9000 439.0000 1.0000
23.9200 489.0000 1.0000
23.9400 500.0000 1.0000
23.9600 537.0000 1.0000
23.9800 566.0000 1.0000
24.0000 617.0000 1.0000
24.0200 578.0000 1.0000
24.0400 612.0000 1.0000
24.0600 603.0000 1.0000
24.0800 528.0000 1.0000
24.1000 501.0000 1.0000
24.1200 492.0000 1.0000
24.1400 462.0000 1.0000
24.1600 415.0000 1.0000
24.1800 400.0000 1.0000
24.2000 368.0000 1.0000
24.2200 352.0000 1.0000
24.2400 330.0000 1.0000
24.2600 290.0000 1.0000
24.2800 287.0000 1.0000
24.3000 281.0000 1.0000
24.3200 283.0000 1.0000
24.3400 280.0000 1.0000
24.3600 262.0000 1.0000
24.3800 266.0000 1.0000
24.4000 258.0000 1.0000
24.4200 244.0000 1.0000
24.4400 271.0000 1.0000
24.4600 246.0000 1.0000
24.4800 238.0000 1.0000
24.5000 260.0000 1.0000
24.5200 294.0000 1.0000
24.5400 270.0000 1.0000
24.5600 252.0000 1.0000
24.5800 271.0000 1.0000
24.6000 278.0000 1.0000
24.6200 283.0000 1.0000
24.6400 298.0000 1.0000
24.6600 282.0000 1.0000
24.6800 291.0000 1.0000
24.7000 286.0000 1.0000
24.7200 309.0000 1.0000
24.7400 311.0000 1.0000
24.7600 310.0000 1.0000
24.7800 339.0000 1.0000
24.8000 334.0000 1.0000
24.8200 364.0000 1.0000
24.8400 353.0000 1.0000
24.8600 374.0000 1.0000
24.8800 371.0000 1.0000
24.9000 368.0000 1.0000
24.9200 382.0000 1.0000
24.9400 377.0000 1.0000
24.9600 388.0000 1.0000
24.9800 404.0000 1.0000
25.0000 419.0000 1.0000
25.0200 405.0000 1.0000
25.0400 437.0000 1.0000
25.0600 435.0000 1.0000
25.0800 437.0000 1.0000
25.1000 435.0000 1.0000
25.1200 464.0000 1.0000
25.1400 514.0000 1.0000
25.1600 565.0000 1.0000
25.1800 571.0000 1.0000
25.2000 596.0000 1.0000
25.2200 666.0000 1.0000
25.2400 737.0000 1.0000
25.2600 793.0000 1.0000
25.2800 900.0000 1.0000
25.3000 1070.0000 1.0000
25.3200 1172.0000 1.0000
25.3400 1273.0000 1.0000
25.3600 1400.0000 1.0000
25.3800 1410.0000 1.0000
25.4000 1397.0000 1.0000
25.4200 1268.0000 1.0000
25.4400 1100.0000 1.0000
25.4600 929.0000 1.0000
25.4800 760.0000 1.0000
25.5000 660.0000 1.0000
25.5200 572.0000 1.0000
25.5400 466.0000 1.0000
25.5600 405.0000 1.0000
25.5800 366.0000 1.0000
25.6000 359.0000 1.0000
25.6200 362.0000 1.0000
25.6400 355.0000 1.0000
25.6600 338.0000 1.0000
25.6800 348.0000 1.0000
25.7000 352.0000 1.0000
25.7200 342.0000 1.0000
25.7400 330.0000 1.0000
25.7600 336.0000 1.0000
25.7800 341.0000 1.0000
25.8000 340.0000 1.0000
25.8200 348.0000 1.0000
25.8400 359.0000 1.0000
25.8600 364.0000 1.0000
25.8800 376.0000 1.0000
25.9000 399.0000 1.0000
25.9200 404.0000 1.0000
25.9400 414.0000 1.0000
25.9600 418.0000 1.0000
25.9800 432.0000 1.0000
26.0000 464.0000 1.0000
26.0200 523.0000 1.0000
26.0400 588.0000 1.0000
26.0600 617.0000 1.0000
26.0800 676.0000 1.0000
26.1000 709.0000 1.0000
26.1200 770.0000 1.0000
26.1400 839.0000 1.0000
26.1600 947.0000 1.0000
26.1800 1094.0000 1.0000
26.2000 1232.0000 1.0000
26.2200 1439.0000 1.0000
26.2400 1669.0000 1.0000
26.2600 2027.0000 1.0000
26.2800 2519.0000 1.0000
26.3000 3062.0000 1.0000
26.3200 3667.0000 1.0000
26.3400 4545.0000 1.0000
26.3600 5604.0000 1.0000
26.3800 6711.0000 1.0000
26.4000 7892.0000 1.0000
26.4200 8595.0000 1.0000
26.4400 8867.0000 1.0000
26.4600 8703.0000 1.0000
26.4800 8035.0000 1.0000
26.5000 6804.0000 1.0000
26.5200 5392.0000 1.0000
26.5400 4142.0000 1.0000
26.5600 3085.0000 1.0000
26.5800 2261.0000 1.0000
26.6000 1731.0000 1.0000
26.6200 1365.0000 1.0000
26.6400 1143.0000 1.0000
26.6600 1038.0000 1.0000
26.6800 928.0000 1.0000
26.7000 841.0000 1.0000
26.7200 794.0000 1.0000
26.7400 757.0000 1.0000
26.7600 705.0000 1.0000
26.7800 654.0000 1.0000
26.8000 628.0000 1.0000
26.8200 603.0000 1.0000
26.8400 565.0000 1.0000
26.8600 519.0000 1.0000
26.8800 499.0000 1.0000
26.9000 501.0000 1.0000
26.9200 485.0000 1.0000
26.9400 480.0000 1.0000
26.9600 462.0000 1.0000
26.9800 433.0000 1.0000
27.0000 413.0000 1.0000
27.0200 389.0000 1.0000
27.0400 394.0000 1.0000
27.0600 392.0000 1.0000
27.0800 369.0000 1.0000
27.1000 370.0000 1.0000
27.1200 384.0000 1.0000
27.1400 382.0000 1.0000
27.1600 375.0000 1.0000
27.1800 376.0000 1.0000
27.2000 383.0000 1.0000
27.2200 411.0000 1.0000
27.2400 429.0000 1.0000
27.2600 431.0000 1.0000
27.2800 457.0000 1.0000
27.3000 486.0000 1.0000
27.3200 507.0000 1.0000
27.3400 534.0000 1.0000
27.3600 542.0000 1.0000
27.3800 551.0000 1.0000
27.4000 583.0000 1.0000
27.4200 634.0000 1.0000
27.4400 692.0000 1.0000
27.4600 743.0000 1.0000
27.4800 773.0000 1.0000
27.5000 799.0000 1.0000
27.5200 837.0000 1.0000
27.5400 874.0000 1.0000
27.5600 922.0000 1.0000
27.5800 955.0000 1.0000
27.6000 977.0000 1.0000
27.6200 980.0000 1.0000
27.6400 1000.0000 1.0000
27.6600 1084.0000 1.0000
27.6800 1183.0000 1.0000
27.7000 1283.0000 1.0000
27.7200 1379.0000 1.0000
27.7400 1450.0000 1.0000
27.7600 1399.0000 1.0000
27.7800 1290.0000 1.0000
27.8000 1228.0000 1.0000
27.8200 1104.0000 1.0000
27.8400 959.0000 1.0000
27.8600 866.0000 1.0000
27.8800 772.0000 1.0000
27.9000 708.0000 1.0000
27.9200 671.0000 1.0000
27.9400 654.0000 1.0000
27.9600 660.0000 1.0000
27.9800 631.0000 1.0000
28.0000 594.0000 1.0000
28.0200 578.0000 1.0000
28.0400 582.0000 1.0000
28.0600 555.0000 1.0000
28.0800 489.0000 1.0000
28.1000 449.0000 1.0000
28.1200 437.0000 1.0000
28.1400 401.0000 1.0000
28.1600 365.0000 1.0000
28.1800 348.0000 1.0000
28.2000 315.0000 1.0000
28.2200 285.0000 1.0000
28.2400 276.0000 1.0000
28.2600 286.0000 1.0000
28.2800 277.0000 1.0000
28.3000 247.0000 1.0000
28.3200 243.0000 1.0000
28.3400 242.0000 1.0000
28.3600 249.0000 1.0000
28.3800 236.0000 1.0000
28.4000 224.0000 1.0000
28.4200 239.0000 1.0000
28.4400 243.0000 1.0000
28.4600 243.0000 1.0000
28.4800 232.0000 1.0000
28.5000 236.0000 1.0000
28.5200 232.0000 1.0000
28.5400 218.0000 1.0000
28.5600 216.0000 1.0000
28.5800 215.0000 1.0000
28.6000 209.0000 1.0000
28.6200 215.0000 1.0000
28.6400 240.0000 1.0000
28.6600 235.0000 1.0000
28.6800 231.0000 1.0000
28.7000 238.0000 1.0000
28.7200 246.0000 1.0000
28.7400 261.0000 1.0000
28.7600 248.0000 1.0000
28.7800 235.0000 1.0000
28.8000 231.0000 1.0000
28.8200 242.0000 1.0000
28.8400 231.0000 1.0000
28.8600 223.0000 1.0000
28.8800 225.0000 1.0000
28.9000 227.0000 1.0000
28.9200 234.0000 1.0000
28.9400 239.0000 1.0000
28.9600 238.0000 1.0000
28.9800 237.0000 1.0000
29.0000 229.0000 1.0000
29.0200 237.0000 1.0000
29.0400 257.0000 1.0000
29.0600 270.0000 1.0000
29.0800 275.0000 1.0000
29.1000 278.0000 1.0000
29.1200 261.0000 1.0000
29.1400 253.0000 1.0000
29.1600 264.0000 1.0000
29.1800 282.0000 1.0000
29.2000 276.0000 1.0000
29.2200 278.0000 1.0000
29.2400 276.0000 1.0000
29.2600 265.0000 1.0000
29.2800 264.0000 1.0000
29.3000 254.0000 1.0000
29.3200 261.0000 1.0000
29.3400 278.0000 1.0000
29.3600 274.0000 1.0000
29.3800 271.0000 1.0000
29.4000 259.0000 1.0000
29.4200 270.0000 1.0000
29.4400 279.0000 1.0000
29.4600 290.0000 1.0000
29.4800 282.0000 1.0000
29.5000 302.0000 1.0000
29.5200 319.0000 1.0000
29.5400 321.0000 1.0000
29.5600 340.0000 1.0000
29.5800 324.0000 1.0000
29.6000 314.0000 1.0000
29.6200 326.0000 1.0000
29.6400 372.0000 1.0000
29.6600 366.0000 1.0000
29.6800 377.0000 1.0000
29.7000 380.0000 1.0000
29.7200 397.0000 1.0000
29.7400 380.0000 1.0000
29.7600 389.0000 1.0000
29.7800 408.0000 1.0000
29.8000 387.0000 1.0000
29.8200 392.0000 1.0000
29.8400 414.0000 1.0000
29.8600 364.0000 1.0000
29.8800 348.0000 1.0000
29.9000 360.0000 1.0000
29.9200 348.0000 1.0000
29.9400 353.0000 1.0000
29.9600 321.0000 1.0000
29.9800 324.0000 1.0000
30.0000 325.0000 1.0000
30.0200 320.0000 1.0000
30.0400 337.0000 1.0000
30.0600 324.0000 1.0000
30.0800 338.0000 1.0000
30.1000 362.0000 1.0000
30.1200 324.0000 1.0000
30.1400 325.0000 1.0000
30.1600 340.0000 1.0000
30.1800 362.0000 1.0000
30.2000 382.0000 1.0000
30.2200 399.0000 1.0000
30.2400 392.0000 1.0000
30.2600 405.0000 1.0000
30.2800 428.0000 1.0000
30.3000 396.0000 1.0000
30.3200 384.0000 1.0000
30.3400 343.0000 1.0000
30.3600 320.0000 1.0000
30.3800 294.0000 1.0000
30.4000 274.0000 1.0000
30.4200 271.0000 1.0000
30.4400 274.0000 1.0000
30.4600 238.0000 1.0000
30.4800 243.0000 1.0000
30.5000 239.0000 1.0000
30.5200 224.0000 1.0000
30.5400 241.0000 1.0000
30.5600 255.0000 1.0000
30.5800 257.0000 1.0000
30.6000 251.0000 1.0000
30.6200 252.0000 1.0000
30.6400 236.0000 1.0000
30.6600 231.0000 1.0000
30.6800 229.0000 1.0000
30.7000 236.0000 1.0000
30.7200 240.0000 1.0000
30.7400 223.0000 1.0000
30.7600 225.0000 1.0000
30.7800 237.0000 1.0000
30.8000 241.0000 1.0000
30.8200 224.0000 1.0000
30.8400 237.0000 1.0000
30.8600 229.0000 1.0000
30.8800 233.0000 1.0000
30.9000 251.0000 1.0000
30.9200 226.0000 1.0000
30.9400 250.0000 1.0000
30.9600 266.0000 1.0000
30.9800 262.0000 1.0000
31.0000 273.0000 1.0000
31.0200 312.0000 1.0000
31.0400 299.0000 1.0000
31.0600 291.0000 1.0000
31.0800 313.0000 1.0000
31.1000 306.0000 1.0000
31.1200 313.0000 1.0000
31.1400 315.0000 1.0000
31.1600 319.0000 1.0000
31.1800 295.0000 1.0000
31.2000 286.0000 1.0000
31.2200 288.0000 1.0000
31.2400 281.0000 1.0000
31.2600 286.0000 1.0000
31.2800 278.0000 1.0000
31.3000 284.0000 1.0000
31.3200 296.0000 1.0000
31.3400 280.0000 1.0000
31.3600 281.0000 1.0000
31.3800 269.0000 1.0000
31.4000 276.0000 1.0000
31.4200 272.0000 1.0000
31.4400 269.0000 1.0000
31.4600 246.0000 1.0000
31.4800 247.0000 1.0000
31.5000 257.0000 1.0000
31.5200 246.0000 1.0000
31.5400 233.0000 1.0000
31.5600 221.0000 1.0000
31.5800 218.0000 1.0000
31.6000 227.0000 1.0000
31.6200 221.0000 1.0000
31.6400 212.0000 1.0000
31.6600 223.0000 1.0000
31.6800 205.0000 1.0000
31.7000 217.0000 1.0000
31.7200 209.0000 1.0000
31.7400 187.0000 1.0000
31.7600 198.0000 1.0000
31.7800 202.0000 1.0000
31.8000 197.0000 1.0000
31.8200 197.0000 1.0000
31.8400 181.0000 1.0000
31.8600 182.0000 1.0000
31.8800 183.0000 1.0000
31.9000 173.0000 1.0000
31.9200 179.0000 1.0000
31.9400 171.0000 1.0000
31.9600 176.0000 1.0000
31.9800 174.0000 1.0000
32.0000 171.0000 1.0000
32.0200 175.0000 1.0000
32.0400 168.0000 1.0000
32.0600 170.0000 1.0000
32.0800 148.0000 1.0000
32.1000 150.0000 1.0000
32.1200 171.0000 1.0000
32.1400 152.0000 1.0000
32.1600 132.0000 1.0000
32.1800 151.0000 1.0000
32.2000 168.0000 1.0000
32.2200 151.0000 1.0000
32.2400 152.0000 1.0000
32.2600 152.0000 1.0000
32.2800 143.0000 1.0000
32.3000 145.0000 1.0000
32.3200 141.0000 1.0000
32.3400 127.0000 1.0000
32.3600 136.0000 1.0000
32.3800 127.0000 1.0000
32.4000 129.0000 1.0000
32.4200 147.0000 1.0000
32.4400 150.0000 1.0000
32.4600 147.0000 1.0000
32.4800 151.0000 1.0000
32.5000 139.0000 1.0000
32.5200 130.0000 1.0000
32.5400 128.0000 1.0000
32.5600 131.0000 1.0000
32.5800 118.0000 1.0000
32.6000 125.0000 1.0000
32.6200 137.0000 1.0000
32.6400 125.0000 1.0000
32.6600 118.0000 1.0000
32.6800 144.0000 1.0000
32.7000 138.0000 1.0000
32.7200 126.0000 1.0000
32.7400 129.0000 1.0000
32.7600 128.0000 1.0000
32.7800 121.0000 1.0000
32.8000 132.0000 1.0000
32.8200 126.0000 1.0000
32.8400 129.0000 1.0000
32.8600 128.0000 1.0000
32.8800 118.0000 1.0000
32.9000 124.0000 1.0000
32.9200 131.0000 1.0000
32.9400 120.0000 1.0000
32.9600 123.0000 1.0000
32.9800 125.0000 1.0000
33.0000 119.0000 1.0000
33.0200 137.0000 1.0000
33.0400 142.0000 1.0000
33.0600 122.0000 1.0000
33.0800 126.0000 1.0000
33.1000 145.0000 1.0000
33.1200 132.0000 1.0000
33.1400 133.0000 1.0000
33.1600 138.0000 1.0000
33.1800 148.0000 1.0000
33.2000 143.0000 1.0000
33.2200 146.0000 1.0000
33.2400 139.0000 1.0000
33.2600 135.0000 1.0000
33.2800 151.0000 1.0000
33.3000 153.0000 1.0000
33.3200 132.0000 1.0000
33.3400 150.0000 1.0000
33.3600 156.0000 1.0000
33.3800 146.0000 1.0000
33.4000 162.0000 1.0000
33.4200 167.0000 1.0000
33.4400 162.0000 1.0000
33.4600 156.0000 1.0000
33.4800 181.0000 1.0000
33.5000 161.0000 1.0000
33.5200 156.0000 1.0000
33.5400 152.0000 1.0000
33.5600 177.0000 1.0000
33.5800 208.0000 1.0000
33.6000 197.0000 1.0000
33.6200 181.0000 1.0000
33.6400 212.0000 1.0000
33.6600 183.0000 1.0000
33.6800 186.0000 1.0000
33.7000 205.0000 1.0000
33.7200 207.0000 1.0000
33.7400 229.0000 1.0000
33.7600 227.0000 1.0000
33.7800 196.0000 1.0000
33.8000 221.0000 1.0000
33.8200 212.0000 1.0000
33.8400 225.0000 1.0000
33.8600 211.0000 1.0000
33.8800 191.0000 1.0000
33.9000 173.0000 1.0000
33.9200 195.0000 1.0000
33.9400 195.0000 1.0000
33.9600 227.0000 1.0000
33.9800 199.0000 1.0000
34.0000 225.0000 1.0000
34.0200 210.0000 1.0000
34.0400 215.0000 1.0000
34.0600 235.0000 1.0000
34.0800 224.0000 1.0000
34.1000 249.0000 1.0000
34.1200 257.0000 1.0000
34.1400 301.0000 1.0000
34.1600 290.0000 1.0000
34.1800 310.0000 1.0000
34.2000 291.0000 1.0000
34.2200 339.0000 1.0000
34.2400 337.0000 1.0000
34.2600 403.0000 1.0000
34.2800 366.0000 1.0000
34.3000 405.0000 1.0000
34.3200 421.0000 1.0000
34.3400 477.0000 1.0000
34.3600 499.0000 1.0000
34.3800 512.0000 1.0000
34.4000 524.0000 1.0000
34.4200 533.0000 1.0000
34.4400 556.0000 1.0000
34.4600 567.0000 1.0000
34.4800 633.0000 1.0000
34.5000 588.0000 1.0000
34.5200 610.0000 1.0000
34.5400 627.0000 1.0000
34.5600 618.0000 1.0000
34.5800 660.0000 1.0000
34.6000 627.0000 1.0000
34.6200 660.0000 1.0000
34.6400 697.0000 1.0000
34.6600 697.0000 1.0000
34.6800 660.0000 1.0000
34.7000 703.0000 1.0000
34.7200 719.0000 1.0000
34.7400 794.0000 1.0000
34.7600 866.0000 1.0000
34.7800 864.0000 1.0000
34.8000 1000.0000 1.0000
34.8200 1149.0000 1.0000
34.8400 1215.0000 1.0000
34.8600 1335.0000 1.0000
34.8800 1553.0000 1.0000
34.9000 1725.0000 1.0000
34.9200 1910.0000 1.0000
34.9400 1990.0000 1.0000
34.9600 2015.0000 1.0000
34.9800 1996.0000 1.0000
35.0000 1865.0000 1.0000
35.0200 1573.0000 1.0000
35.0400 1379.0000 1.0000
35.0600 1214.0000 1.0000
35.0800 1072.0000 1.0000
35.1000 822.0000 1.0000
35.1200 645.0000 1.0000
35.1400 522.0000 1.0000
35.1600 455.0000 1.0000
35.1800 392.0000 1.0000
35.2000 322.0000 1.0000
35.2200 354.0000 1.0000
35.2400 299.0000 1.0000
35.2600 290.0000 1.0000
35.2800 316.0000 1.0000
35.3000 289.0000 1.0000
35.3200 284.0000 1.0000
35.3400 272.0000 1.0000
35.3600 277.0000 1.0000
35.3800 242.0000 1.0000
35.4000 243.0000 1.0000
35.4200 207.0000 1.0000
35.4400 239.0000 1.0000
35.4600 207.0000 1.0000
35.4800 228.0000 1.0000
35.5000 227.0000 1.0000
35.5200 248.0000 1.0000
35.5400 245.0000 1.0000
35.5600 200.0000 1.0000
35.5800 223.0000 1.0000
35.6000 234.0000 1.0000
35.6200 215.0000 1.0000
35.6400 207.0000 1.0000
35.6600 229.0000 1.0000
35.6800 238.0000 1.0000
35.7000 230.0000 1.0000
35.7200 234.0000 1.0000
35.7400 240.0000 1.0000
35.7600 239.0000 1.0000
35.7800 214.0000 1.0000
35.8000 207.0000 1.0000
35.8200 206.0000 1.0000
35.8400 214.0000 1.0000
35.8600 222.0000 1.0000
35.8800 227.0000 1.0000
35.9000 225.0000 1.0000
35.9200 229.0000 1.0000
35.9400 228.0000 1.0000
35.9600 233.0000 1.0000
35.9800 237.0000 1.0000
36.0000 224.0000 1.0000
36.0200 241.0000 1.0000
36.0400 243.0000 1.0000
36.0600 244.0000 1.0000
36.0800 263.0000 1.0000
36.1000 270.0000 1.0000
36.1200 275.0000 1.0000
36.1400 289.0000 1.0000
36.1600 317.0000 1.0000
36.1800 360.0000 1.0000
36.2000 395.0000 1.0000
36.2200 435.0000 1.0000
36.2400 510.0000 1.0000
36.2600 597.0000 1.0000
36.2800 686.0000 1.0000
36.3000 763.0000 1.0000
36.3200 822.0000 1.0000
36.3400 846.0000 1.0000
36.3600 899.0000 1.0000
36.3800 866.0000 1.0000
36.4000 836.0000 1.0000
36.4200 761.0000 1.0000
36.4400 723.0000 1.0000
36.4600 620.0000 1.0000
36.4800 581.0000 1.0000
36.5000 488.0000 1.0000
36.5200 434.0000 1.0000
36.5400 396.0000 1.0000
36.5600 365.0000 1.0000
36.5800 333.0000 1.0000
36.6000 364.0000 1.0000
36.6200 317.0000 1.0000
36.6400 292.0000 1.0000
36.6600 302.0000 1.0000
36.6800 292.0000 1.0000
36.7000 274.0000 1.0000
36.7200 303.0000 1.0000
36.7400 285.0000 1.0000
36.7600 287.0000 1.0000
36.7800 304.0000 1.0000
36.8000 286.0000 1.0000
36.8200 285.0000 1.0000
36.8400 274.0000 1.0000
36.8600 251.0000 1.0000
36.8800 259.0000 1.0000
36.9000 267.0000 1.0000
36.9200 261.0000 1.0000
36.9400 250.0000 1.0000
36.9600 262.0000 1.0000
36.9800 285.0000 1.0000
37.0000 255.0000 1.0000
37.0200 266.0000 1.0000
37.0400 272.0000 1.0000
37.0600 279.0000 1.0000
37.0800 279.0000 1.0000
37.1000 261.0000 1.0000
37.1200 279.0000 1.0000
37.1400 299.0000 1.0000
37.1600 314.0000 1.0000
37.1800 305.0000 1.0000
37.2000 323.0000 1.0000
37.2200 319.0000 1.0000
37.2400 309.0000 1.0000
37.2600 316.0000 1.0000
37.2800 331.0000 1.0000
37.3000 380.0000 1.0000
37.3200 351.0000 1.0000
37.3400 350.0000 1.0000
37.3600 361.0000 1.0000
37.3800 378.0000 1.0000
37.4000 389.0000 1.0000
37.4200 394.0000 1.0000
37.4400 452.0000 1.0000
37.4600 492.0000 1.0000
37.4800 583.0000 1.0000
37.5000 624.0000 1.0000
37.5200 728.0000 1.0000
37.5400 785.0000 1.0000
37.5600 895.0000 1.0000
37.5800 932.0000 1.0000
37.6000 901.0000 1.0000
37.6200 861.0000 1.0000
37.6400 814.0000 1.0000
37.6600 743.0000 1.0000
37.6800 625.0000 1.0000
37.7000 512.0000 1.0000
37.7200 485.0000 1.0000
37.7400 410.0000 1.0000
37.7600 352.0000 1.0000
37.7800 294.0000 1.0000
37.8000 245.0000 1.0000
37.8200 230.0000 1.0000
37.8400 232.0000 1.0000
37.8600 218.0000 1.0000
37.8800 198.0000 1.0000
37.9000 201.0000 1.0000
37.9200 202.0000 1.0000
37.9400 207.0000 1.0000
37.9600 181.0000 1.0000
37.9800 168.0000 1.0000
38.0000 184.0000 1.0000
38.0200 173.0000 1.0000
38.0400 159.0000 1.0000
38.0600 160.0000 1.0000
38.0800 161.0000 1.0000
38.1000 149.0000 1.0000
38.1200 147.0000 1.0000
38.1400 169.0000 1.0000
38.1600 167.0000 1.0000
38.1800 152.0000 1.0000
38.2000 140.0000 1.0000
38.2200 144.0000 1.0000
38.2400 151.0000 1.0000
38.2600 158.0000 1.0000
38.2800 158.0000 1.0000
38.3000 158.0000 1.0000
38.3200 153.0000 1.0000
38.3400 149.0000 1.0000
38.3600 145.0000 1.0000
38.3800 138.0000 1.0000
38.4000 133.0000 1.0000
38.4200 139.0000 1.0000
38.4400 135.0000 1.0000
38.4600 133.0000 1.0000
38.4800 154.0000 1.0000
38.5000 144.0000 1.0000
38.5200 138.0000 1.0000
38.5400 137.0000 1.0000
38.5600 144.0000 1.0000
38.5800 159.0000 1.0000
38.6000 160.0000 1.0000
38.6200 159.0000 1.0000
38.6400 153.0000 1.0000
38.6600 173.0000 1.0000
38.6800 170.0000 1.0000
38.7000 153.0000 1.0000
38.7200 161.0000 1.0000
38.7400 158.0000 1.0000
38.7600 176.0000 1.0000
38.7800 174.0000 1.0000
38.8000 138.0000 1.0000
38.8200 161.0000 1.0000
38.8400 178.0000 1.0000
38.8600 162.0000 1.0000
38.8800 150.0000 1.0000
38.9000 163.0000 1.0000
38.9200 155.0000 1.0000
38.9400 149.0000 1.0000
38.9600 151.0000 1.0000
38.9800 155.0000 1.0000
39.0000 146.0000 1.0000
39.0200 156.0000 1.0000
39.0400 174.0000 1.0000
39.0600 198.0000 1.0000
39.0800 202.0000 1.0000
39.1000 210.0000 1.0000
39.1200 246.0000 1.0000
39.1400 292.0000 1.0000
39.1600 313.0000 1.0000
39.1800 375.0000 1.0000
39.2000 476.0000 1.0000
39.2200 564.0000 1.0000
39.2400 623.0000 1.0000
39.2600 663.0000 1.0000
39.2800 689.0000 1.0000
39.3000 656.0000 1.0000
39.3200 626.0000 1.0000
39.3400 586.0000 1.0000
39.3600 525.0000 1.0000
39.3800 474.0000 1.0000
39.4000 415.0000 1.0000
39.4200 377.0000 1.0000
39.4400 322.0000 1.0000
39.4600 273.0000 1.0000
39.4800 249.0000 1.0000
39.5000 210.0000 1.0000
39.5200 186.0000 1.0000
39.5400 206.0000 1.0000
39.5600 192.0000 1.0000
39.5800 187.0000 1.0000
39.6000 199.0000 1.0000
39.6200 196.0000 1.0000
39.6400 200.0000 1.0000
39.6600 197.0000 1.0000
39.6800 177.0000 1.0000
39.7000 175.0000 1.0000
39.7200 190.0000 1.0000
39.7400 197.0000 1.0000
39.7600 202.0000 1.0000
39.7800 194.0000 1.0000
39.8000 202.0000 1.0000
39.8200 219.0000 1.0000
39.8400 221.0000 1.0000
39.8600 228.0000 1.0000
39.8800 223.0000 1.0000
39.9000 230.0000 1.0000
39.9200 256.0000 1.0000
39.9400 257.0000 1.0000
39.9600 253.0000 1.0000
39.9800 276.0000 1.0000
40.0000 296.0000 1.0000
40.0200 327.0000 1.0000
40.0400 352.0000 1.0000
40.0600 357.0000 1.0000
40.0800 374.0000 1.0000
40.1000 401.0000 1.0000
40.1200 418.0000 1.0000
40.1400 402.0000 1.0000
40.1600 380.0000 1.0000
40.1800 347.0000 1.0000
40.2000 301.0000 1.0000
40.2200 266.0000 1.0000
40.2400 245.0000 1.0000
40.2600 230.0000 1.0000
40.2800 205.0000 1.0000
40.3000 195.0000 1.0000
40.3200 206.0000 1.0000
40.3400 184.0000 1.0000
40.3600 170.0000 1.0000
40.3800 180.0000 1.0000
40.4000 190.0000 1.0000
40.4200 194.0000 1.0000
40.4400 183.0000 1.0000
40.4600 169.0000 1.0000
40.4800 166.0000 1.0000
40.5000 174.0000 1.0000
40.5200 174.0000 1.0000
40.5400 166.0000 1.0000
40.5600 170.0000 1.0000
40.5800 173.0000 1.0000
40.6000 177.0000 1.0000
40.6200 187.0000 1.0000
40.6400 175.0000 1.0000
40.6600 166.0000 1.0000
40.6800 179.0000 1.0000
40.7000 186.0000 1.0000
40.7200 174.0000 1.0000
40.7400 170.0000 1.0000
40.7600 169.0000 1.0000
40.7800 183.0000 1.0000
40.8000 185.0000 1.0000
40.8200 184.0000 1.0000
40.8400 189.0000 1.0000
40.8600 174.0000 1.0000
40.8800 171.0000 1.0000
40.9000 182.0000 1.0000
40.9200 194.0000 1.0000
40.9400 191.0000 1.0000
40.9600 180.0000 1.0000
40.9800 187.0000 1.0000
41.0000 203.0000 1.0000
41.0200 194.0000 1.0000
41.0400 195.0000 1.0000
41.0600 186.0000 1.0000
41.0800 183.0000 1.0000
41.1000 189.0000 1.0000
41.1200 186.0000 1.0000
41.1400 178.0000 1.0000
41.1600 174.0000 1.0000
41.1800 177.0000 1.0000
41.2000 169.0000 1.0000
41.2200 160.0000 1.0000
41.2400 154.0000 1.0000
41.2600 168.0000 1.0000
41.2800 156.0000 1.0000
41.3000 158.0000 1.0000
41.3200 174.0000 1.0000
41.3400 150.0000 1.0000
41.3600 145.0000 1.0000
41.3800 167.0000 1.0000
41.4000 171.0000 1.0000
41.4200 168.0000 1.0000
41.4400 179.0000 1.0000
41.4600 193.0000 1.0000
41.4800 205.0000 1.0000
41.5000 175.0000 1.0000
41.5200 165.0000 1.0000
41.5400 179.0000 1.0000
41.5600 189.0000 1.0000
41.5800 201.0000 1.0000
41.6000 196.0000 1.0000
41.6200 183.0000 1.0000
41.6400 173.0000 1.0000
41.6600 183.0000 1.0000
41.6800 200.0000 1.0000
41.7000 208.0000 1.0000
41.7200 192.0000 1.0000
41.7400 203.0000 1.0000
41.7600 215.0000 1.0000
41.7800 201.0000 1.0000
41.8000 204.0000 1.0000
41.8200 226.0000 1.0000
41.8400 210.0000 1.0000
41.8600 201.0000 1.0000
41.8800 229.0000 1.0000
41.9000 218.0000 1.0000
41.9200 218.0000 1.0000
41.9400 217.0000 1.0000
41.9600 230.0000 1.0000
41.9800 235.0000 1.0000
42.0000 229.0000 1.0000
42.0200 242.0000 1.0000
42.0400 260.0000 1.0000
42.0600 257.0000 1.0000
42.0800 288.0000 1.0000
42.1000 315.0000 1.0000
42.1200 339.0000 1.0000
42.1400 370.0000 1.0000
42.1600 460.0000 1.0000
42.1800 493.0000 1.0000
42.2000 533.0000 1.0000
42.2200 611.0000 1.0000
42.2400 623.0000 1.0000
42.2600 621.0000 1.0000
42.2800 626.0000 1.0000
42.3000 599.0000 1.0000
42.3200 585.0000 1.0000
42.3400 510.0000 1.0000
42.3600 493.0000 1.0000
42.3800 442.0000 1.0000
42.4000 387.0000 1.0000
42.4200 361.0000 1.0000
42.4400 303.0000 1.0000
42.4600 263.0000 1.0000
42.4800 272.0000 1.0000
42.5000 244.0000 1.0000
42.5200 226.0000 1.0000
42.5400 229.0000 1.0000
42.5600 203.0000 1.0000
42.5800 206.0000 1.0000
42.6000 222.0000 1.0000
42.6200 222.0000 1.0000
42.6400 215.0000 1.0000
42.6600 244.0000 1.0000
42.6800 206.0000 1.0000
42.7000 204.0000 1.0000
42.7200 215.0000 1.0000
42.7400 231.0000 1.0000
42.7600 229.0000 1.0000
42.7800 220.0000 1.0000
42.8000 228.0000 1.0000
42.8200 243.0000 1.0000
42.8400 239.0000 1.0000
42.8600 257.0000 1.0000
42.8800 247.0000 1.0000
42.9000 270.0000 1.0000
42.9200 310.0000 1.0000
42.9400 322.0000 1.0000
42.9600 364.0000 1.0000
42.9800 396.0000 1.0000
43.0000 464.0000 1.0000
43.0200 542.0000 1.0000
43.0400 658.0000 1.0000
43.0600 841.0000 1.0000
43.0800 1020.0000 1.0000
43.1000 1239.0000 1.0000
43.1200 1465.0000 1.0000
43.1400 1633.0000 1.0000
43.1600 1693.0000 1.0000
43.1800 1729.0000 1.0000
43.2000 1621.0000 1.0000
43.2200 1530.0000 1.0000
43.2400 1409.0000 1.0000
43.2600 1223.0000 1.0000
43.2800 1123.0000 1.0000
43.3000 968.0000 1.0000
43.3200 826.0000 1.0000
43.3400 690.0000 1.0000
43.3600 509.0000 1.0000
43.3800 421.0000 1.0000
43.4000 316.0000 1.0000
43.4200 256.0000 1.0000
43.4400 250.0000 1.0000
43.4600 237.0000 1.0000
43.4800 229.0000 1.0000
43.5000 220.0000 1.0000
43.5200 187.0000 1.0000
43.5400 173.0000 1.0000
43.5600 204.0000 1.0000
43.5800 190.0000 1.0000
43.6000 179.0000 1.0000
43.6200 176.0000 1.0000
43.6400 183.0000 1.0000
43.6600 200.0000 1.0000
43.6800 179.0000 1.0000
43.7000 188.0000 1.0000
43.7200 184.0000 1.0000
43.7400 178.0000 1.0000
43.7600 174.0000 1.0000
43.7800 174.0000 1.0000
43.8000 166.0000 1.0000
43.8200 178.0000 1.0000
43.8400 176.0000 1.0000
43.8600 167.0000 1.0000
43.8800 168.0000 1.0000
43.9000 172.0000 1.0000
43.9200 163.0000 1.0000
43.9400 168.0000 1.0000
43.9600 176.0000 1.0000
43.9800 161.0000 1.0000
44.0000 159.0000 1.0000
44.0200 156.0000 1.0000
44.0400 169.0000 1.0000
44.0600 145.0000 1.0000
44.0800 160.0000 1.0000
44.1000 157.0000 1.0000
44.1200 163.0000 1.0000
44.1400 147.0000 1.0000
44.1600 143.0000 1.0000
44.1800 156.0000 1.0000
44.2000 154.0000 1.0000
44.2200 135.0000 1.0000
44.2400 166.0000 1.0000
44.2600 154.0000 1.0000
44.2800 173.0000 1.0000
44.3000 136.0000 1.0000
44.3200 166.0000 1.0000
44.3400 163.0000 1.0000
44.3600 169.0000 1.0000
44.3800 159.0000 1.0000
44.4000 160.0000 1.0000
44.4200 165.0000 1.0000
44.4400 178.0000 1.0000
44.4600 151.0000 1.0000
44.4800 141.0000 1.0000
44.5000 153.0000 1.0000
44.5200 149.0000 1.0000
44.5400 152.0000 1.0000
44.5600 142.0000 1.0000
44.5800 164.0000 1.0000
44.6000 156.0000 1.0000
44.6200 157.0000 1.0000
44.6400 166.0000 1.0000
44.6600 163.0000 1.0000
44.6800 180.0000 1.0000
44.7000 168.0000 1.0000
44.7200 165.0000 1.0000
44.7400 163.0000 1.0000
44.7600 182.0000 1.0000
44.7800 180.0000 1.0000
44.8000 202.0000 1.0000
44.8200 197.0000 1.0000
44.8400 207.0000 1.0000
44.8600 187.0000 1.0000
44.8800 196.0000 1.0000
44.9000 219.0000 1.0000
44.9200 191.0000 1.0000
44.9400 208.0000 1.0000
44.9600 210.0000 1.0000
44.9800 245.0000 1.0000
45.0000 231.0000 1.0000
45.0200 242.0000 1.0000
45.0400 236.0000 1.0000
45.0600 249.0000 1.0000
45.0800 234.0000 1.0000
45.1000 233.0000 1.0000
45.1200 273.0000 1.0000
45.1400 241.0000 1.0000
45.1600 249.0000 1.0000
45.1800 308.0000 1.0000
45.2000 232.0000 1.0000
45.2200 254.0000 1.0000
45.2400 259.0000 1.0000
45.2600 234.0000 1.0000
45.2800 255.0000 1.0000
45.3000 226.0000 1.0000
45.3200 257.0000 1.0000
45.3400 247.0000 1.0000
45.3600 263.0000 1.0000
45.3800 247.0000 1.0000
45.4000 228.0000 1.0000
45.4200 255.0000 1.0000
45.4400 243.0000 1.0000
45.4600 278.0000 1.0000
45.4800 260.0000 1.0000
45.5000 318.0000 1.0000
45.5200 329.0000 1.0000
45.5400 324.0000 1.0000
45.5600 403.0000 1.0000
45.5800 403.0000 1.0000
45.6000 435.0000 1.0000
45.6200 453.0000 1.0000
45.6400 413.0000 1.0000
45.6600 371.0000 1.0000
45.6800 388.0000 1.0000
45.7000 367.0000 1.0000
45.7200 342.0000 1.0000
45.7400 284.0000 1.0000
45.7600 284.0000 1.0000
45.7800 257.0000 1.0000
45.8000 252.0000 1.0000
45.8200 218.0000 1.0000
45.8400 216.0000 1.0000
45.8600 197.0000 1.0000
45.8800 177.0000 1.0000
45.9000 188.0000 1.0000
45.9200 196.0000 1.0000
45.9400 196.0000 1.0000
45.9600 184.0000 1.0000
45.9800 172.0000 1.0000
46.0000 190.0000 1.0000
46.0200 166.0000 1.0000
46.0400 158.0000 1.0000
46.0600 169.0000 1.0000
46.0800 182.0000 1.0000
46.1000 154.0000 1.0000
46.1200 167.0000 1.0000
46.1400 167.0000 1.0000
46.1600 137.0000 1.0000
46.1800 147.0000 1.0000
46.2000 146.0000 1.0000
46.2200 140.0000 1.0000
46.2400 142.0000 1.0000
46.2600 135.0000 1.0000
46.2800 137.0000 1.0000
46.3000 129.0000 1.0000
46.3200 125.0000 1.0000
46.3400 120.0000 1.0000
46.3600 117.0000 1.0000
46.3800 125.0000 1.0000
46.4000 123.0000 1.0000
46.4200 135.0000 1.0000
46.4400 144.0000 1.0000
46.4600 141.0000 1.0000
46.4800 123.0000 1.0000
46.5000 129.0000 1.0000
46.5200 140.0000 1.0000
46.5400 101.0000 1.0000
46.5600 121.0000 1.0000
46.5800 142.0000 1.0000
46.6000 133.0000 1.0000
46.6200 111.0000 1.0000
46.6400 129.0000 1.0000
46.6600 120.0000 1.0000
46.6800 114.0000 1.0000
46.7000 124.0000 1.0000
46.7200 120.0000 1.0000
46.7400 111.0000 1.0000
46.7600 112.0000 1.0000
46.7800 126.0000 1.0000
46.8000 128.0000 1.0000
46.8200 122.0000 1.0000
46.8400 119.0000 1.0000
46.8600 130.0000 1.0000
46.8800 128.0000 1.0000
46.9000 135.0000 1.0000
46.9200 123.0000 1.0000
46.9400 103.0000 1.0000
46.9600 103.0000 1.0000
46.9800 114.0000 1.0000
47.0000 117.0000 1.0000
47.0200 112.0000 1.0000
47.0400 110.0000 1.0000
47.0600 110.0000 1.0000
47.0800 120.0000 1.0000
47.1000 100.0000 1.0000
47.1200 111.0000 1.0000
47.1400 98.0000 1.0000
47.1600 102.0000 1.0000
47.1800 107.0000 1.0000
47.2000 101.0000 1.0000
47.2200 100.0000 1.0000
47.2400 105.0000 1.0000
47.2600 93.0000 1.0000
47.2800 89.0000 1.0000
47.3000 99.0000 1.0000
47.3200 102.0000 1.0000
47.3400 112.0000 1.0000
47.3600 119.0000 1.0000
47.3800 110.0000 1.0000
47.4000 105.0000 1.0000
47.4200 104.0000 1.0000
47.4400 110.0000 1.0000
47.4600 112.0000 1.0000
47.4800 110.0000 1.0000
47.5000 116.0000 1.0000
47.5200 127.0000 1.0000
47.5400 118.0000 1.0000
47.5600 120.0000 1.0000
47.5800 117.0000 1.0000
47.6000 119.0000 1.0000
47.6200 125.0000 1.0000
47.6400 123.0000 1.0000
47.6600 129.0000 1.0000
47.6800 134.0000 1.0000
47.7000 131.0000 1.0000
47.7200 127.0000 1.0000
47.7400 127.0000 1.0000
47.7600 119.0000 1.0000
47.7800 120.0000 1.0000
47.8000 116.0000 1.0000
47.8200 119.0000 1.0000
47.8400 125.0000 1.0000
47.8600 129.0000 1.0000
47.8800 127.0000 1.0000
47.9000 133.0000 1.0000
47.9200 146.0000 1.0000
47.9400 154.0000 1.0000
47.9600 138.0000 1.0000
47.9800 143.0000 1.0000
48.0000 157.0000 1.0000
48.0200 160.0000 1.0000
48.0400 156.0000 1.0000
48.0600 148.0000 1.0000
48.0800 150.0000 1.0000
48.1000 148.0000 1.0000
48.1200 129.0000 1.0000
48.1400 137.0000 1.0000
48.1600 151.0000 1.0000
48.1800 143.0000 1.0000
48.2000 136.0000 1.0000
48.2200 140.0000 1.0000
48.2400 130.0000 1.0000
48.2600 119.0000 1.0000
48.2800 130.0000 1.0000
48.3000 119.0000 1.0000
48.3200 121.0000 1.0000
48.3400 119.0000 1.0000
48.3600 107.0000 1.0000
48.3800 117.0000 1.0000
48.4000 120.0000 1.0000
48.4200 104.0000 1.0000
48.4400 106.0000 1.0000
48.4600 126.0000 1.0000
48.4800 114.0000 1.0000
48.5000 107.0000 1.0000
48.5200 104.0000 1.0000
48.5400 98.0000 1.0000
48.5600 114.0000 1.0000
48.5800 120.0000 1.0000
48.6000 125.0000 1.0000
48.6200 126.0000 1.0000
48.6400 116.0000 1.0000
48.6600 126.0000 1.0000
48.6800 131.0000 1.0000
48.7000 119.0000 1.0000
48.7200 120.0000 1.0000
48.7400 125.0000 1.0000
48.7600 124.0000 1.0000
48.7800 120.0000 1.0000
48.8000 117.0000 1.0000
48.8200 122.0000 1.0000
48.8400 133.0000 1.0000
48.8600 140.0000 1.0000
48.8800 131.0000 1.0000
48.9000 117.0000 1.0000
48.9200 120.0000 1.0000
48.9400 145.0000 1.0000
48.9600 164.0000 1.0000
48.9800 154.0000 1.0000
49.0000 158.0000 1.0000
49.0200 175.0000 1.0000
49.0400 165.0000 1.0000
49.0600 157.0000 1.0000
49.0800 157.0000 1.0000
49.1000 161.0000 1.0000
49.1200 175.0000 1.0000
49.1400 166.0000 1.0000
49.1600 139.0000 1.0000
49.1800 150.0000 1.0000
49.2000 169.0000 1.0000
49.2200 159.0000 1.0000
49.2400 151.0000 1.0000
49.2600 152.0000 1.0000
49.2800 150.0000 1.0000
49.3000 163.0000 1.0000
49.3200 164.0000 1.0000
49.3400 177.0000 1.0000
49.3600 182.0000 1.0000
49.3800 182.0000 1.0000
49.4000 176.0000 1.0000
49.4200 177.0000 1.0000
49.4400 173.0000 1.0000
49.4600 178.0000 1.0000
49.4800 177.0000 1.0000
49.5000 174.0000 1.0000
49.5200 164.0000 1.0000
49.5400 177.0000 1.0000
49.5600 196.0000 1.0000
49.5800 211.0000 1.0000
49.6000 199.0000 1.0000
49.6200 211.0000 1.0000
49.6400 235.0000 1.0000
49.6600 238.0000 1.0000
49.6800 262.0000 1.0000
49.7000 286.0000 1.0000
49.7200 273.0000 1.0000
49.7400 278.0000 1.0000
49.7600 321.0000 1.0000
49.7800 348.0000 1.0000
49.8000 419.0000 1.0000
49.8200 482.0000 1.0000
49.8400 488.0000 1.0000
49.8600 577.0000 1.0000
49.8800 679.0000 1.0000
49.9000 809.0000 1.0000
49.9200 900.0000 1.0000
49.9400 939.0000 1.0000
49.9600 955.0000 1.0000
49.9800 978.0000 1.0000
50.0000 922.0000 1.0000
50.0200 867.0000 1.0000
50.0400 755.0000 1.0000
50.0600 690.0000 1.0000
50.0800 635.0000 1.0000
50.1000 597.0000 1.0000
50.1200 538.0000 1.0000
50.1400 451.0000 1.0000
50.1600 375.0000 1.0000
50.1800 299.0000 1.0000
50.2000 266.0000 1.0000
50.2200 226.0000 1.0000
50.2400 198.0000 1.0000
50.2600 183.0000 1.0000
50.2800 163.0000 1.0000
50.3000 168.0000 1.0000
50.3200 180.0000 1.0000
50.3400 187.0000 1.0000
50.3600 173.0000 1.0000
50.3800 172.0000 1.0000
50.4000 185.0000 1.0000
50.4200 179.0000 1.0000
50.4400 185.0000 1.0000
50.4600 175.0000 1.0000
50.4800 176.0000 1.0000
50.5000 181.0000 1.0000
50.5200 172.0000 1.0000
50.5400 169.0000 1.0000
50.5600 179.0000 1.0000
50.5800 168.0000 1.0000
50.6000 150.0000 1.0000
50.6200 148.0000 1.0000
50.6400 154.0000 1.0000
50.6600 144.0000 1.0000
50.6800 135.0000 1.0000
50.7000 123.0000 1.0000
50.7200 134.0000 1.0000
50.7400 153.0000 1.0000
50.7600 125.0000 1.0000
50.7800 131.0000 1.0000
50.8000 123.0000 1.0000
50.8200 131.0000 1.0000
50.8400 119.0000 1.0000
50.8600 141.0000 1.0000
50.8800 134.0000 1.0000
50.9000 157.0000 1.0000
50.9200 148.0000 1.0000
50.9400 173.0000 1.0000
50.9600 180.0000 1.0000
50.9800 180.0000 1.0000
51.0000 187.0000 1.0000
51.0200 188.0000 1.0000
51.0400 178.0000 1.0000
51.0600 148.0000 1.0000
51.0800 163.0000 1.0000
51.1000 160.0000 1.0000
51.1200 142.0000 1.0000
51.1400 152.0000 1.0000
51.1600 141.0000 1.0000
51.1800 144.0000 1.0000
51.2000 140.0000 1.0000
51.2200 129.0000 1.0000
51.2400 113.0000 1.0000
51.2600 110.0000 1.0000
51.2800 123.0000 1.0000
51.3000 110.0000 1.0000
51.3200 106.0000 1.0000
51.3400 113.0000 1.0000
51.3600 102.0000 1.0000
51.3800 120.0000 1.0000
51.4000 115.0000 1.0000
51.4200 110.0000 1.0000
51.4400 104.0000 1.0000
51.4600 91.0000 1.0000
51.4800 103.0000 1.0000
51.5000 115.0000 1.0000
51.5200 111.0000 1.0000
51.5400 112.0000 1.0000
51.5600 105.0000 1.0000
51.5800 105.0000 1.0000
51.6000 98.0000 1.0000
51.6200 107.0000 1.0000
51.6400 114.0000 1.0000
51.6600 108.0000 1.0000
51.6800 102.0000 1.0000
51.7000 106.0000 1.0000
51.7200 100.0000 1.0000
51.7400 118.0000 1.0000
51.7600 106.0000 1.0000
51.7800 122.0000 1.0000
51.8000 109.0000 1.0000
51.8200 117.0000 1.0000
51.8400 113.0000 1.0000
51.8600 107.0000 1.0000
51.8800 129.0000 1.0000
51.9000 148.0000 1.0000
51.9200 122.0000 1.0000
51.9400 131.0000 1.0000
51.9600 144.0000 1.0000
51.9800 148.0000 1.0000
52.0000 170.0000 1.0000
52.0200 161.0000 1.0000
52.0400 182.0000 1.0000
52.0600 203.0000 1.0000
52.0800 176.0000 1.0000
52.1000 212.0000 1.0000
52.1200 191.0000 1.0000
52.1400 206.0000 1.0000
52.1600 198.0000 1.0000
52.1800 230.0000 1.0000
52.2000 244.0000 1.0000
52.2200 280.0000 1.0000
52.2400 328.0000 1.0000
52.2600 384.0000 1.0000
52.2800 433.0000 1.0000
52.3000 516.0000 1.0000
52.3200 645.0000 1.0000
52.3400 729.0000 1.0000
52.3600 734.0000 1.0000
52.3800 838.0000 1.0000
52.4000 768.0000 1.0000
52.4200 683.0000 1.0000
52.4400 727.0000 1.0000
52.4600 622.0000 1.0000
52.4800 615.0000 1.0000
52.5000 541.0000 1.0000
52.5200 524.0000 1.0000
52.5400 474.0000 1.0000
52.5600 431.0000 1.0000
52.5800 362.0000 1.0000
52.6000 357.0000 1.0000
52.6200 287.0000 1.0000
52.6400 252.0000 1.0000
52.6600 216.0000 1.0000
52.6800 201.0000 1.0000
52.7000 199.0000 1.0000
52.7200 186.0000 1.0000
52.7400 205.0000 1.0000
52.7600 196.0000 1.0000
52.7800 186.0000 1.0000
52.8000 171.0000 1.0000
52.8200 177.0000 1.0000
52.8400 171.0000 1.0000
52.8600 207.0000 1.0000
52.8800 195.0000 1.0000
52.9000 189.0000 1.0000
52.9200 187.0000 1.0000
52.9400 177.0000 1.0000
52.9600 192.0000 1.0000
52.9800 164.0000 1.0000
53.0000 184.0000 1.0000
53.0200 164.0000 1.0000
53.0400 164.0000 1.0000
53.0600 209.0000 1.0000
53.0800 156.0000 1.0000
53.1000 169.0000 1.0000
53.1200 175.0000 1.0000
53.1400 194.0000 1.0000
53.1600 184.0000 1.0000
53.1800 185.0000 1.0000
53.2000 138.0000 1.0000
53.2200 162.0000 1.0000
53.2400 159.0000 1.0000
53.2600 166.0000 1.0000
53.2800 167.0000 1.0000
53.3000 164.0000 1.0000
53.3200 178.0000 1.0000
53.3400 168.0000 1.0000
53.3600 162.0000 1.0000
53.3800 151.0000 1.0000
53.4000 157.0000 1.0000
53.4200 155.0000 1.0000
53.4400 157.0000 1.0000
53.4600 162.0000 1.0000
53.4800 185.0000 1.0000
53.5000 168.0000 1.0000
53.5200 166.0000 1.0000
53.5400 149.0000 1.0000
53.5600 171.0000 1.0000
53.5800 167.0000 1.0000
53.6000 183.0000 1.0000
53.6200 169.0000 1.0000
53.6400 174.0000 1.0000
53.6600 171.0000 1.0000
53.6800 174.0000 1.0000
53.7000 155.0000 1.0000
53.7200 155.0000 1.0000
53.7400 181.0000 1.0000
53.7600 185.0000 1.0000
53.7800 196.0000 1.0000
53.8000 177.0000 1.0000
53.8200 188.0000 1.0000
53.8400 182.0000 1.0000
53.8600 176.0000 1.0000
53.8800 190.0000 1.0000
53.9000 164.0000 1.0000
53.9200 164.0000 1.0000
53.9400 152.0000 1.0000
53.9600 153.0000 1.0000
53.9800 158.0000 1.0000
54.0000 181.0000 1.0000
54.0200 190.0000 1.0000
54.0400 173.0000 1.0000
54.0600 161.0000 1.0000
54.0800 177.0000 1.0000
54.1000 180.0000 1.0000
54.1200 185.0000 1.0000
54.1400 180.0000 1.0000
54.1600 197.0000 1.0000
54.1800 177.0000 1.0000
54.2000 168.0000 1.0000
54.2200 179.0000 1.0000
54.2400 189.0000 1.0000
54.2600 192.0000 1.0000
54.2800 193.0000 1.0000
54.3000 179.0000 1.0000
54.3200 171.0000 1.0000
54.3400 187.0000 1.0000
54.3600 204.0000 1.0000
54.3800 203.0000 1.0000
54.4000 175.0000 1.0000
54.4200 186.0000 1.0000
54.4400 180.0000 1.0000
54.4600 188.0000 1.0000
54.4800 200.0000 1.0000
54.5000 220.0000 1.0000
54.5200 233.0000 1.0000
54.5400 233.0000 1.0000
54.5600 242.0000 1.0000
54.5800 282.0000 1.0000
54.6000 293.0000 1.0000
54.6200 346.0000 1.0000
54.6400 375.0000 1.0000
54.6600 389.0000 1.0000
54.6800 406.0000 1.0000
54.7000 438.0000 1.0000
54.7200 445.0000 1.0000
54.7400 414.0000 1.0000
54.7600 385.0000 1.0000
54.7800 376.0000 1.0000
54.8000 340.0000 1.0000
54.8200 310.0000 1.0000
54.8400 319.0000 1.0000
54.8600 321.0000 1.0000
54.8800 303.0000 1.0000
54.9000 301.0000 1.0000
54.9200 278.0000 1.0000
54.9400 266.0000 1.0000
54.9600 254.0000 1.0000
54.9800 238.0000 1.0000
55.0000 222.0000 1.0000
55.0200 212.0000 1.0000
55.0400 236.0000 1.0000
55.0600 251.0000 1.0000
55.0800 271.0000 1.0000
55.1000 283.0000 1.0000
55.1200 279.0000 1.0000
55.1400 290.0000 1.0000
55.1600 291.0000 1.0000
55.1800 308.0000 1.0000
55.2000 307.0000 1.0000
55.2200 291.0000 1.0000
55.2400 262.0000 1.0000
55.2600 241.0000 1.0000
55.2800 237.0000 1.0000
55.3000 230.0000 1.0000
55.3200 243.0000 1.0000
55.3400 232.0000 1.0000
55.3600 209.0000 1.0000
55.3800 212.0000 1.0000
55.4000 205.0000 1.0000
55.4200 194.0000 1.0000
55.4400 190.0000 1.0000
55.4600 199.0000 1.0000
55.4800 211.0000 1.0000
55.5000 215.0000 1.0000
55.5200 203.0000 1.0000
55.5400 189.0000 1.0000
55.5600 192.0000 1.0000
55.5800 204.0000 1.0000
55.6000 206.0000 1.0000
55.6200 204.0000 1.0000
55.6400 197.0000 1.0000
55.6600 175.0000 1.0000
55.6800 168.0000 1.0000
55.7000 188.0000 1.0000
55.7200 197.0000 1.0000
55.7400 191.0000 1.0000
55.7600 189.0000 1.0000
55.7800 187.0000 1.0000
55.8000 180.0000 1.0000
55.8200 180.0000 1.0000
55.8400 195.0000 1.0000
55.8600 194.0000 1.0000
55.8800 192.0000 1.0000
55.9000 196.0000 1.0000
55.9200 189.0000 1.0000
55.9400 178.0000 1.0000
55.9600 184.0000 1.0000
55.9800 206.0000 1.0000
56.0000 214.0000 1.0000
56.0200 201.0000 1.0000
56.0400 178.0000 1.0000
56.0600 175.0000 1.0000
56.0800 169.0000 1.0000
56.1000 166.0000 1.0000
56.1200 182.0000 1.0000
56.1400 184.0000 1.0000
56.1600 168.0000 1.0000
56.1800 170.0000 1.0000
56.2000 186.0000 1.0000
56.2200 182.0000 1.0000
56.2400 174.0000 1.0000
56.2600 163.0000 1.0000
56.2800 165.0000 1.0000
56.3000 167.0000 1.0000
56.3200 167.0000 1.0000
56.3400 177.0000 1.0000
56.3600 161.0000 1.0000
56.3800 169.0000 1.0000
56.4000 179.0000 1.0000
56.4200 165.0000 1.0000
56.4400 171.0000 1.0000
56.4600 169.0000 1.0000
56.4800 168.0000 1.0000
56.5000 168.0000 1.0000
56.5200 168.0000 1.0000
56.5400 181.0000 1.0000
56.5600 171.0000 1.0000
56.5800 159.0000 1.0000
56.6000 157.0000 1.0000
56.6200 167.0000 1.0000
56.6400 151.0000 1.0000
56.6600 143.0000 1.0000
56.6800 145.0000 1.0000
56.7000 156.0000 1.0000
56.7200 164.0000 1.0000
56.7400 155.0000 1.0000
56.7600 161.0000 1.0000
56.7800 160.0000 1.0000
56.8000 153.0000 1.0000
56.8200 171.0000 1.0000
56.8400 185.0000 1.0000
56.8600 174.0000 1.0000
56.8800 165.0000 1.0000
56.9000 165.0000 1.0000
56.9200 171.0000 1.0000
56.9400 193.0000 1.0000
56.9600 192.0000 1.0000
56.9800 186.0000 1.0000
57.0000 212.0000 1.0000
57.0200 216.0000 1.0000
57.0400 232.0000 1.0000
57.0600 241.0000 1.0000
57.0800 251.0000 1.0000
57.1000 266.0000 1.0000
57.1200 301.0000 1.0000
57.1400 333.0000 1.0000
57.1600 383.0000 1.0000
57.1800 460.0000 1.0000
57.2000 540.0000 1.0000
57.2200 647.0000 1.0000
57.2400 781.0000 1.0000
57.2600 941.0000 1.0000
57.2800 1046.0000 1.0000
57.3000 1194.0000 1.0000
57.3200 1380.0000 1.0000
57.3400 1453.0000 1.0000
57.3600 1386.0000 1.0000
57.3800 1257.0000 1.0000
57.4000 1142.0000 1.0000
57.4200 1026.0000 1.0000
57.4400 944.0000 1.0000
57.4600 936.0000 1.0000
57.4800 888.0000 1.0000
57.5000 766.0000 1.0000
57.5200 710.0000 1.0000
57.5400 626.0000 1.0000
57.5600 500.0000 1.0000
57.5800 417.0000 1.0000
57.6000 346.0000 1.0000
57.6200 265.0000 1.0000
57.6400 253.0000 1.0000
57.6600 242.0000 1.0000
57.6800 206.0000 1.0000
57.7000 206.0000 1.0000
57.7200 198.0000 1.0000
57.7400 180.0000 1.0000
57.7600 166.0000 1.0000
57.7800 160.0000 1.0000
57.8000 161.0000 1.0000
57.8200 159.0000 1.0000
57.8400 172.0000 1.0000
57.8600 161.0000 1.0000
57.8800 140.0000 1.0000
57.9000 150.0000 1.0000
57.9200 153.0000 1.0000
57.9400 149.0000 1.0000
57.9600 144.0000 1.0000
57.9800 145.0000 1.0000
58.0000 149.0000 1.0000
58.0200 157.0000 1.0000
58.0400 145.0000 1.0000
58.0600 145.0000 1.0000
58.0800 144.0000 1.0000
58.1000 147.0000 1.0000
58.1200 134.0000 1.0000
58.1400 126.0000 1.0000
58.1600 135.0000 1.0000
58.1800 149.0000 1.0000
58.2000 125.0000 1.0000
58.2200 120.0000 1.0000
58.2400 120.0000 1.0000
58.2600 125.0000 1.0000
58.2800 139.0000 1.0000
58.3000 147.0000 1.0000
58.3200 121.0000 1.0000
58.3400 140.0000 1.0000
58.3600 132.0000 1.0000
58.3800 139.0000 1.0000
58.4000 132.0000 1.0000
58.4200 136.0000 1.0000
58.4400 144.0000 1.0000
58.4600 147.0000 1.0000
58.4800 147.0000 1.0000
58.5000 150.0000 1.0000
58.5200 145.0000 1.0000
58.5400 147.0000 1.0000
58.5600 146.0000 1.0000
58.5800 150.0000 1.0000
58.6000 158.0000 1.0000
58.6200 166.0000 1.0000
58.6400 156.0000 1.0000
58.6600 149.0000 1.0000
58.6800 152.0000 1.0000
58.7000 127.0000 1.0000
58.7200 139.0000 1.0000
58.7400 135.0000 1.0000
58.7600 129.0000 1.0000
58.7800 143.0000 1.0000
58.8000 146.0000 1.0000
58.8200 121.0000 1.0000
58.8400 137.0000 1.0000
58.8600 131.0000 1.0000
58.8800 151.0000 1.0000
58.9000 145.0000 1.0000
58.9200 124.0000 1.0000
58.9400 138.0000 1.0000
58.9600 139.0000 1.0000
58.9800 148.0000 1.0000
59.0000 137.0000 1.0000
59.0200 129.0000 1.0000
59.0400 128.0000 1.0000
59.0600 156.0000 1.0000
59.0800 146.0000 1.0000
59.1000 145.0000 1.0000
59.1200 167.0000 1.0000
59.1400 159.0000 1.0000
59.1600 153.0000 1.0000
59.1800 143.0000 1.0000
59.2000 151.0000 1.0000
59.2200 149.0000 1.0000
59.2400 149.0000 1.0000
59.2600 164.0000 1.0000
59.2800 172.0000 1.0000
59.3000 156.0000 1.0000
59.3200 164.0000 1.0000
59.3400 180.0000 1.0000
59.3600 180.0000 1.0000
59.3800 188.0000 1.0000
59.4000 185.0000 1.0000
59.4200 196.0000 1.0000
59.4400 196.0000 1.0000
59.4600 216.0000 1.0000
59.4800 201.0000 1.0000
59.5000 195.0000 1.0000
59.5200 220.0000 1.0000
59.5400 237.0000 1.0000
59.5600 252.0000 1.0000
59.5800 285.0000 1.0000
59.6000 305.0000 1.0000
59.6200 307.0000 1.0000
59.6400 341.0000 1.0000
59.6600 367.0000 1.0000
59.6800 449.0000 1.0000
59.7000 469.0000 1.0000
59.7200 552.0000 1.0000
59.7400 614.0000 1.0000
59.7600 667.0000 1.0000
59.7800 751.0000 1.0000
59.8000 693.0000 1.0000
59.8200 703.0000 1.0000
59.8400 679.0000 1.0000
59.8600 633.0000 1.0000
59.8800 573.0000 1.0000
59.9000 549.0000 1.0000
59.9200 525.0000 1.0000
59.9400 519.0000 1.0000
59.9600 507.0000 1.0000
59.9800 452.0000 1.0000
60.0000 424.0000 1.0000
60.0200 373.0000 1.0000
60.0400 340.0000 1.0000
60.0600 271.0000 1.0000
60.0800 270.0000 1.0000
60.1000 234.0000 1.0000
60.1200 250.0000 1.0000
60.1400 223.0000 1.0000
60.1600 217.0000 1.0000
60.1800 231.0000 1.0000
60.2000 221.0000 1.0000
60.2200 215.0000 1.0000
60.2400 208.0000 1.0000
60.2600 192.0000 1.0000
60.2800 213.0000 1.0000
60.3000 180.0000 1.0000
60.3200 198.0000 1.0000
60.3400 194.0000 1.0000
60.3600 220.0000 1.0000
60.3800 201.0000 1.0000
60.4000 187.0000 1.0000
60.4200 178.0000 1.0000
60.4400 185.0000 1.0000
60.4600 189.0000 1.0000
60.4800 186.0000 1.0000
60.5000 191.0000 1.0000
60.5200 175.0000 1.0000
60.5400 177.0000 1.0000
60.5600 181.0000 1.0000
60.5800 178.0000 1.0000
60.6000 171.0000 1.0000
60.6200 186.0000 1.0000
60.6400 167.0000 1.0000
60.6600 166.0000 1.0000
60.6800 207.0000 1.0000
60.7000 171.0000 1.0000
60.7200 193.0000 1.0000
60.7400 178.0000 1.0000
60.7600 166.0000 1.0000
60.7800 187.0000 1.0000
60.8000 183.0000 1.0000
60.8200 172.0000 1.0000
60.8400 206.0000 1.0000
60.8600 172.0000 1.0000
60.8800 202.0000 1.0000
60.9000 197.0000 1.0000
60.9200 199.0000 1.0000
60.9400 210.0000 1.0000
60.9600 214.0000 1.0000
60.9800 212.0000 1.0000
61.0000 224.0000 1.0000
61.0200 252.0000 1.0000
61.0400 239.0000 1.0000
61.0600 252.0000 1.0000
61.0800 259.0000 1.0000
61.1000 275.0000 1.0000
61.1200 299.0000 1.0000
61.1400 287.0000 1.0000
61.1600 283.0000 1.0000
61.1800 266.0000 1.0000
61.2000 287.0000 1.0000
61.2200 272.0000 1.0000
61.2400 271.0000 1.0000
61.2600 245.0000 1.0000
61.2800 306.0000 1.0000
61.3000 279.0000 1.0000
61.3200 276.0000 1.0000
61.3400 261.0000 1.0000
61.3600 290.0000 1.0000
61.3800 287.0000 1.0000
61.4000 244.0000 1.0000
61.4200 276.0000 1.0000
61.4400 293.0000 1.0000
61.4600 279.0000 1.0000
61.4800 289.0000 1.0000
61.5000 323.0000 1.0000
61.5200 303.0000 1.0000
61.5400 356.0000 1.0000
61.5600 367.0000 1.0000
61.5800 366.0000 1.0000
61.6000 343.0000 1.0000
61.6200 378.0000 1.0000
61.6400 327.0000 1.0000
61.6600 342.0000 1.0000
61.6800 341.0000 1.0000
61.7000 325.0000 1.0000
61.7200 349.0000 1.0000
61.7400 349.0000 1.0000
61.7600 332.0000 1.0000
61.7800 295.0000 1.0000
61.8000 329.0000 1.0000
61.8200 296.0000 1.0000
61.8400 317.0000 1.0000
61.8600 278.0000 1.0000
61.8800 297.0000 1.0000
61.9000 253.0000 1.0000
61.9200 258.0000 1.0000
61.9400 225.0000 1.0000
61.9600 212.0000 1.0000
61.9800 214.0000 1.0000
62.0000 198.0000 1.0000
62.0200 223.0000 1.0000
62.0400 206.0000 1.0000
62.0600 180.0000 1.0000
62.0800 180.0000 1.0000
62.1000 178.0000 1.0000
62.1200 194.0000 1.0000
62.1400 183.0000 1.0000
62.1600 161.0000 1.0000
62.1800 165.0000 1.0000
62.2000 150.0000 1.0000
62.2200 174.0000 1.0000
62.2400 160.0000 1.0000
62.2600 144.0000 1.0000
62.2800 158.0000 1.0000
62.3000 156.0000 1.0000
62.3200 159.0000 1.0000
62.3400 144.0000 1.0000
62.3600 162.0000 1.0000
62.3800 157.0000 1.0000
62.4000 151.0000 1.0000
62.4200 156.0000 1.0000
62.4400 139.0000 1.0000
62.4600 124.0000 1.0000
62.4800 154.0000 1.0000
62.5000 136.0000 1.0000
62.5200 135.0000 1.0000
62.5400 129.0000 1.0000
62.5600 159.0000 1.0000
62.5800 125.0000 1.0000
62.6000 132.0000 1.0000
62.6200 131.0000 1.0000
62.6400 127.0000 1.0000
62.6600 135.0000 1.0000
62.6800 125.0000 1.0000
62.7000 121.0000 1.0000
62.7200 117.0000 1.0000
62.7400 123.0000 1.0000
62.7600 140.0000 1.0000
62.7800 117.0000 1.0000
62.8000 138.0000 1.0000
62.8200 128.0000 1.0000
62.8400 130.0000 1.0000
62.8600 128.0000 1.0000
62.8800 128.0000 1.0000
62.9000 118.0000 1.0000
62.9200 120.0000 1.0000
62.9400 136.0000 1.0000
62.9600 141.0000 1.0000
62.9800 108.0000 1.0000
63.0000 117.0000 1.0000
63.0200 121.0000 1.0000
63.0400 96.0000 1.0000
63.0600 104.0000 1.0000
63.0800 107.0000 1.0000
63.1000 120.0000 1.0000
63.1200 125.0000 1.0000
63.1400 140.0000 1.0000
63.1600 134.0000 1.0000
63.1800 122.0000 1.0000
63.2000 134.0000 1.0000
63.2200 119.0000 1.0000
63.2400 134.0000 1.0000
63.2600 129.0000 1.0000
63.2800 143.0000 1.0000
63.3000 138.0000 1.0000
63.3200 125.0000 1.0000
63.3400 140.0000 1.0000
63.3600 136.0000 1.0000
63.3800 154.0000 1.0000
63.4000 151.0000 1.0000
63.4200 136.0000 1.0000
63.4400 162.0000 1.0000
63.4600 134.0000 1.0000
63.4800 130.0000 1.0000
63.5000 143.0000 1.0000
63.5200 148.0000 1.0000
63.5400 142.0000 1.0000
63.5600 155.0000 1.0000
63.5800 159.0000 1.0000
63.6000 148.0000 1.0000
63.6200 165.0000 1.0000
63.6400 175.0000 1.0000
63.6600 164.0000 1.0000
63.6800 170.0000 1.0000
63.7000 161.0000 1.0000
63.7200 155.0000 1.0000
63.7400 169.0000 1.0000
63.7600 183.0000 1.0000
63.7800 190.0000 1.0000
63.8000 196.0000 1.0000
63.8200 214.0000 1.0000
63.8400 217.0000 1.0000
63.8600 235.0000 1.0000
63.8800 202.0000 1.0000
63.9000 202.0000 1.0000
63.9200 205.0000 1.0000
63.9400 198.0000 1.0000
63.9600 196.0000 1.0000
63.9800 205.0000 1.0000
64.0000 188.0000 1.0000
64.0200 159.0000 1.0000
64.0400 144.0000 1.0000
64.0600 159.0000 1.0000
64.0800 169.0000 1.0000
64.1000 159.0000 1.0000
64.1200 157.0000 1.0000
64.1400 142.0000 1.0000
64.1600 119.0000 1.0000
64.1800 119.0000 1.0000
64.2000 145.0000 1.0000
64.2200 128.0000 1.0000
64.2400 117.0000 1.0000
64.2600 130.0000 1.0000
64.2800 116.0000 1.0000
64.3000 125.0000 1.0000
64.3200 120.0000 1.0000
64.3400 119.0000 1.0000
64.3600 130.0000 1.0000
64.3800 113.0000 1.0000
64.4000 115.0000 1.0000
64.4200 111.0000 1.0000
64.4400 122.0000 1.0000
64.4600 118.0000 1.0000
64.4800 116.0000 1.0000
64.5000 111.0000 1.0000
64.5200 118.0000 1.0000
64.5400 132.0000 1.0000
64.5600 121.0000 1.0000
64.5800 113.0000 1.0000
64.6000 110.0000 1.0000
64.6200 110.0000 1.0000
64.6400 109.0000 1.0000
64.6600 119.0000 1.0000
64.6800 132.0000 1.0000
64.7000 123.0000 1.0000
64.7200 121.0000 1.0000
64.7400 102.0000 1.0000
64.7600 115.0000 1.0000
64.7800 134.0000 1.0000
64.8000 120.0000 1.0000
64.8200 124.0000 1.0000
64.8400 139.0000 1.0000
64.8600 115.0000 1.0000
64.8800 124.0000 1.0000
64.9000 132.0000 1.0000
64.9200 139.0000 1.0000
64.9400 128.0000 1.0000
64.9600 123.0000 1.0000
64.9800 123.0000 1.0000
65.0000 123.0000 1.0000
*RAS_INT_END
*RAS_DATA_END
