*RAS_DATA_START
*RAS_HEADER_START
*CORR_POS_DB_NAME "Angle Correction ASC6 SC WITH Mono_04082019"
*CORR_POS_GONIO_RADIUS ""
*CORR_POS_NODE_INDEX01 ""
*CORR_POS_NODE_INDEX02 ""
*CORR_POS_NODE_INDEX03 ""
*CORR_POS_NODE_INDEX04 ""
*CORR_POS_NODE_INDEX05 ""
*CORR_POS_NODE_INDEX06 ""
*CORR_POS_NODE_INDEX07 ""
*CORR_POS_NODE_INDEX08 ""
*CORR_POS_NODE_INDEX09 ""
*CORR_POS_NODE_INDEX10 ""
*CORR_POS_NODE_INDEX11 ""
*CORR_POS_NODE_LABEL01 "Si(111)"
*CORR_POS_NODE_LABEL02 "Si(220)"
*CORR_POS_NODE_LABEL03 "Si(311)"
*CORR_POS_NODE_LABEL04 "Si(400)"
*CORR_POS_NODE_LABEL05 "Si(331)"
*CORR_POS_NODE_LABEL06 "Si(422)"
*CORR_POS_NODE_LABEL07 "Si(511)"
*CORR_POS_NODE_LABEL08 "Si(440)"
*CORR_POS_NODE_LABEL09 "Si(531)"
*CORR_POS_NODE_LABEL10 "Si(620)"
*CORR_POS_NODE_LABEL11 "Si(533)"
*CORR_POS_NODE_POS_CALC01 "28.377"
*CORR_POS_NODE_POS_CALC02 "47.2506"
*CORR_POS_NODE_POS_CALC03 "56.0725"
*CORR_POS_NODE_POS_CALC04 "69.0822"
*CORR_POS_NODE_POS_CALC05 "76.3294"
*CORR_POS_NODE_POS_CALC06 "87.9853"
*CORR_POS_NODE_POS_CALC07 "94.9091"
*CORR_POS_NODE_POS_CALC08 "106.668"
*CORR_POS_NODE_POS_CALC09 "114.054"
*CORR_POS_NODE_POS_CALC10 "127.511"
*CORR_POS_NODE_POS_CALC11 "136.864"
*CORR_POS_NODE_POS_MEAS01 "28.5058"
*CORR_POS_NODE_POS_MEAS02 "47.345"
*CORR_POS_NODE_POS_MEAS03 "56.1421"
*CORR_POS_NODE_POS_MEAS04 "69.1304"
*CORR_POS_NODE_POS_MEAS05 "76.366"
*CORR_POS_NODE_POS_MEAS06 "88.0213"
*CORR_POS_NODE_POS_MEAS07 "94.9406"
*CORR_POS_NODE_POS_MEAS08 "106.689"
*CORR_POS_NODE_POS_MEAS09 "114.065"
*CORR_POS_NODE_POS_MEAS10 "127.518"
*CORR_POS_NODE_POS_MEAS11 "136.869"
*CORR_POS_OPT_ATTR "集中法"
*CORR_POS_PARAM_MU ""
*CORR_POS_PARAM_PL ""
*CORR_POS_SEMODEL_TYPE "0"
*CORR_POS_STANDARD_TYPE ""
*CORR_POS_VALUE_ANALYZER "None"
*CORR_POS_VALUE_CMONO "None"
*CORR_POS_VALUE_IMONO "None"
*CORR_POS_VALUE_IS "1.250deg"
*CORR_POS_VALUE_ISL "10.0mm"
*CORR_POS_VALUE_ISOLLER "5.0deg"
*CORR_POS_VALUE_RS1 "1.250deg"
*CORR_POS_VALUE_RS2 "0.3mm"
*CORR_POS_VALUE_RSOLLER "5.0deg"
*CORR_POS_XG_FOCUS_L ""
*CORR_POS_XG_WAVE_TYPE ""
*CORR_POS_XG_WAVE_VALUE ""
*DISP_FMT_X "%.2f"
*DISP_FMT_Y "%.0f"
*DISP_FULLSCALE "6704.4000000000"
*DISP_LINE_COLOR "255.0000000000"
*DISP_LINE_STYLE "0.0000000000"
*DISP_LINE_WIDTH "0.2500000000"
*DISP_NOTE "Collected Data-19"
*DISP_OFFSET_Y "0.0000000000"
*DISP_PEAKSEARCH_UNIT_Y "CPS"
*DISP_RANGE_BOTTOM "0.0000000000"
*DISP_RANGE_LEFT "5.0000000000"
*DISP_RANGE_LOGCUTOFF "0.0100000000"
*DISP_RANGE_RIGHT "65.0000000000"
*DISP_RANGE_TOP "6704.4000000000"
*DISP_SCALE_MODE_Y "0.0000000000"
*DISP_TAB_NAME "Theta/2-Theta"
*DISP_TITLE_Y "Intensity"
*DISP_UNIT_Y "CPS"
*DISP_WINDOW_NAME "MSG_MACROENGINE"
*FILE_COMMENT " "
*FILE_MD5 ""
*FILE_MEMO " "
*FILE_OPERATOR "Administrator"
*FILE_PART_ID "MEAS_PBEA_00223"
*FILE_SAMPLE " "
*FILE_TYPE "RAS_RAW"
*FILE_USERGROUP "System Manager"
*FILE_VERSION "1.0000000000"
*HW_ATTACHMENT_ID "ATT1031"
*HW_ATTACHMENT_NAME "6サンプルチェンジャ|ASC-6"
*HW_COUNTER_ID-0 "CUT0021"
*HW_COUNTER_ID-1 "CUT0020"
*HW_COUNTER_ID-2 "CUT0020"
*HW_COUNTER_ID-3 "CMC0021"
*HW_COUNTER_NAME-0 "SC-70|SC-70"
*HW_COUNTER_NAME-1 "None|None"
*HW_COUNTER_NAME-2 "None|None"
*HW_COUNTER_NAME-3 "検出器モノクロメータ|Detector monochromator"
*HW_COUNTER_SELECT_NAME "SC-70|SC-70"
*HW_ECP_HV "671.5000000000"
*HW_ECP_HV_UNIT "V"
*HW_GONIOMETER_ID "GON0070"
*HW_GONIOMETER_NAME "MiniFlex 300/600|MiniFlex 300/600"
*HW_GONIOMETER_RADIUS-0 "79.0"
*HW_GONIOMETER_RADIUS-1 "91.5"
*HW_GONIOMETER_RADIUS-2 "150.0"
*HW_GONIOMETER_RADIUS-3 "0"
*HW_GONIOMETER_RADIUS-4 "103.4"
*HW_GONIOMETER_RADIUS-5 "150.0"
*HW_GONIOMETER_RADIUS-6 "46.6"
*HW_GONIOMETER_RADIUS-7 "160.0"
*HW_I_OPT_ID-0 "ISL0021"
*HW_I_OPT_ID-1 "ISO0021"
*HW_I_OPT_NAME-0 "発散スリット|Divergence slit"
*HW_I_OPT_NAME-1 "入射平行スリット|Incident parallel slit"
*HW_R_ATTENUATER_AUTOMODE "0"
*HW_R_OPT_ID-0 "RSS0021"
*HW_R_OPT_ID-1 "RSO0021"
*HW_R_OPT_ID-2 "RRS0021"
*HW_R_OPT_NAME-0 "散乱スリット|Scattering slit"
*HW_R_OPT_NAME-1 "受光平行スリット|Receiving soller slit"
*HW_R_OPT_NAME-2 "受光スリット|Receiving slit"
*HW_SAMPLE_HOLDER_ID "SMP0000"
*HW_SAMPLE_HOLDER_NAME "無し|None"
*HW_XG_CURRENT_MAX "15"
*HW_XG_CURRENT_MIN "2"
*HW_XG_CURRENT_RESOLUTION "1"
*HW_XG_CURRENT_UNIT "mA"
*HW_XG_FOCUS "1mm x 10mm"
*HW_XG_FOCUS_TYPE "Normal"
*HW_XG_ID "1060"
*HW_XG_NAME "300W/600W 封入管-B|300W/600W Sealed tube-B"
*HW_XG_TARGET_ATOMIC_NUMBER "29.0000000000"
*HW_XG_TARGET_NAME "Cu"
*HW_XG_TYPE "Hermetic"
*HW_XG_VOLTAGE_MAX "40"
*HW_XG_VOLTAGE_MIN "20"
*HW_XG_VOLTAGE_RESOLUTION "1"
*HW_XG_VOLTAGE_UNIT "kV"
*HW_XG_WATT_MAX "0.600"
*HW_XG_WATT_UNIT "kW"
*HW_XG_WAVE_LENGTH_ALPHA1 "1.540593"
*HW_XG_WAVE_LENGTH_ALPHA2 "1.544414"
*HW_XG_WAVE_LENGTH_BETA "1.392250"
*MEAS_COND_AXIS_NAME-0 "Theta/2-Theta"
*MEAS_COND_AXIS_NAME-1 "Spin"
*MEAS_COND_AXIS_NAME-2 "Change"
*MEAS_COND_AXIS_NAME-3 "Soller(inc.)"
*MEAS_COND_AXIS_NAME-4 "IHS"
*MEAS_COND_AXIS_NAME-5 "DS"
*MEAS_COND_AXIS_NAME-6 "SS"
*MEAS_COND_AXIS_NAME-7 "Soller(rec.)"
*MEAS_COND_AXIS_NAME-8 "RS"
*MEAS_COND_AXIS_NAME-9 "Filter"
*MEAS_COND_AXIS_NAME-10 "Monochromator"
*MEAS_COND_AXIS_NAME-11 "HV"
*MEAS_COND_AXIS_NAME-12 "PHA"
*MEAS_COND_AXIS_NAME_INTERNAL-0 "TwoThetaTheta"
*MEAS_COND_AXIS_NAME_INTERNAL-1 "Spin"
*MEAS_COND_AXIS_NAME_INTERNAL-2 "Change"
*MEAS_COND_AXIS_NAME_INTERNAL-3 "IncidentSollerSlit"
*MEAS_COND_AXIS_NAME_INTERNAL-4 "IncidentAxdSlit"
*MEAS_COND_AXIS_NAME_INTERNAL-5 "IncidentSlitBox"
*MEAS_COND_AXIS_NAME_INTERNAL-6 "ReceivingSlitBox1"
*MEAS_COND_AXIS_NAME_INTERNAL-7 "ReceivingSollerSlit"
*MEAS_COND_AXIS_NAME_INTERNAL-8 "ReceivingSlitBox2"
*MEAS_COND_AXIS_NAME_INTERNAL-9 "Filter"
*MEAS_COND_AXIS_NAME_INTERNAL-10 "CounterMonochromator"
*MEAS_COND_AXIS_NAME_INTERNAL-11 "HV"
*MEAS_COND_AXIS_NAME_INTERNAL-12 "PHA"
*MEAS_COND_AXIS_NAME_MAGICNO-0 "268632064.0000000000"
*MEAS_COND_AXIS_NAME_MAGICNO-1 "16842752.0000000000"
*MEAS_COND_AXIS_NAME_MAGICNO-2 "16842752.0000000000"
*MEAS_COND_AXIS_NAME_MAGICNO-3 "20971521.0000000000"
*MEAS_COND_AXIS_NAME_MAGICNO-4 "22020097.0000000000"
*MEAS_COND_AXIS_NAME_MAGICNO-5 "22020097.0000000000"
*MEAS_COND_AXIS_NAME_MAGICNO-6 "23068673.0000000000"
*MEAS_COND_AXIS_NAME_MAGICNO-7 "20971521.0000000000"
*MEAS_COND_AXIS_NAME_MAGICNO-8 "23068673.0000000000"
*MEAS_COND_AXIS_NAME_MAGICNO-9 "20971521.0000000000"
*MEAS_COND_AXIS_NAME_MAGICNO-10 "20971521.0000000000"
*MEAS_COND_AXIS_NAME_MAGICNO-11 "0.0000000000"
*MEAS_COND_AXIS_NAME_MAGICNO-12 "0.0000000000"
*MEAS_COND_AXIS_OFFSET-0 "0.0000000000"
*MEAS_COND_AXIS_OFFSET-1 "-"
*MEAS_COND_AXIS_OFFSET-2 "-"
*MEAS_COND_AXIS_OFFSET-3 "-"
*MEAS_COND_AXIS_OFFSET-4 "-"
*MEAS_COND_AXIS_OFFSET-5 "-"
*MEAS_COND_AXIS_OFFSET-6 "-"
*MEAS_COND_AXIS_OFFSET-7 "-"
*MEAS_COND_AXIS_OFFSET-8 "-"
*MEAS_COND_AXIS_OFFSET-9 "-"
*MEAS_COND_AXIS_OFFSET-10 "-"
*MEAS_COND_AXIS_OFFSET-11 "-"
*MEAS_COND_AXIS_OFFSET-12 "-"
*MEAS_COND_AXIS_POSITION-0 "65.0000000000"
*MEAS_COND_AXIS_POSITION-1 "0.0000000000"
*MEAS_COND_AXIS_POSITION-2 "5.0000000000"
*MEAS_COND_AXIS_POSITION-3 "5.0deg"
*MEAS_COND_AXIS_POSITION-4 "10.0mm"
*MEAS_COND_AXIS_POSITION-5 "1.250deg"
*MEAS_COND_AXIS_POSITION-6 "1.250deg"
*MEAS_COND_AXIS_POSITION-7 "5.0deg"
*MEAS_COND_AXIS_POSITION-8 "0.3mm"
*MEAS_COND_AXIS_POSITION-9 "None"
*MEAS_COND_AXIS_POSITION-10 "Bent"
*MEAS_COND_AXIS_POSITION-11 "671.5000000000"
*MEAS_COND_AXIS_POSITION-12 "551.2500000000"
*MEAS_COND_AXIS_UNIT-0 "deg"
*MEAS_COND_AXIS_UNIT-1 ""
*MEAS_COND_AXIS_UNIT-2 ""
*MEAS_COND_AXIS_UNIT-3 ""
*MEAS_COND_AXIS_UNIT-4 ""
*MEAS_COND_AXIS_UNIT-5 ""
*MEAS_COND_AXIS_UNIT-6 ""
*MEAS_COND_AXIS_UNIT-7 ""
*MEAS_COND_AXIS_UNIT-8 ""
*MEAS_COND_AXIS_UNIT-9 ""
*MEAS_COND_AXIS_UNIT-10 ""
*MEAS_COND_AXIS_UNIT-11 "V"
*MEAS_COND_AXIS_UNIT-12 "mV"
*MEAS_COND_CORRECTION_SLIT_COUNTERMONO "None"
*MEAS_COND_CORRECTION_SLIT_DS "1.250deg"
*MEAS_COND_CORRECTION_SLIT_FILTER "None"
*MEAS_COND_CORRECTION_SLIT_IHS "10.0mm"
*MEAS_COND_CORRECTION_SLIT_RS "0.3mm"
*MEAS_COND_CORRECTION_SLIT_SOLLER_INC "5.0deg"
*MEAS_COND_CORRECTION_SLIT_SOLLER_REC "5.0deg"
*MEAS_COND_CORRECTION_SLIT_SS "1.250deg"
*MEAS_COND_COUNTER_CNTLOSS_CORR "0.0000000000"
*MEAS_COND_COUNTER_PHABASE "551.2500000000"
*MEAS_COND_COUNTER_PHAWINDOW "926.2500000000"
*MEAS_COND_COUNTER_PHA_UNIT "mV"
*MEAS_COND_COUNTER_TAUDIFF "0.2500000000"
*MEAS_COND_COUNTER_TAUINT "0.7500000000"
*MEAS_COND_IRRADIATION_MODE "OFF"
*MEAS_COND_IRRADIATION_WIDTH ""
*MEAS_COND_OPT_ATTR " "
*MEAS_COND_OPT_NAME ""
*MEAS_COND_UNSYMMETRIC_MODE "OFF"
*MEAS_COND_XG_CURRENT "15.0000000000"
*MEAS_COND_XG_VOLTAGE "40.0000000000"
*MEAS_COND_XG_WAVE_TYPE "Ka"
*MEAS_DATA_COUNT "3001.0000000000"
*MEAS_SCAN_AXIS_X "Theta/2-Theta"
*MEAS_SCAN_AXIS_X_INTERNAL "TwoThetaTheta"
*MEAS_SCAN_END_TIME "05/06/25 22:41:09"
*MEAS_SCAN_MODE "STEP"
*MEAS_SCAN_MONITOR "0"
*MEAS_SCAN_RESOLUTION_X "0.0025"
*MEAS_SCAN_SPEED "2.00"
*MEAS_SCAN_SPEED_UNIT "sec."
*MEAS_SCAN_SPEED_USER "2.00"
*MEAS_SCAN_START "5.0000000000"
*MEAS_SCAN_START_TIME "05/06/25 20:55:53"
*MEAS_SCAN_STEP "0.0200000000"
*MEAS_SCAN_STOP "65.0000000000"
*MEAS_SCAN_UNIT_X "deg"
*MEAS_SCAN_UNIT_Y "counts"
*SLIT_SYSTEM "0"
*RAS_HEADER_END
*RAS_INT_START
5.0000 922.0000 1.0000
5.0200 900.0000 1.0000
5.0400 889.0000 1.0000
5.0600 1030.0000 1.0000
5.0800 908.0000 1.0000
5.1000 941.0000 1.0000
5.1200 915.0000 1.0000
5.1400 890.0000 1.0000
5.1600 869.0000 1.0000
5.1800 937.0000 1.0000
5.2000 887.0000 1.0000
5.2200 887.0000 1.0000
5.2400 909.0000 1.0000
5.2600 845.0000 1.0000
5.2800 824.0000 1.0000
5.3000 923.0000 1.0000
5.3200 902.0000 1.0000
5.3400 867.0000 1.0000
5.3600 902.0000 1.0000
5.3800 823.0000 1.0000
5.4000 878.0000 1.0000
5.4200 806.0000 1.0000
5.4400 786.0000 1.0000
5.4600 838.0000 1.0000
5.4800 872.0000 1.0000
5.5000 771.0000 1.0000
5.5200 798.0000 1.0000
5.5400 816.0000 1.0000
5.5600 816.0000 1.0000
5.5800 823.0000 1.0000
5.6000 777.0000 1.0000
5.6200 751.0000 1.0000
5.6400 755.0000 1.0000
5.6600 815.0000 1.0000
5.6800 838.0000 1.0000
5.7000 691.0000 1.0000
5.7200 712.0000 1.0000
5.7400 778.0000 1.0000
5.7600 768.0000 1.0000
5.7800 737.0000 1.0000
5.8000 753.0000 1.0000
5.8200 693.0000 1.0000
5.8400 739.0000 1.0000
5.8600 749.0000 1.0000
5.8800 705.0000 1.0000
5.9000 674.0000 1.0000
5.9200 716.0000 1.0000
5.9400 742.0000 1.0000
5.9600 708.0000 1.0000
5.9800 740.0000 1.0000
6.0000 766.0000 1.0000
6.0200 723.0000 1.0000
6.0400 677.0000 1.0000
6.0600 666.0000 1.0000
6.0800 676.0000 1.0000
6.1000 683.0000 1.0000
6.1200 610.0000 1.0000
6.1400 669.0000 1.0000
6.1600 661.0000 1.0000
6.1800 653.0000 1.0000
6.2000 693.0000 1.0000
6.2200 655.0000 1.0000
6.2400 632.0000 1.0000
6.2600 692.0000 1.0000
6.2800 678.0000 1.0000
6.3000 631.0000 1.0000
6.3200 626.0000 1.0000
6.3400 651.0000 1.0000
6.3600 672.0000 1.0000
6.3800 650.0000 1.0000
6.4000 636.0000 1.0000
6.4200 625.0000 1.0000
6.4400 592.0000 1.0000
6.4600 575.0000 1.0000
6.4800 614.0000 1.0000
6.5000 586.0000 1.0000
6.5200 561.0000 1.0000
6.5400 614.0000 1.0000
6.5600 584.0000 1.0000
6.5800 528.0000 1.0000
6.6000 521.0000 1.0000
6.6200 516.0000 1.0000
6.6400 537.0000 1.0000
6.6600 550.0000 1.0000
6.6800 593.0000 1.0000
6.7000 585.0000 1.0000
6.7200 573.0000 1.0000
6.7400 576.0000 1.0000
6.7600 577.0000 1.0000
6.7800 603.0000 1.0000
6.8000 547.0000 1.0000
6.8200 550.0000 1.0000
6.8400 571.0000 1.0000
6.8600 561.0000 1.0000
6.8800 570.0000 1.0000
6.9000 547.0000 1.0000
6.9200 516.0000 1.0000
6.9400 538.0000 1.0000
6.9600 542.0000 1.0000
6.9800 527.0000 1.0000
7.0000 539.0000 1.0000
7.0200 553.0000 1.0000
7.0400 549.0000 1.0000
7.0600 556.0000 1.0000
7.0800 525.0000 1.0000
7.1000 471.0000 1.0000
7.1200 459.0000 1.0000
7.1400 484.0000 1.0000
7.1600 498.0000 1.0000
7.1800 481.0000 1.0000
7.2000 470.0000 1.0000
7.2200 476.0000 1.0000
7.2400 482.0000 1.0000
7.2600 484.0000 1.0000
7.2800 485.0000 1.0000
7.3000 494.0000 1.0000
7.3200 482.0000 1.0000
7.3400 456.0000 1.0000
7.3600 467.0000 1.0000
7.3800 466.0000 1.0000
7.4000 477.0000 1.0000
7.4200 473.0000 1.0000
7.4400 429.0000 1.0000
7.4600 421.0000 1.0000
7.4800 420.0000 1.0000
7.5000 421.0000 1.0000
7.5200 442.0000 1.0000
7.5400 441.0000 1.0000
7.5600 435.0000 1.0000
7.5800 416.0000 1.0000
7.6000 420.0000 1.0000
7.6200 439.0000 1.0000
7.6400 445.0000 1.0000
7.6600 446.0000 1.0000
7.6800 457.0000 1.0000
7.7000 466.0000 1.0000
7.7200 457.0000 1.0000
7.7400 459.0000 1.0000
7.7600 448.0000 1.0000
7.7800 430.0000 1.0000
7.8000 448.0000 1.0000
7.8200 449.0000 1.0000
7.8400 419.0000 1.0000
7.8600 418.0000 1.0000
7.8800 458.0000 1.0000
7.9000 449.0000 1.0000
7.9200 443.0000 1.0000
7.9400 454.0000 1.0000
7.9600 437.0000 1.0000
7.9800 449.0000 1.0000
8.0000 476.0000 1.0000
8.0200 468.0000 1.0000
8.0400 472.0000 1.0000
8.0600 459.0000 1.0000
8.0800 432.0000 1.0000
8.1000 392.0000 1.0000
8.1200 430.0000 1.0000
8.1400 445.0000 1.0000
8.1600 449.0000 1.0000
8.1800 436.0000 1.0000
8.2000 435.0000 1.0000
8.2200 493.0000 1.0000
8.2400 506.0000 1.0000
8.2600 477.0000 1.0000
8.2800 483.0000 1.0000
8.3000 482.0000 1.0000
8.3200 525.0000 1.0000
8.3400 535.0000 1.0000
8.3600 507.0000 1.0000
8.3800 497.0000 1.0000
8.4000 509.0000 1.0000
8.4200 521.0000 1.0000
8.4400 556.0000 1.0000
8.4600 587.0000 1.0000
8.4800 663.0000 1.0000
8.5000 651.0000 1.0000
8.5200 671.0000 1.0000
8.5400 624.0000 1.0000
8.5600 631.0000 1.0000
8.5800 618.0000 1.0000
8.6000 617.0000 1.0000
8.6200 611.0000 1.0000
8.6400 573.0000 1.0000
8.6600 539.0000 1.0000
8.6800 497.0000 1.0000
8.7000 494.0000 1.0000
8.7200 461.0000 1.0000
8.7400 404.0000 1.0000
8.7600 399.0000 1.0000
8.7800 389.0000 1.0000
8.8000 384.0000 1.0000
8.8200 375.0000 1.0000
8.8400 351.0000 1.0000
8.8600 331.0000 1.0000
8.8800 318.0000 1.0000
8.9000 319.0000 1.0000
8.9200 337.0000 1.0000
8.9400 345.0000 1.0000
8.9600 363.0000 1.0000
8.9800 356.0000 1.0000
9.0000 357.0000 1.0000
9.0200 342.0000 1.0000
9.0400 362.0000 1.0000
9.0600 367.0000 1.0000
9.0800 370.0000 1.0000
9.1000 353.0000 1.0000
9.1200 387.0000 1.0000
9.1400 360.0000 1.0000
9.1600 312.0000 1.0000
9.1800 332.0000 1.0000
9.2000 341.0000 1.0000
9.2200 357.0000 1.0000
9.2400 309.0000 1.0000
9.2600 289.0000 1.0000
9.2800 338.0000 1.0000
9.3000 301.0000 1.0000
9.3200 305.0000 1.0000
9.3400 300.0000 1.0000
9.3600 319.0000 1.0000
9.3800 287.0000 1.0000
9.4000 398.0000 1.0000
9.4200 327.0000 1.0000
9.4400 368.0000 1.0000
9.4600 314.0000 1.0000
9.4800 329.0000 1.0000
9.5000 380.0000 1.0000
9.5200 359.0000 1.0000
9.5400 366.0000 1.0000
9.5600 340.0000 1.0000
9.5800 310.0000 1.0000
9.6000 306.0000 1.0000
9.6200 289.0000 1.0000
9.6400 295.0000 1.0000
9.6600 275.0000 1.0000
9.6800 297.0000 1.0000
9.7000 268.0000 1.0000
9.7200 300.0000 1.0000
9.7400 263.0000 1.0000
9.7600 260.0000 1.0000
9.7800 273.0000 1.0000
9.8000 284.0000 1.0000
9.8200 259.0000 1.0000
9.8400 253.0000 1.0000
9.8600 292.0000 1.0000
9.8800 284.0000 1.0000
9.9000 257.0000 1.0000
9.9200 286.0000 1.0000
9.9400 333.0000 1.0000
9.9600 317.0000 1.0000
9.9800 371.0000 1.0000
10.0000 335.0000 1.0000
10.0200 431.0000 1.0000
10.0400 419.0000 1.0000
10.0600 424.0000 1.0000
10.0800 504.0000 1.0000
10.1000 592.0000 1.0000
10.1200 586.0000 1.0000
10.1400 712.0000 1.0000
10.1600 686.0000 1.0000
10.1800 830.0000 1.0000
10.2000 913.0000 1.0000
10.2200 1103.0000 1.0000
10.2400 1165.0000 1.0000
10.2600 1253.0000 1.0000
10.2800 1151.0000 1.0000
10.3000 1034.0000 1.0000
10.3200 801.0000 1.0000
10.3400 591.0000 1.0000
10.3600 393.0000 1.0000
10.3800 335.0000 1.0000
10.4000 324.0000 1.0000
10.4200 267.0000 1.0000
10.4400 231.0000 1.0000
10.4600 234.0000 1.0000
10.4800 209.0000 1.0000
10.5000 228.0000 1.0000
10.5200 215.0000 1.0000
10.5400 223.0000 1.0000
10.5600 218.0000 1.0000
10.5800 198.0000 1.0000
10.6000 208.0000 1.0000
10.6200 197.0000 1.0000
10.6400 216.0000 1.0000
10.6600 182.0000 1.0000
10.6800 219.0000 1.0000
10.7000 213.0000 1.0000
10.7200 208.0000 1.0000
10.7400 171.0000 1.0000
10.7600 195.0000 1.0000
10.7800 208.0000 1.0000
10.8000 192.0000 1.0000
10.8200 200.0000 1.0000
10.8400 207.0000 1.0000
10.8600 207.0000 1.0000
10.8800 172.0000 1.0000
10.9000 196.0000 1.0000
10.9200 164.0000 1.0000
10.9400 205.0000 1.0000
10.9600 191.0000 1.0000
10.9800 165.0000 1.0000
11.0000 201.0000 1.0000
11.0200 200.0000 1.0000
11.0400 190.0000 1.0000
11.0600 171.0000 1.0000
11.0800 175.0000 1.0000
11.1000 177.0000 1.0000
11.1200 212.0000 1.0000
11.1400 215.0000 1.0000
11.1600 184.0000 1.0000
11.1800 164.0000 1.0000
11.2000 175.0000 1.0000
11.2200 170.0000 1.0000
11.2400 213.0000 1.0000
11.2600 186.0000 1.0000
11.2800 169.0000 1.0000
11.3000 136.0000 1.0000
11.3200 208.0000 1.0000
11.3400 162.0000 1.0000
11.3600 142.0000 1.0000
11.3800 148.0000 1.0000
11.4000 166.0000 1.0000
11.4200 159.0000 1.0000
11.4400 167.0000 1.0000
11.4600 189.0000 1.0000
11.4800 189.0000 1.0000
11.5000 176.0000 1.0000
11.5200 180.0000 1.0000
11.5400 167.0000 1.0000
11.5600 154.0000 1.0000
11.5800 174.0000 1.0000
11.6000 142.0000 1.0000
11.6200 167.0000 1.0000
11.6400 182.0000 1.0000
11.6600 162.0000 1.0000
11.6800 173.0000 1.0000
11.7000 163.0000 1.0000
11.7200 169.0000 1.0000
11.7400 169.0000 1.0000
11.7600 159.0000 1.0000
11.7800 170.0000 1.0000
11.8000 168.0000 1.0000
11.8200 163.0000 1.0000
11.8400 142.0000 1.0000
11.8600 181.0000 1.0000
11.8800 165.0000 1.0000
11.9000 156.0000 1.0000
11.9200 166.0000 1.0000
11.9400 163.0000 1.0000
11.9600 174.0000 1.0000
11.9800 161.0000 1.0000
12.0000 153.0000 1.0000
12.0200 180.0000 1.0000
12.0400 186.0000 1.0000
12.0600 183.0000 1.0000
12.0800 172.0000 1.0000
12.1000 144.0000 1.0000
12.1200 179.0000 1.0000
12.1400 160.0000 1.0000
12.1600 180.0000 1.0000
12.1800 203.0000 1.0000
12.2000 193.0000 1.0000
12.2200 178.0000 1.0000
12.2400 182.0000 1.0000
12.2600 194.0000 1.0000
12.2800 204.0000 1.0000
12.3000 239.0000 1.0000
12.3200 196.0000 1.0000
12.3400 200.0000 1.0000
12.3600 201.0000 1.0000
12.3800 196.0000 1.0000
12.4000 178.0000 1.0000
12.4200 191.0000 1.0000
12.4400 186.0000 1.0000
12.4600 194.0000 1.0000
12.4800 148.0000 1.0000
12.5000 142.0000 1.0000
12.5200 161.0000 1.0000
12.5400 146.0000 1.0000
12.5600 147.0000 1.0000
12.5800 149.0000 1.0000
12.6000 169.0000 1.0000
12.6200 157.0000 1.0000
12.6400 169.0000 1.0000
12.6600 176.0000 1.0000
12.6800 173.0000 1.0000
12.7000 175.0000 1.0000
12.7200 159.0000 1.0000
12.7400 170.0000 1.0000
12.7600 173.0000 1.0000
12.7800 162.0000 1.0000
12.8000 148.0000 1.0000
12.8200 158.0000 1.0000
12.8400 162.0000 1.0000
12.8600 153.0000 1.0000
12.8800 166.0000 1.0000
12.9000 165.0000 1.0000
12.9200 143.0000 1.0000
12.9400 163.0000 1.0000
12.9600 165.0000 1.0000
12.9800 137.0000 1.0000
13.0000 161.0000 1.0000
13.0200 172.0000 1.0000
13.0400 142.0000 1.0000
13.0600 136.0000 1.0000
13.0800 149.0000 1.0000
13.1000 154.0000 1.0000
13.1200 161.0000 1.0000
13.1400 162.0000 1.0000
13.1600 162.0000 1.0000
13.1800 156.0000 1.0000
13.2000 149.0000 1.0000
13.2200 171.0000 1.0000
13.2400 172.0000 1.0000
13.2600 169.0000 1.0000
13.2800 180.0000 1.0000
13.3000 194.0000 1.0000
13.3200 202.0000 1.0000
13.3400 202.0000 1.0000
13.3600 210.0000 1.0000
13.3800 234.0000 1.0000
13.4000 243.0000 1.0000
13.4200 236.0000 1.0000
13.4400 245.0000 1.0000
13.4600 266.0000 1.0000
13.4800 278.0000 1.0000
13.5000 308.0000 1.0000
13.5200 286.0000 1.0000
13.5400 271.0000 1.0000
13.5600 301.0000 1.0000
13.5800 343.0000 1.0000
13.6000 384.0000 1.0000
13.6200 404.0000 1.0000
13.6400 413.0000 1.0000
13.6600 447.0000 1.0000
13.6800 450.0000 1.0000
13.7000 430.0000 1.0000
13.7200 340.0000 1.0000
13.7400 309.0000 1.0000
13.7600 265.0000 1.0000
13.7800 234.0000 1.0000
13.8000 207.0000 1.0000
13.8200 207.0000 1.0000
13.8400 203.0000 1.0000
13.8600 176.0000 1.0000
13.8800 151.0000 1.0000
13.9000 137.0000 1.0000
13.9200 136.0000 1.0000
13.9400 129.0000 1.0000
13.9600 142.0000 1.0000
13.9800 159.0000 1.0000
14.0000 142.0000 1.0000
14.0200 136.0000 1.0000
14.0400 156.0000 1.0000
14.0600 130.0000 1.0000
14.0800 130.0000 1.0000
14.1000 150.0000 1.0000
14.1200 135.0000 1.0000
14.1400 126.0000 1.0000
14.1600 119.0000 1.0000
14.1800 128.0000 1.0000
14.2000 121.0000 1.0000
14.2200 133.0000 1.0000
14.2400 131.0000 1.0000
14.2600 123.0000 1.0000
14.2800 110.0000 1.0000
14.3000 111.0000 1.0000
14.3200 135.0000 1.0000
14.3400 145.0000 1.0000
14.3600 129.0000 1.0000
14.3800 125.0000 1.0000
14.4000 135.0000 1.0000
14.4200 143.0000 1.0000
14.4400 143.0000 1.0000
14.4600 142.0000 1.0000
14.4800 131.0000 1.0000
14.5000 136.0000 1.0000
14.5200 139.0000 1.0000
14.5400 129.0000 1.0000
14.5600 141.0000 1.0000
14.5800 143.0000 1.0000
14.6000 149.0000 1.0000
14.6200 147.0000 1.0000
14.6400 147.0000 1.0000
14.6600 160.0000 1.0000
14.6800 147.0000 1.0000
14.7000 146.0000 1.0000
14.7200 160.0000 1.0000
14.7400 185.0000 1.0000
14.7600 192.0000 1.0000
14.7800 195.0000 1.0000
14.8000 195.0000 1.0000
14.8200 191.0000 1.0000
14.8400 194.0000 1.0000
14.8600 190.0000 1.0000
14.8800 184.0000 1.0000
14.9000 181.0000 1.0000
14.9200 173.0000 1.0000
14.9400 160.0000 1.0000
14.9600 146.0000 1.0000
14.9800 132.0000 1.0000
15.0000 130.0000 1.0000
15.0200 125.0000 1.0000
15.0400 131.0000 1.0000
15.0600 131.0000 1.0000
15.0800 132.0000 1.0000
15.1000 130.0000 1.0000
15.1200 125.0000 1.0000
15.1400 132.0000 1.0000
15.1600 135.0000 1.0000
15.1800 128.0000 1.0000
15.2000 127.0000 1.0000
15.2200 118.0000 1.0000
15.2400 114.0000 1.0000
15.2600 126.0000 1.0000
15.2800 131.0000 1.0000
15.3000 131.0000 1.0000
15.3200 134.0000 1.0000
15.3400 144.0000 1.0000
15.3600 141.0000 1.0000
15.3800 135.0000 1.0000
15.4000 141.0000 1.0000
15.4200 151.0000 1.0000
15.4400 146.0000 1.0000
15.4600 136.0000 1.0000
15.4800 123.0000 1.0000
15.5000 127.0000 1.0000
15.5200 148.0000 1.0000
15.5400 164.0000 1.0000
15.5600 166.0000 1.0000
15.5800 168.0000 1.0000
15.6000 167.0000 1.0000
15.6200 151.0000 1.0000
15.6400 144.0000 1.0000
15.6600 146.0000 1.0000
15.6800 136.0000 1.0000
15.7000 137.0000 1.0000
15.7200 135.0000 1.0000
15.7400 138.0000 1.0000
15.7600 131.0000 1.0000
15.7800 123.0000 1.0000
15.8000 122.0000 1.0000
15.8200 123.0000 1.0000
15.8400 118.0000 1.0000
15.8600 126.0000 1.0000
15.8800 140.0000 1.0000
15.9000 139.0000 1.0000
15.9200 121.0000 1.0000
15.9400 125.0000 1.0000
15.9600 130.0000 1.0000
15.9800 123.0000 1.0000
16.0000 125.0000 1.0000
16.0200 115.0000 1.0000
16.0400 117.0000 1.0000
16.0600 105.0000 1.0000
16.0800 119.0000 1.0000
16.1000 133.0000 1.0000
16.1200 115.0000 1.0000
16.1400 117.0000 1.0000
16.1600 126.0000 1.0000
16.1800 122.0000 1.0000
16.2000 120.0000 1.0000
16.2200 115.0000 1.0000
16.2400 112.0000 1.0000
16.2600 122.0000 1.0000
16.2800 119.0000 1.0000
16.3000 120.0000 1.0000
16.3200 126.0000 1.0000
16.3400 119.0000 1.0000
16.3600 104.0000 1.0000
16.3800 101.0000 1.0000
16.4000 114.0000 1.0000
16.4200 124.0000 1.0000
16.4400 124.0000 1.0000
16.4600 125.0000 1.0000
16.4800 127.0000 1.0000
16.5000 117.0000 1.0000
16.5200 119.0000 1.0000
16.5400 123.0000 1.0000
16.5600 124.0000 1.0000
16.5800 122.0000 1.0000
16.6000 119.0000 1.0000
16.6200 118.0000 1.0000
16.6400 124.0000 1.0000
16.6600 124.0000 1.0000
16.6800 118.0000 1.0000
16.7000 127.0000 1.0000
16.7200 129.0000 1.0000
16.7400 120.0000 1.0000
16.7600 107.0000 1.0000
16.7800 122.0000 1.0000
16.8000 118.0000 1.0000
16.8200 124.0000 1.0000
16.8400 124.0000 1.0000
16.8600 109.0000 1.0000
16.8800 120.0000 1.0000
16.9000 113.0000 1.0000
16.9200 110.0000 1.0000
16.9400 126.0000 1.0000
16.9600 128.0000 1.0000
16.9800 120.0000 1.0000
17.0000 129.0000 1.0000
17.0200 130.0000 1.0000
17.0400 129.0000 1.0000
17.0600 143.0000 1.0000
17.0800 132.0000 1.0000
17.1000 126.0000 1.0000
17.1200 148.0000 1.0000
17.1400 128.0000 1.0000
17.1600 138.0000 1.0000
17.1800 127.0000 1.0000
17.2000 130.0000 1.0000
17.2200 139.0000 1.0000
17.2400 125.0000 1.0000
17.2600 122.0000 1.0000
17.2800 140.0000 1.0000
17.3000 139.0000 1.0000
17.3200 131.0000 1.0000
17.3400 118.0000 1.0000
17.3600 138.0000 1.0000
17.3800 154.0000 1.0000
17.4000 135.0000 1.0000
17.4200 136.0000 1.0000
17.4400 153.0000 1.0000
17.4600 157.0000 1.0000
17.4800 154.0000 1.0000
17.5000 124.0000 1.0000
17.5200 135.0000 1.0000
17.5400 141.0000 1.0000
17.5600 146.0000 1.0000
17.5800 144.0000 1.0000
17.6000 141.0000 1.0000
17.6200 154.0000 1.0000
17.6400 147.0000 1.0000
17.6600 148.0000 1.0000
17.6800 148.0000 1.0000
17.7000 141.0000 1.0000
17.7200 137.0000 1.0000
17.7400 146.0000 1.0000
17.7600 153.0000 1.0000
17.7800 160.0000 1.0000
17.8000 154.0000 1.0000
17.8200 164.0000 1.0000
17.8400 166.0000 1.0000
17.8600 174.0000 1.0000
17.8800 150.0000 1.0000
17.9000 133.0000 1.0000
17.9200 137.0000 1.0000
17.9400 131.0000 1.0000
17.9600 130.0000 1.0000
17.9800 139.0000 1.0000
18.0000 121.0000 1.0000
18.0200 131.0000 1.0000
18.0400 122.0000 1.0000
18.0600 129.0000 1.0000
18.0800 127.0000 1.0000
18.1000 119.0000 1.0000
18.1200 114.0000 1.0000
18.1400 129.0000 1.0000
18.1600 129.0000 1.0000
18.1800 120.0000 1.0000
18.2000 127.0000 1.0000
18.2200 129.0000 1.0000
18.2400 117.0000 1.0000
18.2600 127.0000 1.0000
18.2800 116.0000 1.0000
18.3000 129.0000 1.0000
18.3200 141.0000 1.0000
18.3400 131.0000 1.0000
18.3600 128.0000 1.0000
18.3800 128.0000 1.0000
18.4000 138.0000 1.0000
18.4200 150.0000 1.0000
18.4400 138.0000 1.0000
18.4600 136.0000 1.0000
18.4800 143.0000 1.0000
18.5000 148.0000 1.0000
18.5200 149.0000 1.0000
18.5400 126.0000 1.0000
18.5600 143.0000 1.0000
18.5800 147.0000 1.0000
18.6000 142.0000 1.0000
18.6200 174.0000 1.0000
18.6400 142.0000 1.0000
18.6600 145.0000 1.0000
18.6800 168.0000 1.0000
18.7000 160.0000 1.0000
18.7200 159.0000 1.0000
18.7400 154.0000 1.0000
18.7600 170.0000 1.0000
18.7800 154.0000 1.0000
18.8000 148.0000 1.0000
18.8200 132.0000 1.0000
18.8400 150.0000 1.0000
18.8600 166.0000 1.0000
18.8800 147.0000 1.0000
18.9000 152.0000 1.0000
18.9200 161.0000 1.0000
18.9400 149.0000 1.0000
18.9600 139.0000 1.0000
18.9800 161.0000 1.0000
19.0000 153.0000 1.0000
19.0200 144.0000 1.0000
19.0400 182.0000 1.0000
19.0600 142.0000 1.0000
19.0800 164.0000 1.0000
19.1000 166.0000 1.0000
19.1200 160.0000 1.0000
19.1400 159.0000 1.0000
19.1600 172.0000 1.0000
19.1800 172.0000 1.0000
19.2000 143.0000 1.0000
19.2200 149.0000 1.0000
19.2400 154.0000 1.0000
19.2600 188.0000 1.0000
19.2800 165.0000 1.0000
19.3000 175.0000 1.0000
19.3200 192.0000 1.0000
19.3400 203.0000 1.0000
19.3600 209.0000 1.0000
19.3800 200.0000 1.0000
19.4000 209.0000 1.0000
19.4200 221.0000 1.0000
19.4400 207.0000 1.0000
19.4600 197.0000 1.0000
19.4800 207.0000 1.0000
19.5000 200.0000 1.0000
19.5200 212.0000 1.0000
19.5400 219.0000 1.0000
19.5600 202.0000 1.0000
19.5800 222.0000 1.0000
19.6000 227.0000 1.0000
19.6200 211.0000 1.0000
19.6400 235.0000 1.0000
19.6600 207.0000 1.0000
19.6800 211.0000 1.0000
19.7000 217.0000 1.0000
19.7200 212.0000 1.0000
19.7400 191.0000 1.0000
19.7600 179.0000 1.0000
19.7800 185.0000 1.0000
19.8000 199.0000 1.0000
19.8200 207.0000 1.0000
19.8400 172.0000 1.0000
19.8600 178.0000 1.0000
19.8800 197.0000 1.0000
19.9000 156.0000 1.0000
19.9200 193.0000 1.0000
19.9400 192.0000 1.0000
19.9600 183.0000 1.0000
19.9800 181.0000 1.0000
20.0000 180.0000 1.0000
20.0200 182.0000 1.0000
20.0400 173.0000 1.0000
20.0600 177.0000 1.0000
20.0800 178.0000 1.0000
20.1000 192.0000 1.0000
20.1200 189.0000 1.0000
20.1400 176.0000 1.0000
20.1600 190.0000 1.0000
20.1800 179.0000 1.0000
20.2000 209.0000 1.0000
20.2200 209.0000 1.0000
20.2400 184.0000 1.0000
20.2600 182.0000 1.0000
20.2800 221.0000 1.0000
20.3000 230.0000 1.0000
20.3200 246.0000 1.0000
20.3400 259.0000 1.0000
20.3600 292.0000 1.0000
20.3800 337.0000 1.0000
20.4000 347.0000 1.0000
20.4200 322.0000 1.0000
20.4400 370.0000 1.0000
20.4600 437.0000 1.0000
20.4800 474.0000 1.0000
20.5000 546.0000 1.0000
20.5200 694.0000 1.0000
20.5400 815.0000 1.0000
20.5600 930.0000 1.0000
20.5800 1170.0000 1.0000
20.6000 1460.0000 1.0000
20.6200 1774.0000 1.0000
20.6400 2097.0000 1.0000
20.6600 2292.0000 1.0000
20.6800 2407.0000 1.0000
20.7000 2320.0000 1.0000
20.7200 1973.0000 1.0000
20.7400 1589.0000 1.0000
20.7600 1123.0000 1.0000
20.7800 853.0000 1.0000
20.8000 674.0000 1.0000
20.8200 532.0000 1.0000
20.8400 434.0000 1.0000
20.8600 437.0000 1.0000
20.8800 345.0000 1.0000
20.9000 339.0000 1.0000
20.9200 269.0000 1.0000
20.9400 254.0000 1.0000
20.9600 257.0000 1.0000
20.9800 214.0000 1.0000
21.0000 220.0000 1.0000
21.0200 227.0000 1.0000
21.0400 230.0000 1.0000
21.0600 241.0000 1.0000
21.0800 220.0000 1.0000
21.1000 230.0000 1.0000
21.1200 211.0000 1.0000
21.1400 203.0000 1.0000
21.1600 192.0000 1.0000
21.1800 210.0000 1.0000
21.2000 200.0000 1.0000
21.2200 192.0000 1.0000
21.2400 185.0000 1.0000
21.2600 185.0000 1.0000
21.2800 187.0000 1.0000
21.3000 196.0000 1.0000
21.3200 175.0000 1.0000
21.3400 183.0000 1.0000
21.3600 208.0000 1.0000
21.3800 190.0000 1.0000
21.4000 211.0000 1.0000
21.4200 206.0000 1.0000
21.4400 230.0000 1.0000
21.4600 232.0000 1.0000
21.4800 237.0000 1.0000
21.5000 245.0000 1.0000
21.5200 253.0000 1.0000
21.5400 242.0000 1.0000
21.5600 262.0000 1.0000
21.5800 274.0000 1.0000
21.6000 318.0000 1.0000
21.6200 372.0000 1.0000
21.6400 408.0000 1.0000
21.6600 473.0000 1.0000
21.6800 506.0000 1.0000
21.7000 630.0000 1.0000
21.7200 726.0000 1.0000
21.7400 873.0000 1.0000
21.7600 1006.0000 1.0000
21.7800 1219.0000 1.0000
21.8000 1261.0000 1.0000
21.8200 1352.0000 1.0000
21.8400 1220.0000 1.0000
21.8600 1049.0000 1.0000
21.8800 876.0000 1.0000
21.9000 747.0000 1.0000
21.9200 572.0000 1.0000
21.9400 438.0000 1.0000
21.9600 334.0000 1.0000
21.9800 282.0000 1.0000
22.0000 256.0000 1.0000
22.0200 255.0000 1.0000
22.0400 242.0000 1.0000
22.0600 213.0000 1.0000
22.0800 228.0000 1.0000
22.1000 208.0000 1.0000
22.1200 206.0000 1.0000
22.1400 206.0000 1.0000
22.1600 216.0000 1.0000
22.1800 209.0000 1.0000
22.2000 217.0000 1.0000
22.2200 206.0000 1.0000
22.2400 193.0000 1.0000
22.2600 211.0000 1.0000
22.2800 184.0000 1.0000
22.3000 199.0000 1.0000
22.3200 190.0000 1.0000
22.3400 206.0000 1.0000
22.3600 212.0000 1.0000
22.3800 201.0000 1.0000
22.4000 190.0000 1.0000
22.4200 179.0000 1.0000
22.4400 184.0000 1.0000
22.4600 182.0000 1.0000
22.4800 177.0000 1.0000
22.5000 209.0000 1.0000
22.5200 209.0000 1.0000
22.5400 197.0000 1.0000
22.5600 213.0000 1.0000
22.5800 222.0000 1.0000
22.6000 249.0000 1.0000
22.6200 242.0000 1.0000
22.6400 295.0000 1.0000
22.6600 314.0000 1.0000
22.6800 313.0000 1.0000
22.7000 325.0000 1.0000
22.7200 336.0000 1.0000
22.7400 394.0000 1.0000
22.7600 405.0000 1.0000
22.7800 428.0000 1.0000
22.8000 385.0000 1.0000
22.8200 380.0000 1.0000
22.8400 315.0000 1.0000
22.8600 289.0000 1.0000
22.8800 288.0000 1.0000
22.9000 253.0000 1.0000
22.9200 260.0000 1.0000
22.9400 247.0000 1.0000
22.9600 231.0000 1.0000
22.9800 244.0000 1.0000
23.0000 231.0000 1.0000
23.0200 251.0000 1.0000
23.0400 218.0000 1.0000
23.0600 227.0000 1.0000
23.0800 253.0000 1.0000
23.1000 254.0000 1.0000
23.1200 284.0000 1.0000
23.1400 289.0000 1.0000
23.1600 283.0000 1.0000
23.1800 290.0000 1.0000
23.2000 318.0000 1.0000
23.2200 310.0000 1.0000
23.2400 332.0000 1.0000
23.2600 341.0000 1.0000
23.2800 382.0000 1.0000
23.3000 475.0000 1.0000
23.3200 497.0000 1.0000
23.3400 568.0000 1.0000
23.3600 596.0000 1.0000
23.3800 696.0000 1.0000
23.4000 743.0000 1.0000
23.4200 752.0000 1.0000
23.4400 749.0000 1.0000
23.4600 746.0000 1.0000
23.4800 635.0000 1.0000
23.5000 541.0000 1.0000
23.5200 502.0000 1.0000
23.5400 492.0000 1.0000
23.5600 421.0000 1.0000
23.5800 416.0000 1.0000
23.6000 373.0000 1.0000
23.6200 372.0000 1.0000
23.6400 388.0000 1.0000
23.6600 444.0000 1.0000
23.6800 485.0000 1.0000
23.7000 509.0000 1.0000
23.7200 547.0000 1.0000
23.7400 569.0000 1.0000
23.7600 589.0000 1.0000
23.7800 565.0000 1.0000
23.8000 561.0000 1.0000
23.8200 532.0000 1.0000
23.8400 533.0000 1.0000
23.8600 548.0000 1.0000
23.8800 541.0000 1.0000
23.9000 518.0000 1.0000
23.9200 528.0000 1.0000
23.9400 524.0000 1.0000
23.9600 543.0000 1.0000
23.9800 600.0000 1.0000
24.0000 576.0000 1.0000
24.0200 623.0000 1.0000
24.0400 631.0000 1.0000
24.0600 705.0000 1.0000
24.0800 728.0000 1.0000
24.1000 744.0000 1.0000
24.1200 678.0000 1.0000
24.1400 670.0000 1.0000
24.1600 665.0000 1.0000
24.1800 600.0000 1.0000
24.2000 557.0000 1.0000
24.2200 475.0000 1.0000
24.2400 434.0000 1.0000
24.2600 372.0000 1.0000
24.2800 348.0000 1.0000
24.3000 293.0000 1.0000
24.3200 269.0000 1.0000
24.3400 257.0000 1.0000
24.3600 239.0000 1.0000
24.3800 215.0000 1.0000
24.4000 190.0000 1.0000
24.4200 199.0000 1.0000
24.4400 206.0000 1.0000
24.4600 200.0000 1.0000
24.4800 185.0000 1.0000
24.5000 174.0000 1.0000
24.5200 192.0000 1.0000
24.5400 177.0000 1.0000
24.5600 170.0000 1.0000
24.5800 182.0000 1.0000
24.6000 176.0000 1.0000
24.6200 180.0000 1.0000
24.6400 181.0000 1.0000
24.6600 189.0000 1.0000
24.6800 196.0000 1.0000
24.7000 207.0000 1.0000
24.7200 177.0000 1.0000
24.7400 174.0000 1.0000
24.7600 177.0000 1.0000
24.7800 174.0000 1.0000
24.8000 170.0000 1.0000
24.8200 167.0000 1.0000
24.8400 201.0000 1.0000
24.8600 194.0000 1.0000
24.8800 184.0000 1.0000
24.9000 202.0000 1.0000
24.9200 195.0000 1.0000
24.9400 208.0000 1.0000
24.9600 223.0000 1.0000
24.9800 223.0000 1.0000
25.0000 232.0000 1.0000
25.0200 234.0000 1.0000
25.0400 236.0000 1.0000
25.0600 248.0000 1.0000
25.0800 281.0000 1.0000
25.1000 307.0000 1.0000
25.1200 326.0000 1.0000
25.1400 339.0000 1.0000
25.1600 362.0000 1.0000
25.1800 398.0000 1.0000
25.2000 449.0000 1.0000
25.2200 515.0000 1.0000
25.2400 600.0000 1.0000
25.2600 707.0000 1.0000
25.2800 863.0000 1.0000
25.3000 1015.0000 1.0000
25.3200 1165.0000 1.0000
25.3400 1358.0000 1.0000
25.3600 1524.0000 1.0000
25.3800 1593.0000 1.0000
25.4000 1534.0000 1.0000
25.4200 1450.0000 1.0000
25.4400 1307.0000 1.0000
25.4600 1134.0000 1.0000
25.4800 930.0000 1.0000
25.5000 731.0000 1.0000
25.5200 619.0000 1.0000
25.5400 491.0000 1.0000
25.5600 402.0000 1.0000
25.5800 375.0000 1.0000
25.6000 356.0000 1.0000
25.6200 338.0000 1.0000
25.6400 309.0000 1.0000
25.6600 292.0000 1.0000
25.6800 294.0000 1.0000
25.7000 289.0000 1.0000
25.7200 283.0000 1.0000
25.7400 274.0000 1.0000
25.7600 276.0000 1.0000
25.7800 298.0000 1.0000
25.8000 293.0000 1.0000
25.8200 302.0000 1.0000
25.8400 316.0000 1.0000
25.8600 327.0000 1.0000
25.8800 332.0000 1.0000
25.9000 357.0000 1.0000
25.9200 383.0000 1.0000
25.9400 410.0000 1.0000
25.9600 439.0000 1.0000
25.9800 468.0000 1.0000
26.0000 507.0000 1.0000
26.0200 563.0000 1.0000
26.0400 616.0000 1.0000
26.0600 636.0000 1.0000
26.0800 664.0000 1.0000
26.1000 718.0000 1.0000
26.1200 777.0000 1.0000
26.1400 828.0000 1.0000
26.1600 932.0000 1.0000
26.1800 1056.0000 1.0000
26.2000 1171.0000 1.0000
26.2200 1377.0000 1.0000
26.2400 1634.0000 1.0000
26.2600 1948.0000 1.0000
26.2800 2300.0000 1.0000
26.3000 2712.0000 1.0000
26.3200 3345.0000 1.0000
26.3400 4164.0000 1.0000
26.3600 5230.0000 1.0000
26.3800 6691.0000 1.0000
26.4000 8466.0000 1.0000
26.4200 9883.0000 1.0000
26.4400 10879.0000 1.0000
26.4600 11174.0000 1.0000
26.4800 10646.0000 1.0000
26.5000 9278.0000 1.0000
26.5200 7507.0000 1.0000
26.5400 5692.0000 1.0000
26.5600 4060.0000 1.0000
26.5800 2813.0000 1.0000
26.6000 1913.0000 1.0000
26.6200 1372.0000 1.0000
26.6400 1041.0000 1.0000
26.6600 848.0000 1.0000
26.6800 783.0000 1.0000
26.7000 742.0000 1.0000
26.7200 703.0000 1.0000
26.7400 700.0000 1.0000
26.7600 659.0000 1.0000
26.7800 631.0000 1.0000
26.8000 643.0000 1.0000
26.8200 664.0000 1.0000
26.8400 679.0000 1.0000
26.8600 669.0000 1.0000
26.8800 671.0000 1.0000
26.9000 661.0000 1.0000
26.9200 637.0000 1.0000
26.9400 585.0000 1.0000
26.9600 523.0000 1.0000
26.9800 487.0000 1.0000
27.0000 461.0000 1.0000
27.0200 436.0000 1.0000
27.0400 419.0000 1.0000
27.0600 419.0000 1.0000
27.0800 427.0000 1.0000
27.1000 443.0000 1.0000
27.1200 443.0000 1.0000
27.1400 446.0000 1.0000
27.1600 471.0000 1.0000
27.1800 492.0000 1.0000
27.2000 523.0000 1.0000
27.2200 577.0000 1.0000
27.2400 643.0000 1.0000
27.2600 701.0000 1.0000
27.2800 751.0000 1.0000
27.3000 799.0000 1.0000
27.3200 834.0000 1.0000
27.3400 838.0000 1.0000
27.3600 842.0000 1.0000
27.3800 837.0000 1.0000
27.4000 824.0000 1.0000
27.4200 814.0000 1.0000
27.4400 818.0000 1.0000
27.4600 923.0000 1.0000
27.4800 1050.0000 1.0000
27.5000 1223.0000 1.0000
27.5200 1491.0000 1.0000
27.5400 1686.0000 1.0000
27.5600 1828.0000 1.0000
27.5800 2035.0000 1.0000
27.6000 2233.0000 1.0000
27.6200 2320.0000 1.0000
27.6400 2360.0000 1.0000
27.6600 2457.0000 1.0000
27.6800 2602.0000 1.0000
27.7000 2626.0000 1.0000
27.7200 2633.0000 1.0000
27.7400 2788.0000 1.0000
27.7600 2875.0000 1.0000
27.7800 2916.0000 1.0000
27.8000 2987.0000 1.0000
27.8200 2876.0000 1.0000
27.8400 2678.0000 1.0000
27.8600 2406.0000 1.0000
27.8800 2045.0000 1.0000
27.9000 1736.0000 1.0000
27.9200 1397.0000 1.0000
27.9400 1098.0000 1.0000
27.9600 949.0000 1.0000
27.9800 865.0000 1.0000
28.0000 783.0000 1.0000
28.0200 795.0000 1.0000
28.0400 787.0000 1.0000
28.0600 771.0000 1.0000
28.0800 814.0000 1.0000
28.1000 826.0000 1.0000
28.1200 799.0000 1.0000
28.1400 760.0000 1.0000
28.1600 740.0000 1.0000
28.1800 724.0000 1.0000
28.2000 673.0000 1.0000
28.2200 618.0000 1.0000
28.2400 605.0000 1.0000
28.2600 578.0000 1.0000
28.2800 512.0000 1.0000
28.3000 449.0000 1.0000
28.3200 422.0000 1.0000
28.3400 378.0000 1.0000
28.3600 328.0000 1.0000
28.3800 284.0000 1.0000
28.4000 274.0000 1.0000
28.4200 247.0000 1.0000
28.4400 204.0000 1.0000
28.4600 206.0000 1.0000
28.4800 228.0000 1.0000
28.5000 217.0000 1.0000
28.5200 205.0000 1.0000
28.5400 182.0000 1.0000
28.5600 169.0000 1.0000
28.5800 168.0000 1.0000
28.6000 175.0000 1.0000
28.6200 175.0000 1.0000
28.6400 176.0000 1.0000
28.6600 176.0000 1.0000
28.6800 176.0000 1.0000
28.7000 163.0000 1.0000
28.7200 159.0000 1.0000
28.7400 151.0000 1.0000
28.7600 145.0000 1.0000
28.7800 154.0000 1.0000
28.8000 160.0000 1.0000
28.8200 166.0000 1.0000
28.8400 182.0000 1.0000
28.8600 175.0000 1.0000
28.8800 177.0000 1.0000
28.9000 169.0000 1.0000
28.9200 165.0000 1.0000
28.9400 168.0000 1.0000
28.9600 159.0000 1.0000
28.9800 169.0000 1.0000
29.0000 174.0000 1.0000
29.0200 167.0000 1.0000
29.0400 176.0000 1.0000
29.0600 179.0000 1.0000
29.0800 181.0000 1.0000
29.1000 189.0000 1.0000
29.1200 177.0000 1.0000
29.1400 182.0000 1.0000
29.1600 186.0000 1.0000
29.1800 188.0000 1.0000
29.2000 200.0000 1.0000
29.2200 208.0000 1.0000
29.2400 222.0000 1.0000
29.2600 223.0000 1.0000
29.2800 208.0000 1.0000
29.3000 215.0000 1.0000
29.3200 235.0000 1.0000
29.3400 239.0000 1.0000
29.3600 242.0000 1.0000
29.3800 258.0000 1.0000
29.4000 263.0000 1.0000
29.4200 268.0000 1.0000
29.4400 300.0000 1.0000
29.4600 306.0000 1.0000
29.4800 329.0000 1.0000
29.5000 356.0000 1.0000
29.5200 354.0000 1.0000
29.5400 375.0000 1.0000
29.5600 407.0000 1.0000
29.5800 430.0000 1.0000
29.6000 419.0000 1.0000
29.6200 437.0000 1.0000
29.6400 481.0000 1.0000
29.6600 478.0000 1.0000
29.6800 433.0000 1.0000
29.7000 400.0000 1.0000
29.7200 398.0000 1.0000
29.7400 393.0000 1.0000
29.7600 362.0000 1.0000
29.7800 370.0000 1.0000
29.8000 350.0000 1.0000
29.8200 358.0000 1.0000
29.8400 363.0000 1.0000
29.8600 354.0000 1.0000
29.8800 332.0000 1.0000
29.9000 323.0000 1.0000
29.9200 353.0000 1.0000
29.9400 355.0000 1.0000
29.9600 371.0000 1.0000
29.9800 370.0000 1.0000
30.0000 410.0000 1.0000
30.0200 405.0000 1.0000
30.0400 419.0000 1.0000
30.0600 443.0000 1.0000
30.0800 474.0000 1.0000
30.1000 484.0000 1.0000
30.1200 477.0000 1.0000
30.1400 583.0000 1.0000
30.1600 629.0000 1.0000
30.1800 674.0000 1.0000
30.2000 704.0000 1.0000
30.2200 712.0000 1.0000
30.2400 730.0000 1.0000
30.2600 732.0000 1.0000
30.2800 678.0000 1.0000
30.3000 670.0000 1.0000
30.3200 574.0000 1.0000
30.3400 530.0000 1.0000
30.3600 451.0000 1.0000
30.3800 390.0000 1.0000
30.4000 337.0000 1.0000
30.4200 281.0000 1.0000
30.4400 293.0000 1.0000
30.4600 259.0000 1.0000
30.4800 257.0000 1.0000
30.5000 252.0000 1.0000
30.5200 258.0000 1.0000
30.5400 260.0000 1.0000
30.5600 270.0000 1.0000
30.5800 266.0000 1.0000
30.6000 274.0000 1.0000
30.6200 303.0000 1.0000
30.6400 273.0000 1.0000
30.6600 260.0000 1.0000
30.6800 257.0000 1.0000
30.7000 241.0000 1.0000
30.7200 254.0000 1.0000
30.7400 250.0000 1.0000
30.7600 199.0000 1.0000
30.7800 208.0000 1.0000
30.8000 195.0000 1.0000
30.8200 189.0000 1.0000
30.8400 175.0000 1.0000
30.8600 173.0000 1.0000
30.8800 146.0000 1.0000
30.9000 160.0000 1.0000
30.9200 181.0000 1.0000
30.9400 162.0000 1.0000
30.9600 162.0000 1.0000
30.9800 167.0000 1.0000
31.0000 178.0000 1.0000
31.0200 198.0000 1.0000
31.0400 236.0000 1.0000
31.0600 221.0000 1.0000
31.0800 246.0000 1.0000
31.1000 245.0000 1.0000
31.1200 280.0000 1.0000
31.1400 309.0000 1.0000
31.1600 327.0000 1.0000
31.1800 316.0000 1.0000
31.2000 324.0000 1.0000
31.2200 347.0000 1.0000
31.2400 333.0000 1.0000
31.2600 341.0000 1.0000
31.2800 310.0000 1.0000
31.3000 277.0000 1.0000
31.3200 282.0000 1.0000
31.3400 248.0000 1.0000
31.3600 245.0000 1.0000
31.3800 226.0000 1.0000
31.4000 213.0000 1.0000
31.4200 201.0000 1.0000
31.4400 206.0000 1.0000
31.4600 196.0000 1.0000
31.4800 207.0000 1.0000
31.5000 193.0000 1.0000
31.5200 194.0000 1.0000
31.5400 187.0000 1.0000
31.5600 200.0000 1.0000
31.5800 195.0000 1.0000
31.6000 190.0000 1.0000
31.6200 187.0000 1.0000
31.6400 171.0000 1.0000
31.6600 159.0000 1.0000
31.6800 163.0000 1.0000
31.7000 158.0000 1.0000
31.7200 145.0000 1.0000
31.7400 173.0000 1.0000
31.7600 136.0000 1.0000
31.7800 147.0000 1.0000
31.8000 147.0000 1.0000
31.8200 151.0000 1.0000
31.8400 129.0000 1.0000
31.8600 162.0000 1.0000
31.8800 153.0000 1.0000
31.9000 154.0000 1.0000
31.9200 155.0000 1.0000
31.9400 141.0000 1.0000
31.9600 138.0000 1.0000
31.9800 152.0000 1.0000
32.0000 150.0000 1.0000
32.0200 138.0000 1.0000
32.0400 165.0000 1.0000
32.0600 163.0000 1.0000
32.0800 171.0000 1.0000
32.1000 144.0000 1.0000
32.1200 145.0000 1.0000
32.1400 155.0000 1.0000
32.1600 157.0000 1.0000
32.1800 146.0000 1.0000
32.2000 161.0000 1.0000
32.2200 177.0000 1.0000
32.2400 172.0000 1.0000
32.2600 173.0000 1.0000
32.2800 169.0000 1.0000
32.3000 176.0000 1.0000
32.3200 185.0000 1.0000
32.3400 200.0000 1.0000
32.3600 170.0000 1.0000
32.3800 151.0000 1.0000
32.4000 187.0000 1.0000
32.4200 194.0000 1.0000
32.4400 182.0000 1.0000
32.4600 175.0000 1.0000
32.4800 157.0000 1.0000
32.5000 174.0000 1.0000
32.5200 181.0000 1.0000
32.5400 150.0000 1.0000
32.5600 157.0000 1.0000
32.5800 201.0000 1.0000
32.6000 214.0000 1.0000
32.6200 204.0000 1.0000
32.6400 236.0000 1.0000
32.6600 237.0000 1.0000
32.6800 250.0000 1.0000
32.7000 282.0000 1.0000
32.7200 239.0000 1.0000
32.7400 279.0000 1.0000
32.7600 266.0000 1.0000
32.7800 235.0000 1.0000
32.8000 253.0000 1.0000
32.8200 228.0000 1.0000
32.8400 221.0000 1.0000
32.8600 206.0000 1.0000
32.8800 189.0000 1.0000
32.9000 183.0000 1.0000
32.9200 184.0000 1.0000
32.9400 188.0000 1.0000
32.9600 148.0000 1.0000
32.9800 136.0000 1.0000
33.0000 133.0000 1.0000
33.0200 133.0000 1.0000
33.0400 156.0000 1.0000
33.0600 128.0000 1.0000
33.0800 133.0000 1.0000
33.1000 117.0000 1.0000
33.1200 128.0000 1.0000
33.1400 120.0000 1.0000
33.1600 138.0000 1.0000
33.1800 133.0000 1.0000
33.2000 126.0000 1.0000
33.2200 118.0000 1.0000
33.2400 132.0000 1.0000
33.2600 141.0000 1.0000
33.2800 122.0000 1.0000
33.3000 122.0000 1.0000
33.3200 125.0000 1.0000
33.3400 127.0000 1.0000
33.3600 102.0000 1.0000
33.3800 106.0000 1.0000
33.4000 122.0000 1.0000
33.4200 139.0000 1.0000
33.4400 146.0000 1.0000
33.4600 156.0000 1.0000
33.4800 137.0000 1.0000
33.5000 179.0000 1.0000
33.5200 174.0000 1.0000
33.5400 179.0000 1.0000
33.5600 193.0000 1.0000
33.5800 188.0000 1.0000
33.6000 229.0000 1.0000
33.6200 241.0000 1.0000
33.6400 262.0000 1.0000
33.6600 234.0000 1.0000
33.6800 254.0000 1.0000
33.7000 275.0000 1.0000
33.7200 269.0000 1.0000
33.7400 230.0000 1.0000
33.7600 242.0000 1.0000
33.7800 240.0000 1.0000
33.8000 212.0000 1.0000
33.8200 210.0000 1.0000
33.8400 202.0000 1.0000
33.8600 204.0000 1.0000
33.8800 188.0000 1.0000
33.9000 195.0000 1.0000
33.9200 187.0000 1.0000
33.9400 200.0000 1.0000
33.9600 198.0000 1.0000
33.9800 192.0000 1.0000
34.0000 198.0000 1.0000
34.0200 196.0000 1.0000
34.0400 218.0000 1.0000
34.0600 260.0000 1.0000
34.0800 223.0000 1.0000
34.1000 239.0000 1.0000
34.1200 226.0000 1.0000
34.1400 251.0000 1.0000
34.1600 265.0000 1.0000
34.1800 250.0000 1.0000
34.2000 249.0000 1.0000
34.2200 277.0000 1.0000
34.2400 261.0000 1.0000
34.2600 280.0000 1.0000
34.2800 293.0000 1.0000
34.3000 251.0000 1.0000
34.3200 283.0000 1.0000
34.3400 291.0000 1.0000
34.3600 259.0000 1.0000
34.3800 250.0000 1.0000
34.4000 246.0000 1.0000
34.4200 225.0000 1.0000
34.4400 254.0000 1.0000
34.4600 262.0000 1.0000
34.4800 258.0000 1.0000
34.5000 253.0000 1.0000
34.5200 266.0000 1.0000
34.5400 254.0000 1.0000
34.5600 273.0000 1.0000
34.5800 282.0000 1.0000
34.6000 264.0000 1.0000
34.6200 310.0000 1.0000
34.6400 290.0000 1.0000
34.6600 339.0000 1.0000
34.6800 337.0000 1.0000
34.7000 336.0000 1.0000
34.7200 423.0000 1.0000
34.7400 433.0000 1.0000
34.7600 471.0000 1.0000
34.7800 508.0000 1.0000
34.8000 577.0000 1.0000
34.8200 672.0000 1.0000
34.8400 734.0000 1.0000
34.8600 963.0000 1.0000
34.8800 1151.0000 1.0000
34.9000 1361.0000 1.0000
34.9200 1638.0000 1.0000
34.9400 1795.0000 1.0000
34.9600 1971.0000 1.0000
34.9800 2032.0000 1.0000
35.0000 1890.0000 1.0000
35.0200 1792.0000 1.0000
35.0400 1646.0000 1.0000
35.0600 1355.0000 1.0000
35.0800 1193.0000 1.0000
35.1000 1048.0000 1.0000
35.1200 849.0000 1.0000
35.1400 695.0000 1.0000
35.1600 618.0000 1.0000
35.1800 541.0000 1.0000
35.2000 518.0000 1.0000
35.2200 456.0000 1.0000
35.2400 458.0000 1.0000
35.2600 413.0000 1.0000
35.2800 433.0000 1.0000
35.3000 408.0000 1.0000
35.3200 359.0000 1.0000
35.3400 382.0000 1.0000
35.3600 318.0000 1.0000
35.3800 316.0000 1.0000
35.4000 305.0000 1.0000
35.4200 302.0000 1.0000
35.4400 301.0000 1.0000
35.4600 293.0000 1.0000
35.4800 279.0000 1.0000
35.5000 272.0000 1.0000
35.5200 287.0000 1.0000
35.5400 295.0000 1.0000
35.5600 236.0000 1.0000
35.5800 242.0000 1.0000
35.6000 236.0000 1.0000
35.6200 237.0000 1.0000
35.6400 207.0000 1.0000
35.6600 210.0000 1.0000
35.6800 223.0000 1.0000
35.7000 208.0000 1.0000
35.7200 227.0000 1.0000
35.7400 185.0000 1.0000
35.7600 183.0000 1.0000
35.7800 201.0000 1.0000
35.8000 177.0000 1.0000
35.8200 189.0000 1.0000
35.8400 222.0000 1.0000
35.8600 219.0000 1.0000
35.8800 231.0000 1.0000
35.9000 225.0000 1.0000
35.9200 207.0000 1.0000
35.9400 216.0000 1.0000
35.9600 205.0000 1.0000
35.9800 248.0000 1.0000
36.0000 255.0000 1.0000
36.0200 254.0000 1.0000
36.0400 271.0000 1.0000
36.0600 264.0000 1.0000
36.0800 283.0000 1.0000
36.1000 259.0000 1.0000
36.1200 259.0000 1.0000
36.1400 292.0000 1.0000
36.1600 298.0000 1.0000
36.1800 285.0000 1.0000
36.2000 315.0000 1.0000
36.2200 377.0000 1.0000
36.2400 415.0000 1.0000
36.2600 447.0000 1.0000
36.2800 568.0000 1.0000
36.3000 668.0000 1.0000
36.3200 804.0000 1.0000
36.3400 835.0000 1.0000
36.3600 826.0000 1.0000
36.3800 840.0000 1.0000
36.4000 798.0000 1.0000
36.4200 762.0000 1.0000
36.4400 678.0000 1.0000
36.4600 603.0000 1.0000
36.4800 500.0000 1.0000
36.5000 467.0000 1.0000
36.5200 406.0000 1.0000
36.5400 343.0000 1.0000
36.5600 306.0000 1.0000
36.5800 258.0000 1.0000
36.6000 269.0000 1.0000
36.6200 236.0000 1.0000
36.6400 218.0000 1.0000
36.6600 209.0000 1.0000
36.6800 232.0000 1.0000
36.7000 210.0000 1.0000
36.7200 200.0000 1.0000
36.7400 229.0000 1.0000
36.7600 223.0000 1.0000
36.7800 243.0000 1.0000
36.8000 255.0000 1.0000
36.8200 224.0000 1.0000
36.8400 256.0000 1.0000
36.8600 243.0000 1.0000
36.8800 245.0000 1.0000
36.9000 249.0000 1.0000
36.9200 251.0000 1.0000
36.9400 239.0000 1.0000
36.9600 220.0000 1.0000
36.9800 222.0000 1.0000
37.0000 201.0000 1.0000
37.0200 180.0000 1.0000
37.0400 179.0000 1.0000
37.0600 201.0000 1.0000
37.0800 210.0000 1.0000
37.1000 179.0000 1.0000
37.1200 186.0000 1.0000
37.1400 196.0000 1.0000
37.1600 192.0000 1.0000
37.1800 185.0000 1.0000
37.2000 190.0000 1.0000
37.2200 213.0000 1.0000
37.2400 235.0000 1.0000
37.2600 232.0000 1.0000
37.2800 254.0000 1.0000
37.3000 238.0000 1.0000
37.3200 251.0000 1.0000
37.3400 266.0000 1.0000
37.3600 275.0000 1.0000
37.3800 296.0000 1.0000
37.4000 282.0000 1.0000
37.4200 292.0000 1.0000
37.4400 356.0000 1.0000
37.4600 415.0000 1.0000
37.4800 472.0000 1.0000
37.5000 515.0000 1.0000
37.5200 563.0000 1.0000
37.5400 699.0000 1.0000
37.5600 758.0000 1.0000
37.5800 807.0000 1.0000
37.6000 871.0000 1.0000
37.6200 822.0000 1.0000
37.6400 760.0000 1.0000
37.6600 690.0000 1.0000
37.6800 607.0000 1.0000
37.7000 514.0000 1.0000
37.7200 429.0000 1.0000
37.7400 351.0000 1.0000
37.7600 285.0000 1.0000
37.7800 244.0000 1.0000
37.8000 205.0000 1.0000
37.8200 165.0000 1.0000
37.8400 166.0000 1.0000
37.8600 160.0000 1.0000
37.8800 174.0000 1.0000
37.9000 153.0000 1.0000
37.9200 159.0000 1.0000
37.9400 174.0000 1.0000
37.9600 166.0000 1.0000
37.9800 165.0000 1.0000
38.0000 166.0000 1.0000
38.0200 165.0000 1.0000
38.0400 173.0000 1.0000
38.0600 175.0000 1.0000
38.0800 186.0000 1.0000
38.1000 177.0000 1.0000
38.1200 161.0000 1.0000
38.1400 157.0000 1.0000
38.1600 153.0000 1.0000
38.1800 163.0000 1.0000
38.2000 171.0000 1.0000
38.2200 157.0000 1.0000
38.2400 162.0000 1.0000
38.2600 163.0000 1.0000
38.2800 164.0000 1.0000
38.3000 159.0000 1.0000
38.3200 169.0000 1.0000
38.3400 175.0000 1.0000
38.3600 182.0000 1.0000
38.3800 161.0000 1.0000
38.4000 163.0000 1.0000
38.4200 154.0000 1.0000
38.4400 153.0000 1.0000
38.4600 159.0000 1.0000
38.4800 159.0000 1.0000
38.5000 165.0000 1.0000
38.5200 174.0000 1.0000
38.5400 166.0000 1.0000
38.5600 156.0000 1.0000
38.5800 165.0000 1.0000
38.6000 162.0000 1.0000
38.6200 162.0000 1.0000
38.6400 168.0000 1.0000
38.6600 170.0000 1.0000
38.6800 153.0000 1.0000
38.7000 167.0000 1.0000
38.7200 171.0000 1.0000
38.7400 179.0000 1.0000
38.7600 188.0000 1.0000
38.7800 190.0000 1.0000
38.8000 200.0000 1.0000
38.8200 175.0000 1.0000
38.8400 188.0000 1.0000
38.8600 195.0000 1.0000
38.8800 206.0000 1.0000
38.9000 208.0000 1.0000
38.9200 224.0000 1.0000
38.9400 223.0000 1.0000
38.9600 225.0000 1.0000
38.9800 231.0000 1.0000
39.0000 218.0000 1.0000
39.0200 224.0000 1.0000
39.0400 229.0000 1.0000
39.0600 213.0000 1.0000
39.0800 227.0000 1.0000
39.1000 261.0000 1.0000
39.1200 286.0000 1.0000
39.1400 332.0000 1.0000
39.1600 356.0000 1.0000
39.1800 375.0000 1.0000
39.2000 443.0000 1.0000
39.2200 511.0000 1.0000
39.2400 603.0000 1.0000
39.2600 695.0000 1.0000
39.2800 756.0000 1.0000
39.3000 763.0000 1.0000
39.3200 733.0000 1.0000
39.3400 676.0000 1.0000
39.3600 616.0000 1.0000
39.3800 525.0000 1.0000
39.4000 458.0000 1.0000
39.4200 428.0000 1.0000
39.4400 373.0000 1.0000
39.4600 311.0000 1.0000
39.4800 259.0000 1.0000
39.5000 229.0000 1.0000
39.5200 208.0000 1.0000
39.5400 192.0000 1.0000
39.5600 184.0000 1.0000
39.5800 178.0000 1.0000
39.6000 181.0000 1.0000
39.6200 170.0000 1.0000
39.6400 154.0000 1.0000
39.6600 162.0000 1.0000
39.6800 152.0000 1.0000
39.7000 138.0000 1.0000
39.7200 144.0000 1.0000
39.7400 139.0000 1.0000
39.7600 134.0000 1.0000
39.7800 142.0000 1.0000
39.8000 139.0000 1.0000
39.8200 145.0000 1.0000
39.8400 156.0000 1.0000
39.8600 155.0000 1.0000
39.8800 161.0000 1.0000
39.9000 163.0000 1.0000
39.9200 166.0000 1.0000
39.9400 167.0000 1.0000
39.9600 172.0000 1.0000
39.9800 193.0000 1.0000
40.0000 218.0000 1.0000
40.0200 255.0000 1.0000
40.0400 314.0000 1.0000
40.0600 368.0000 1.0000
40.0800 392.0000 1.0000
40.1000 430.0000 1.0000
40.1200 448.0000 1.0000
40.1400 430.0000 1.0000
40.1600 422.0000 1.0000
40.1800 395.0000 1.0000
40.2000 346.0000 1.0000
40.2200 322.0000 1.0000
40.2400 290.0000 1.0000
40.2600 248.0000 1.0000
40.2800 215.0000 1.0000
40.3000 187.0000 1.0000
40.3200 171.0000 1.0000
40.3400 162.0000 1.0000
40.3600 152.0000 1.0000
40.3800 147.0000 1.0000
40.4000 148.0000 1.0000
40.4200 139.0000 1.0000
40.4400 143.0000 1.0000
40.4600 152.0000 1.0000
40.4800 148.0000 1.0000
40.5000 147.0000 1.0000
40.5200 147.0000 1.0000
40.5400 136.0000 1.0000
40.5600 133.0000 1.0000
40.5800 146.0000 1.0000
40.6000 149.0000 1.0000
40.6200 152.0000 1.0000
40.6400 154.0000 1.0000
40.6600 154.0000 1.0000
40.6800 165.0000 1.0000
40.7000 161.0000 1.0000
40.7200 162.0000 1.0000
40.7400 169.0000 1.0000
40.7600 158.0000 1.0000
40.7800 154.0000 1.0000
40.8000 150.0000 1.0000
40.8200 146.0000 1.0000
40.8400 144.0000 1.0000
40.8600 135.0000 1.0000
40.8800 136.0000 1.0000
40.9000 138.0000 1.0000
40.9200 145.0000 1.0000
40.9400 155.0000 1.0000
40.9600 149.0000 1.0000
40.9800 144.0000 1.0000
41.0000 150.0000 1.0000
41.0200 164.0000 1.0000
41.0400 166.0000 1.0000
41.0600 162.0000 1.0000
41.0800 165.0000 1.0000
41.1000 159.0000 1.0000
41.1200 156.0000 1.0000
41.1400 156.0000 1.0000
41.1600 168.0000 1.0000
41.1800 181.0000 1.0000
41.2000 165.0000 1.0000
41.2200 166.0000 1.0000
41.2400 176.0000 1.0000
41.2600 167.0000 1.0000
41.2800 162.0000 1.0000
41.3000 163.0000 1.0000
41.3200 170.0000 1.0000
41.3400 168.0000 1.0000
41.3600 172.0000 1.0000
41.3800 187.0000 1.0000
41.4000 189.0000 1.0000
41.4200 200.0000 1.0000
41.4400 219.0000 1.0000
41.4600 224.0000 1.0000
41.4800 221.0000 1.0000
41.5000 222.0000 1.0000
41.5200 214.0000 1.0000
41.5400 224.0000 1.0000
41.5600 244.0000 1.0000
41.5800 250.0000 1.0000
41.6000 243.0000 1.0000
41.6200 246.0000 1.0000
41.6400 250.0000 1.0000
41.6600 245.0000 1.0000
41.6800 251.0000 1.0000
41.7000 213.0000 1.0000
41.7200 207.0000 1.0000
41.7400 225.0000 1.0000
41.7600 202.0000 1.0000
41.7800 183.0000 1.0000
41.8000 182.0000 1.0000
41.8200 189.0000 1.0000
41.8400 184.0000 1.0000
41.8600 188.0000 1.0000
41.8800 167.0000 1.0000
41.9000 167.0000 1.0000
41.9200 189.0000 1.0000
41.9400 196.0000 1.0000
41.9600 198.0000 1.0000
41.9800 208.0000 1.0000
42.0000 212.0000 1.0000
42.0200 226.0000 1.0000
42.0400 244.0000 1.0000
42.0600 250.0000 1.0000
42.0800 263.0000 1.0000
42.1000 278.0000 1.0000
42.1200 338.0000 1.0000
42.1400 371.0000 1.0000
42.1600 425.0000 1.0000
42.1800 480.0000 1.0000
42.2000 509.0000 1.0000
42.2200 602.0000 1.0000
42.2400 653.0000 1.0000
42.2600 667.0000 1.0000
42.2800 674.0000 1.0000
42.3000 653.0000 1.0000
42.3200 619.0000 1.0000
42.3400 562.0000 1.0000
42.3600 529.0000 1.0000
42.3800 421.0000 1.0000
42.4000 378.0000 1.0000
42.4200 330.0000 1.0000
42.4400 306.0000 1.0000
42.4600 281.0000 1.0000
42.4800 260.0000 1.0000
42.5000 254.0000 1.0000
42.5200 235.0000 1.0000
42.5400 220.0000 1.0000
42.5600 230.0000 1.0000
42.5800 227.0000 1.0000
42.6000 259.0000 1.0000
42.6200 278.0000 1.0000
42.6400 293.0000 1.0000
42.6600 265.0000 1.0000
42.6800 260.0000 1.0000
42.7000 260.0000 1.0000
42.7200 251.0000 1.0000
42.7400 258.0000 1.0000
42.7600 264.0000 1.0000
42.7800 286.0000 1.0000
42.8000 270.0000 1.0000
42.8200 282.0000 1.0000
42.8400 278.0000 1.0000
42.8600 278.0000 1.0000
42.8800 258.0000 1.0000
42.9000 260.0000 1.0000
42.9200 308.0000 1.0000
42.9400 337.0000 1.0000
42.9600 315.0000 1.0000
42.9800 369.0000 1.0000
43.0000 432.0000 1.0000
43.0200 517.0000 1.0000
43.0400 577.0000 1.0000
43.0600 703.0000 1.0000
43.0800 834.0000 1.0000
43.1000 1097.0000 1.0000
43.1200 1320.0000 1.0000
43.1400 1531.0000 1.0000
43.1600 1685.0000 1.0000
43.1800 1793.0000 1.0000
43.2000 1722.0000 1.0000
43.2200 1608.0000 1.0000
43.2400 1517.0000 1.0000
43.2600 1345.0000 1.0000
43.2800 1176.0000 1.0000
43.3000 997.0000 1.0000
43.3200 895.0000 1.0000
43.3400 755.0000 1.0000
43.3600 575.0000 1.0000
43.3800 455.0000 1.0000
43.4000 310.0000 1.0000
43.4200 257.0000 1.0000
43.4400 253.0000 1.0000
43.4600 231.0000 1.0000
43.4800 196.0000 1.0000
43.5000 195.0000 1.0000
43.5200 169.0000 1.0000
43.5400 172.0000 1.0000
43.5600 178.0000 1.0000
43.5800 144.0000 1.0000
43.6000 137.0000 1.0000
43.6200 126.0000 1.0000
43.6400 141.0000 1.0000
43.6600 150.0000 1.0000
43.6800 156.0000 1.0000
43.7000 154.0000 1.0000
43.7200 152.0000 1.0000
43.7400 130.0000 1.0000
43.7600 138.0000 1.0000
43.7800 137.0000 1.0000
43.8000 142.0000 1.0000
43.8200 136.0000 1.0000
43.8400 150.0000 1.0000
43.8600 128.0000 1.0000
43.8800 129.0000 1.0000
43.9000 148.0000 1.0000
43.9200 133.0000 1.0000
43.9400 146.0000 1.0000
43.9600 141.0000 1.0000
43.9800 132.0000 1.0000
44.0000 135.0000 1.0000
44.0200 135.0000 1.0000
44.0400 153.0000 1.0000
44.0600 130.0000 1.0000
44.0800 143.0000 1.0000
44.1000 121.0000 1.0000
44.1200 118.0000 1.0000
44.1400 131.0000 1.0000
44.1600 110.0000 1.0000
44.1800 122.0000 1.0000
44.2000 121.0000 1.0000
44.2200 118.0000 1.0000
44.2400 125.0000 1.0000
44.2600 108.0000 1.0000
44.2800 127.0000 1.0000
44.3000 135.0000 1.0000
44.3200 138.0000 1.0000
44.3400 133.0000 1.0000
44.3600 129.0000 1.0000
44.3800 153.0000 1.0000
44.4000 137.0000 1.0000
44.4200 145.0000 1.0000
44.4400 156.0000 1.0000
44.4600 147.0000 1.0000
44.4800 166.0000 1.0000
44.5000 181.0000 1.0000
44.5200 175.0000 1.0000
44.5400 150.0000 1.0000
44.5600 176.0000 1.0000
44.5800 186.0000 1.0000
44.6000 145.0000 1.0000
44.6200 169.0000 1.0000
44.6400 169.0000 1.0000
44.6600 172.0000 1.0000
44.6800 149.0000 1.0000
44.7000 198.0000 1.0000
44.7200 179.0000 1.0000
44.7400 163.0000 1.0000
44.7600 162.0000 1.0000
44.7800 166.0000 1.0000
44.8000 158.0000 1.0000
44.8200 149.0000 1.0000
44.8400 154.0000 1.0000
44.8600 163.0000 1.0000
44.8800 141.0000 1.0000
44.9000 157.0000 1.0000
44.9200 153.0000 1.0000
44.9400 164.0000 1.0000
44.9600 172.0000 1.0000
44.9800 163.0000 1.0000
45.0000 170.0000 1.0000
45.0200 151.0000 1.0000
45.0400 132.0000 1.0000
45.0600 144.0000 1.0000
45.0800 158.0000 1.0000
45.1000 166.0000 1.0000
45.1200 157.0000 1.0000
45.1400 147.0000 1.0000
45.1600 141.0000 1.0000
45.1800 163.0000 1.0000
45.2000 171.0000 1.0000
45.2200 164.0000 1.0000
45.2400 175.0000 1.0000
45.2600 185.0000 1.0000
45.2800 172.0000 1.0000
45.3000 161.0000 1.0000
45.3200 154.0000 1.0000
45.3400 168.0000 1.0000
45.3600 175.0000 1.0000
45.3800 178.0000 1.0000
45.4000 186.0000 1.0000
45.4200 190.0000 1.0000
45.4400 197.0000 1.0000
45.4600 263.0000 1.0000
45.4800 235.0000 1.0000
45.5000 277.0000 1.0000
45.5200 318.0000 1.0000
45.5400 375.0000 1.0000
45.5600 361.0000 1.0000
45.5800 469.0000 1.0000
45.6000 454.0000 1.0000
45.6200 474.0000 1.0000
45.6400 457.0000 1.0000
45.6600 449.0000 1.0000
45.6800 412.0000 1.0000
45.7000 373.0000 1.0000
45.7200 357.0000 1.0000
45.7400 307.0000 1.0000
45.7600 265.0000 1.0000
45.7800 263.0000 1.0000
45.8000 244.0000 1.0000
45.8200 208.0000 1.0000
45.8400 171.0000 1.0000
45.8600 162.0000 1.0000
45.8800 164.0000 1.0000
45.9000 160.0000 1.0000
45.9200 147.0000 1.0000
45.9400 154.0000 1.0000
45.9600 140.0000 1.0000
45.9800 148.0000 1.0000
46.0000 161.0000 1.0000
46.0200 176.0000 1.0000
46.0400 133.0000 1.0000
46.0600 131.0000 1.0000
46.0800 142.0000 1.0000
46.1000 132.0000 1.0000
46.1200 107.0000 1.0000
46.1400 114.0000 1.0000
46.1600 136.0000 1.0000
46.1800 120.0000 1.0000
46.2000 130.0000 1.0000
46.2200 126.0000 1.0000
46.2400 109.0000 1.0000
46.2600 110.0000 1.0000
46.2800 113.0000 1.0000
46.3000 117.0000 1.0000
46.3200 110.0000 1.0000
46.3400 119.0000 1.0000
46.3600 106.0000 1.0000
46.3800 111.0000 1.0000
46.4000 100.0000 1.0000
46.4200 95.0000 1.0000
46.4400 118.0000 1.0000
46.4600 130.0000 1.0000
46.4800 134.0000 1.0000
46.5000 108.0000 1.0000
46.5200 127.0000 1.0000
46.5400 117.0000 1.0000
46.5600 110.0000 1.0000
46.5800 118.0000 1.0000
46.6000 114.0000 1.0000
46.6200 125.0000 1.0000
46.6400 126.0000 1.0000
46.6600 140.0000 1.0000
46.6800 139.0000 1.0000
46.7000 159.0000 1.0000
46.7200 167.0000 1.0000
46.7400 151.0000 1.0000
46.7600 135.0000 1.0000
46.7800 148.0000 1.0000
46.8000 148.0000 1.0000
46.8200 152.0000 1.0000
46.8400 136.0000 1.0000
46.8600 138.0000 1.0000
46.8800 136.0000 1.0000
46.9000 136.0000 1.0000
46.9200 137.0000 1.0000
46.9400 132.0000 1.0000
46.9600 128.0000 1.0000
46.9800 125.0000 1.0000
47.0000 126.0000 1.0000
47.0200 129.0000 1.0000
47.0400 134.0000 1.0000
47.0600 137.0000 1.0000
47.0800 143.0000 1.0000
47.1000 120.0000 1.0000
47.1200 105.0000 1.0000
47.1400 115.0000 1.0000
47.1600 126.0000 1.0000
47.1800 123.0000 1.0000
47.2000 133.0000 1.0000
47.2200 126.0000 1.0000
47.2400 126.0000 1.0000
47.2600 137.0000 1.0000
47.2800 150.0000 1.0000
47.3000 152.0000 1.0000
47.3200 165.0000 1.0000
47.3400 161.0000 1.0000
47.3600 168.0000 1.0000
47.3800 171.0000 1.0000
47.4000 156.0000 1.0000
47.4200 156.0000 1.0000
47.4400 171.0000 1.0000
47.4600 171.0000 1.0000
47.4800 163.0000 1.0000
47.5000 158.0000 1.0000
47.5200 139.0000 1.0000
47.5400 139.0000 1.0000
47.5600 140.0000 1.0000
47.5800 130.0000 1.0000
47.6000 125.0000 1.0000
47.6200 129.0000 1.0000
47.6400 131.0000 1.0000
47.6600 149.0000 1.0000
47.6800 141.0000 1.0000
47.7000 131.0000 1.0000
47.7200 130.0000 1.0000
47.7400 135.0000 1.0000
47.7600 150.0000 1.0000
47.7800 130.0000 1.0000
47.8000 131.0000 1.0000
47.8200 131.0000 1.0000
47.8400 125.0000 1.0000
47.8600 118.0000 1.0000
47.8800 120.0000 1.0000
47.9000 137.0000 1.0000
47.9200 132.0000 1.0000
47.9400 134.0000 1.0000
47.9600 141.0000 1.0000
47.9800 154.0000 1.0000
48.0000 148.0000 1.0000
48.0200 153.0000 1.0000
48.0400 163.0000 1.0000
48.0600 180.0000 1.0000
48.0800 187.0000 1.0000
48.1000 185.0000 1.0000
48.1200 178.0000 1.0000
48.1400 176.0000 1.0000
48.1600 200.0000 1.0000
48.1800 211.0000 1.0000
48.2000 195.0000 1.0000
48.2200 195.0000 1.0000
48.2400 184.0000 1.0000
48.2600 174.0000 1.0000
48.2800 174.0000 1.0000
48.3000 159.0000 1.0000
48.3200 155.0000 1.0000
48.3400 149.0000 1.0000
48.3600 126.0000 1.0000
48.3800 143.0000 1.0000
48.4000 151.0000 1.0000
48.4200 142.0000 1.0000
48.4400 139.0000 1.0000
48.4600 136.0000 1.0000
48.4800 139.0000 1.0000
48.5000 134.0000 1.0000
48.5200 131.0000 1.0000
48.5400 142.0000 1.0000
48.5600 143.0000 1.0000
48.5800 136.0000 1.0000
48.6000 134.0000 1.0000
48.6200 136.0000 1.0000
48.6400 135.0000 1.0000
48.6600 144.0000 1.0000
48.6800 153.0000 1.0000
48.7000 155.0000 1.0000
48.7200 158.0000 1.0000
48.7400 164.0000 1.0000
48.7600 167.0000 1.0000
48.7800 164.0000 1.0000
48.8000 162.0000 1.0000
48.8200 170.0000 1.0000
48.8400 180.0000 1.0000
48.8600 182.0000 1.0000
48.8800 175.0000 1.0000
48.9000 185.0000 1.0000
48.9200 195.0000 1.0000
48.9400 210.0000 1.0000
48.9600 237.0000 1.0000
48.9800 247.0000 1.0000
49.0000 245.0000 1.0000
49.0200 254.0000 1.0000
49.0400 282.0000 1.0000
49.0600 267.0000 1.0000
49.0800 256.0000 1.0000
49.1000 261.0000 1.0000
49.1200 248.0000 1.0000
49.1400 226.0000 1.0000
49.1600 209.0000 1.0000
49.1800 202.0000 1.0000
49.2000 206.0000 1.0000
49.2200 200.0000 1.0000
49.2400 189.0000 1.0000
49.2600 185.0000 1.0000
49.2800 173.0000 1.0000
49.3000 169.0000 1.0000
49.3200 174.0000 1.0000
49.3400 175.0000 1.0000
49.3600 180.0000 1.0000
49.3800 178.0000 1.0000
49.4000 186.0000 1.0000
49.4200 193.0000 1.0000
49.4400 194.0000 1.0000
49.4600 217.0000 1.0000
49.4800 248.0000 1.0000
49.5000 241.0000 1.0000
49.5200 241.0000 1.0000
49.5400 269.0000 1.0000
49.5600 288.0000 1.0000
49.5800 317.0000 1.0000
49.6000 338.0000 1.0000
49.6200 344.0000 1.0000
49.6400 354.0000 1.0000
49.6600 370.0000 1.0000
49.6800 386.0000 1.0000
49.7000 394.0000 1.0000
49.7200 421.0000 1.0000
49.7400 454.0000 1.0000
49.7600 429.0000 1.0000
49.7800 446.0000 1.0000
49.8000 465.0000 1.0000
49.8200 510.0000 1.0000
49.8400 569.0000 1.0000
49.8600 623.0000 1.0000
49.8800 744.0000 1.0000
49.9000 909.0000 1.0000
49.9200 1052.0000 1.0000
49.9400 1181.0000 1.0000
49.9600 1306.0000 1.0000
49.9800 1322.0000 1.0000
50.0000 1233.0000 1.0000
50.0200 1146.0000 1.0000
50.0400 1015.0000 1.0000
50.0600 870.0000 1.0000
50.0800 797.0000 1.0000
50.1000 768.0000 1.0000
50.1200 707.0000 1.0000
50.1400 613.0000 1.0000
50.1600 530.0000 1.0000
50.1800 438.0000 1.0000
50.2000 340.0000 1.0000
50.2200 254.0000 1.0000
50.2400 249.0000 1.0000
50.2600 222.0000 1.0000
50.2800 223.0000 1.0000
50.3000 217.0000 1.0000
50.3200 212.0000 1.0000
50.3400 231.0000 1.0000
50.3600 239.0000 1.0000
50.3800 266.0000 1.0000
50.4000 264.0000 1.0000
50.4200 276.0000 1.0000
50.4400 272.0000 1.0000
50.4600 278.0000 1.0000
50.4800 284.0000 1.0000
50.5000 276.0000 1.0000
50.5200 315.0000 1.0000
50.5400 282.0000 1.0000
50.5600 286.0000 1.0000
50.5800 319.0000 1.0000
50.6000 301.0000 1.0000
50.6200 292.0000 1.0000
50.6400 259.0000 1.0000
50.6600 228.0000 1.0000
50.6800 235.0000 1.0000
50.7000 211.0000 1.0000
50.7200 205.0000 1.0000
50.7400 201.0000 1.0000
50.7600 192.0000 1.0000
50.7800 183.0000 1.0000
50.8000 178.0000 1.0000
50.8200 162.0000 1.0000
50.8400 155.0000 1.0000
50.8600 150.0000 1.0000
50.8800 155.0000 1.0000
50.9000 164.0000 1.0000
50.9200 160.0000 1.0000
50.9400 176.0000 1.0000
50.9600 206.0000 1.0000
50.9800 200.0000 1.0000
51.0000 233.0000 1.0000
51.0200 238.0000 1.0000
51.0400 231.0000 1.0000
51.0600 254.0000 1.0000
51.0800 297.0000 1.0000
51.1000 276.0000 1.0000
51.1200 265.0000 1.0000
51.1400 310.0000 1.0000
51.1600 307.0000 1.0000
51.1800 329.0000 1.0000
51.2000 308.0000 1.0000
51.2200 308.0000 1.0000
51.2400 303.0000 1.0000
51.2600 271.0000 1.0000
51.2800 276.0000 1.0000
51.3000 262.0000 1.0000
51.3200 229.0000 1.0000
51.3400 228.0000 1.0000
51.3600 194.0000 1.0000
51.3800 192.0000 1.0000
51.4000 171.0000 1.0000
51.4200 166.0000 1.0000
51.4400 139.0000 1.0000
51.4600 144.0000 1.0000
51.4800 148.0000 1.0000
51.5000 130.0000 1.0000
51.5200 136.0000 1.0000
51.5400 129.0000 1.0000
51.5600 122.0000 1.0000
51.5800 136.0000 1.0000
51.6000 140.0000 1.0000
51.6200 141.0000 1.0000
51.6400 117.0000 1.0000
51.6600 127.0000 1.0000
51.6800 126.0000 1.0000
51.7000 115.0000 1.0000
51.7200 129.0000 1.0000
51.7400 135.0000 1.0000
51.7600 146.0000 1.0000
51.7800 133.0000 1.0000
51.8000 115.0000 1.0000
51.8200 124.0000 1.0000
51.8400 133.0000 1.0000
51.8600 135.0000 1.0000
51.8800 133.0000 1.0000
51.9000 154.0000 1.0000
51.9200 131.0000 1.0000
51.9400 137.0000 1.0000
51.9600 168.0000 1.0000
51.9800 164.0000 1.0000
52.0000 175.0000 1.0000
52.0200 183.0000 1.0000
52.0400 174.0000 1.0000
52.0600 188.0000 1.0000
52.0800 203.0000 1.0000
52.1000 213.0000 1.0000
52.1200 207.0000 1.0000
52.1400 215.0000 1.0000
52.1600 224.0000 1.0000
52.1800 199.0000 1.0000
52.2000 262.0000 1.0000
52.2200 259.0000 1.0000
52.2400 272.0000 1.0000
52.2600 350.0000 1.0000
52.2800 427.0000 1.0000
52.3000 481.0000 1.0000
52.3200 570.0000 1.0000
52.3400 649.0000 1.0000
52.3600 760.0000 1.0000
52.3800 886.0000 1.0000
52.4000 847.0000 1.0000
52.4200 825.0000 1.0000
52.4400 759.0000 1.0000
52.4600 737.0000 1.0000
52.4800 665.0000 1.0000
52.5000 597.0000 1.0000
52.5200 618.0000 1.0000
52.5400 547.0000 1.0000
52.5600 486.0000 1.0000
52.5800 442.0000 1.0000
52.6000 385.0000 1.0000
52.6200 318.0000 1.0000
52.6400 265.0000 1.0000
52.6600 253.0000 1.0000
52.6800 221.0000 1.0000
52.7000 210.0000 1.0000
52.7200 196.0000 1.0000
52.7400 224.0000 1.0000
52.7600 234.0000 1.0000
52.7800 203.0000 1.0000
52.8000 195.0000 1.0000
52.8200 193.0000 1.0000
52.8400 192.0000 1.0000
52.8600 173.0000 1.0000
52.8800 198.0000 1.0000
52.9000 189.0000 1.0000
52.9200 197.0000 1.0000
52.9400 207.0000 1.0000
52.9600 191.0000 1.0000
52.9800 171.0000 1.0000
53.0000 185.0000 1.0000
53.0200 186.0000 1.0000
53.0400 178.0000 1.0000
53.0600 178.0000 1.0000
53.0800 172.0000 1.0000
53.1000 181.0000 1.0000
53.1200 174.0000 1.0000
53.1400 166.0000 1.0000
53.1600 171.0000 1.0000
53.1800 163.0000 1.0000
53.2000 154.0000 1.0000
53.2200 169.0000 1.0000
53.2400 152.0000 1.0000
53.2600 140.0000 1.0000
53.2800 134.0000 1.0000
53.3000 128.0000 1.0000
53.3200 154.0000 1.0000
53.3400 138.0000 1.0000
53.3600 132.0000 1.0000
53.3800 129.0000 1.0000
53.4000 126.0000 1.0000
53.4200 122.0000 1.0000
53.4400 126.0000 1.0000
53.4600 141.0000 1.0000
53.4800 132.0000 1.0000
53.5000 130.0000 1.0000
53.5200 140.0000 1.0000
53.5400 131.0000 1.0000
53.5600 144.0000 1.0000
53.5800 149.0000 1.0000
53.6000 143.0000 1.0000
53.6200 151.0000 1.0000
53.6400 163.0000 1.0000
53.6600 161.0000 1.0000
53.6800 140.0000 1.0000
53.7000 145.0000 1.0000
53.7200 167.0000 1.0000
53.7400 135.0000 1.0000
53.7600 151.0000 1.0000
53.7800 156.0000 1.0000
53.8000 140.0000 1.0000
53.8200 139.0000 1.0000
53.8400 148.0000 1.0000
53.8600 146.0000 1.0000
53.8800 156.0000 1.0000
53.9000 163.0000 1.0000
53.9200 159.0000 1.0000
53.9400 147.0000 1.0000
53.9600 139.0000 1.0000
53.9800 137.0000 1.0000
54.0000 150.0000 1.0000
54.0200 153.0000 1.0000
54.0400 153.0000 1.0000
54.0600 146.0000 1.0000
54.0800 170.0000 1.0000
54.1000 160.0000 1.0000
54.1200 158.0000 1.0000
54.1400 151.0000 1.0000
54.1600 152.0000 1.0000
54.1800 170.0000 1.0000
54.2000 178.0000 1.0000
54.2200 178.0000 1.0000
54.2400 172.0000 1.0000
54.2600 179.0000 1.0000
54.2800 178.0000 1.0000
54.3000 171.0000 1.0000
54.3200 153.0000 1.0000
54.3400 175.0000 1.0000
54.3600 185.0000 1.0000
54.3800 165.0000 1.0000
54.4000 164.0000 1.0000
54.4200 159.0000 1.0000
54.4400 157.0000 1.0000
54.4600 162.0000 1.0000
54.4800 174.0000 1.0000
54.5000 191.0000 1.0000
54.5200 186.0000 1.0000
54.5400 191.0000 1.0000
54.5600 193.0000 1.0000
54.5800 211.0000 1.0000
54.6000 244.0000 1.0000
54.6200 284.0000 1.0000
54.6400 334.0000 1.0000
54.6600 390.0000 1.0000
54.6800 390.0000 1.0000
54.7000 446.0000 1.0000
54.7200 462.0000 1.0000
54.7400 453.0000 1.0000
54.7600 431.0000 1.0000
54.7800 386.0000 1.0000
54.8000 355.0000 1.0000
54.8200 344.0000 1.0000
54.8400 306.0000 1.0000
54.8600 279.0000 1.0000
54.8800 304.0000 1.0000
54.9000 291.0000 1.0000
54.9200 249.0000 1.0000
54.9400 217.0000 1.0000
54.9600 208.0000 1.0000
54.9800 197.0000 1.0000
55.0000 177.0000 1.0000
55.0200 171.0000 1.0000
55.0400 190.0000 1.0000
55.0600 203.0000 1.0000
55.0800 215.0000 1.0000
55.1000 236.0000 1.0000
55.1200 259.0000 1.0000
55.1400 289.0000 1.0000
55.1600 296.0000 1.0000
55.1800 273.0000 1.0000
55.2000 282.0000 1.0000
55.2200 279.0000 1.0000
55.2400 258.0000 1.0000
55.2600 258.0000 1.0000
55.2800 248.0000 1.0000
55.3000 228.0000 1.0000
55.3200 220.0000 1.0000
55.3400 227.0000 1.0000
55.3600 219.0000 1.0000
55.3800 199.0000 1.0000
55.4000 184.0000 1.0000
55.4200 168.0000 1.0000
55.4400 159.0000 1.0000
55.4600 160.0000 1.0000
55.4800 156.0000 1.0000
55.5000 136.0000 1.0000
55.5200 131.0000 1.0000
55.5400 142.0000 1.0000
55.5600 155.0000 1.0000
55.5800 147.0000 1.0000
55.6000 128.0000 1.0000
55.6200 115.0000 1.0000
55.6400 116.0000 1.0000
55.6600 127.0000 1.0000
55.6800 130.0000 1.0000
55.7000 125.0000 1.0000
55.7200 131.0000 1.0000
55.7400 131.0000 1.0000
55.7600 127.0000 1.0000
55.7800 137.0000 1.0000
55.8000 127.0000 1.0000
55.8200 130.0000 1.0000
55.8400 132.0000 1.0000
55.8600 133.0000 1.0000
55.8800 126.0000 1.0000
55.9000 117.0000 1.0000
55.9200 113.0000 1.0000
55.9400 111.0000 1.0000
55.9600 125.0000 1.0000
55.9800 121.0000 1.0000
56.0000 126.0000 1.0000
56.0200 142.0000 1.0000
56.0400 149.0000 1.0000
56.0600 147.0000 1.0000
56.0800 134.0000 1.0000
56.1000 119.0000 1.0000
56.1200 122.0000 1.0000
56.1400 134.0000 1.0000
56.1600 133.0000 1.0000
56.1800 118.0000 1.0000
56.2000 116.0000 1.0000
56.2200 131.0000 1.0000
56.2400 131.0000 1.0000
56.2600 127.0000 1.0000
56.2800 133.0000 1.0000
56.3000 135.0000 1.0000
56.3200 138.0000 1.0000
56.3400 140.0000 1.0000
56.3600 146.0000 1.0000
56.3800 146.0000 1.0000
56.4000 128.0000 1.0000
56.4200 125.0000 1.0000
56.4400 132.0000 1.0000
56.4600 131.0000 1.0000
56.4800 140.0000 1.0000
56.5000 147.0000 1.0000
56.5200 142.0000 1.0000
56.5400 143.0000 1.0000
56.5600 141.0000 1.0000
56.5800 130.0000 1.0000
56.6000 131.0000 1.0000
56.6200 132.0000 1.0000
56.6400 128.0000 1.0000
56.6600 132.0000 1.0000
56.6800 128.0000 1.0000
56.7000 131.0000 1.0000
56.7200 142.0000 1.0000
56.7400 140.0000 1.0000
56.7600 148.0000 1.0000
56.7800 148.0000 1.0000
56.8000 134.0000 1.0000
56.8200 124.0000 1.0000
56.8400 136.0000 1.0000
56.8600 141.0000 1.0000
56.8800 132.0000 1.0000
56.9000 143.0000 1.0000
56.9200 157.0000 1.0000
56.9400 162.0000 1.0000
56.9600 175.0000 1.0000
56.9800 165.0000 1.0000
57.0000 179.0000 1.0000
57.0200 179.0000 1.0000
57.0400 180.0000 1.0000
57.0600 204.0000 1.0000
57.0800 227.0000 1.0000
57.1000 247.0000 1.0000
57.1200 258.0000 1.0000
57.1400 281.0000 1.0000
57.1600 317.0000 1.0000
57.1800 365.0000 1.0000
57.2000 452.0000 1.0000
57.2200 522.0000 1.0000
57.2400 637.0000 1.0000
57.2600 800.0000 1.0000
57.2800 984.0000 1.0000
57.3000 1180.0000 1.0000
57.3200 1327.0000 1.0000
57.3400 1434.0000 1.0000
57.3600 1416.0000 1.0000
57.3800 1357.0000 1.0000
57.4000 1205.0000 1.0000
57.4200 1147.0000 1.0000
57.4400 996.0000 1.0000
57.4600 919.0000 1.0000
57.4800 875.0000 1.0000
57.5000 894.0000 1.0000
57.5200 843.0000 1.0000
57.5400 718.0000 1.0000
57.5600 626.0000 1.0000
57.5800 504.0000 1.0000
57.6000 405.0000 1.0000
57.6200 328.0000 1.0000
57.6400 283.0000 1.0000
57.6600 253.0000 1.0000
57.6800 249.0000 1.0000
57.7000 241.0000 1.0000
57.7200 202.0000 1.0000
57.7400 175.0000 1.0000
57.7600 194.0000 1.0000
57.7800 208.0000 1.0000
57.8000 178.0000 1.0000
57.8200 171.0000 1.0000
57.8400 173.0000 1.0000
57.8600 183.0000 1.0000
57.8800 159.0000 1.0000
57.9000 175.0000 1.0000
57.9200 154.0000 1.0000
57.9400 150.0000 1.0000
57.9600 155.0000 1.0000
57.9800 168.0000 1.0000
58.0000 143.0000 1.0000
58.0200 142.0000 1.0000
58.0400 142.0000 1.0000
58.0600 150.0000 1.0000
58.0800 144.0000 1.0000
58.1000 142.0000 1.0000
58.1200 133.0000 1.0000
58.1400 139.0000 1.0000
58.1600 133.0000 1.0000
58.1800 124.0000 1.0000
58.2000 140.0000 1.0000
58.2200 141.0000 1.0000
58.2400 160.0000 1.0000
58.2600 153.0000 1.0000
58.2800 154.0000 1.0000
58.3000 146.0000 1.0000
58.3200 141.0000 1.0000
58.3400 164.0000 1.0000
58.3600 150.0000 1.0000
58.3800 161.0000 1.0000
58.4000 173.0000 1.0000
58.4200 152.0000 1.0000
58.4400 176.0000 1.0000
58.4600 174.0000 1.0000
58.4800 167.0000 1.0000
58.5000 161.0000 1.0000
58.5200 172.0000 1.0000
58.5400 172.0000 1.0000
58.5600 184.0000 1.0000
58.5800 173.0000 1.0000
58.6000 156.0000 1.0000
58.6200 148.0000 1.0000
58.6400 169.0000 1.0000
58.6600 159.0000 1.0000
58.6800 153.0000 1.0000
58.7000 151.0000 1.0000
58.7200 153.0000 1.0000
58.7400 164.0000 1.0000
58.7600 151.0000 1.0000
58.7800 140.0000 1.0000
58.8000 134.0000 1.0000
58.8200 111.0000 1.0000
58.8400 122.0000 1.0000
58.8600 122.0000 1.0000
58.8800 125.0000 1.0000
58.9000 121.0000 1.0000
58.9200 149.0000 1.0000
58.9400 141.0000 1.0000
58.9600 138.0000 1.0000
58.9800 134.0000 1.0000
59.0000 132.0000 1.0000
59.0200 141.0000 1.0000
59.0400 124.0000 1.0000
59.0600 121.0000 1.0000
59.0800 145.0000 1.0000
59.1000 158.0000 1.0000
59.1200 134.0000 1.0000
59.1400 136.0000 1.0000
59.1600 157.0000 1.0000
59.1800 155.0000 1.0000
59.2000 149.0000 1.0000
59.2200 152.0000 1.0000
59.2400 141.0000 1.0000
59.2600 135.0000 1.0000
59.2800 149.0000 1.0000
59.3000 167.0000 1.0000
59.3200 160.0000 1.0000
59.3400 131.0000 1.0000
59.3600 146.0000 1.0000
59.3800 158.0000 1.0000
59.4000 172.0000 1.0000
59.4200 161.0000 1.0000
59.4400 174.0000 1.0000
59.4600 187.0000 1.0000
59.4800 210.0000 1.0000
59.5000 201.0000 1.0000
59.5200 195.0000 1.0000
59.5400 243.0000 1.0000
59.5600 235.0000 1.0000
59.5800 224.0000 1.0000
59.6000 266.0000 1.0000
59.6200 312.0000 1.0000
59.6400 290.0000 1.0000
59.6600 318.0000 1.0000
59.6800 381.0000 1.0000
59.7000 438.0000 1.0000
59.7200 508.0000 1.0000
59.7400 613.0000 1.0000
59.7600 719.0000 1.0000
59.7800 842.0000 1.0000
59.8000 892.0000 1.0000
59.8200 887.0000 1.0000
59.8400 817.0000 1.0000
59.8600 749.0000 1.0000
59.8800 675.0000 1.0000
59.9000 579.0000 1.0000
59.9200 540.0000 1.0000
59.9400 570.0000 1.0000
59.9600 523.0000 1.0000
59.9800 527.0000 1.0000
60.0000 485.0000 1.0000
60.0200 416.0000 1.0000
60.0400 406.0000 1.0000
60.0600 303.0000 1.0000
60.0800 268.0000 1.0000
60.1000 247.0000 1.0000
60.1200 252.0000 1.0000
60.1400 213.0000 1.0000
60.1600 238.0000 1.0000
60.1800 188.0000 1.0000
60.2000 208.0000 1.0000
60.2200 185.0000 1.0000
60.2400 173.0000 1.0000
60.2600 156.0000 1.0000
60.2800 192.0000 1.0000
60.3000 182.0000 1.0000
60.3200 169.0000 1.0000
60.3400 193.0000 1.0000
60.3600 176.0000 1.0000
60.3800 207.0000 1.0000
60.4000 138.0000 1.0000
60.4200 177.0000 1.0000
60.4400 186.0000 1.0000
60.4600 172.0000 1.0000
60.4800 170.0000 1.0000
60.5000 159.0000 1.0000
60.5200 181.0000 1.0000
60.5400 185.0000 1.0000
60.5600 159.0000 1.0000
60.5800 141.0000 1.0000
60.6000 165.0000 1.0000
60.6200 170.0000 1.0000
60.6400 155.0000 1.0000
60.6600 150.0000 1.0000
60.6800 169.0000 1.0000
60.7000 163.0000 1.0000
60.7200 165.0000 1.0000
60.7400 150.0000 1.0000
60.7600 157.0000 1.0000
60.7800 157.0000 1.0000
60.8000 169.0000 1.0000
60.8200 167.0000 1.0000
60.8400 178.0000 1.0000
60.8600 176.0000 1.0000
60.8800 162.0000 1.0000
60.9000 187.0000 1.0000
60.9200 192.0000 1.0000
60.9400 198.0000 1.0000
60.9600 192.0000 1.0000
60.9800 202.0000 1.0000
61.0000 202.0000 1.0000
61.0200 192.0000 1.0000
61.0400 206.0000 1.0000
61.0600 233.0000 1.0000
61.0800 221.0000 1.0000
61.1000 267.0000 1.0000
61.1200 273.0000 1.0000
61.1400 262.0000 1.0000
61.1600 289.0000 1.0000
61.1800 266.0000 1.0000
61.2000 242.0000 1.0000
61.2200 230.0000 1.0000
61.2400 249.0000 1.0000
61.2600 180.0000 1.0000
61.2800 205.0000 1.0000
61.3000 238.0000 1.0000
61.3200 229.0000 1.0000
61.3400 225.0000 1.0000
61.3600 217.0000 1.0000
61.3800 232.0000 1.0000
61.4000 187.0000 1.0000
61.4200 198.0000 1.0000
61.4400 205.0000 1.0000
61.4600 188.0000 1.0000
61.4800 198.0000 1.0000
61.5000 170.0000 1.0000
61.5200 185.0000 1.0000
61.5400 191.0000 1.0000
61.5600 164.0000 1.0000
61.5800 176.0000 1.0000
61.6000 192.0000 1.0000
61.6200 175.0000 1.0000
61.6400 171.0000 1.0000
61.6600 204.0000 1.0000
61.6800 202.0000 1.0000
61.7000 158.0000 1.0000
61.7200 198.0000 1.0000
61.7400 185.0000 1.0000
61.7600 168.0000 1.0000
61.7800 204.0000 1.0000
61.8000 184.0000 1.0000
61.8200 181.0000 1.0000
61.8400 185.0000 1.0000
61.8600 180.0000 1.0000
61.8800 155.0000 1.0000
61.9000 179.0000 1.0000
61.9200 210.0000 1.0000
61.9400 177.0000 1.0000
61.9600 163.0000 1.0000
61.9800 177.0000 1.0000
62.0000 167.0000 1.0000
62.0200 172.0000 1.0000
62.0400 175.0000 1.0000
62.0600 168.0000 1.0000
62.0800 160.0000 1.0000
62.1000 176.0000 1.0000
62.1200 150.0000 1.0000
62.1400 144.0000 1.0000
62.1600 162.0000 1.0000
62.1800 180.0000 1.0000
62.2000 153.0000 1.0000
62.2200 158.0000 1.0000
62.2400 132.0000 1.0000
62.2600 142.0000 1.0000
62.2800 133.0000 1.0000
62.3000 159.0000 1.0000
62.3200 146.0000 1.0000
62.3400 148.0000 1.0000
62.3600 166.0000 1.0000
62.3800 136.0000 1.0000
62.4000 129.0000 1.0000
62.4200 144.0000 1.0000
62.4400 149.0000 1.0000
62.4600 173.0000 1.0000
62.4800 133.0000 1.0000
62.5000 139.0000 1.0000
62.5200 145.0000 1.0000
62.5400 138.0000 1.0000
62.5600 136.0000 1.0000
62.5800 129.0000 1.0000
62.6000 146.0000 1.0000
62.6200 141.0000 1.0000
62.6400 152.0000 1.0000
62.6600 153.0000 1.0000
62.6800 132.0000 1.0000
62.7000 140.0000 1.0000
62.7200 137.0000 1.0000
62.7400 146.0000 1.0000
62.7600 151.0000 1.0000
62.7800 120.0000 1.0000
62.8000 145.0000 1.0000
62.8200 170.0000 1.0000
62.8400 166.0000 1.0000
62.8600 157.0000 1.0000
62.8800 143.0000 1.0000
62.9000 131.0000 1.0000
62.9200 144.0000 1.0000
62.9400 143.0000 1.0000
62.9600 139.0000 1.0000
62.9800 139.0000 1.0000
63.0000 143.0000 1.0000
63.0200 158.0000 1.0000
63.0400 156.0000 1.0000
63.0600 160.0000 1.0000
63.0800 165.0000 1.0000
63.1000 159.0000 1.0000
63.1200 148.0000 1.0000
63.1400 172.0000 1.0000
63.1600 152.0000 1.0000
63.1800 175.0000 1.0000
63.2000 153.0000 1.0000
63.2200 158.0000 1.0000
63.2400 165.0000 1.0000
63.2600 171.0000 1.0000
63.2800 166.0000 1.0000
63.3000 155.0000 1.0000
63.3200 160.0000 1.0000
63.3400 156.0000 1.0000
63.3600 167.0000 1.0000
63.3800 181.0000 1.0000
63.4000 164.0000 1.0000
63.4200 177.0000 1.0000
63.4400 182.0000 1.0000
63.4600 180.0000 1.0000
63.4800 219.0000 1.0000
63.5000 205.0000 1.0000
63.5200 190.0000 1.0000
63.5400 204.0000 1.0000
63.5600 223.0000 1.0000
63.5800 215.0000 1.0000
63.6000 225.0000 1.0000
63.6200 244.0000 1.0000
63.6400 266.0000 1.0000
63.6600 256.0000 1.0000
63.6800 231.0000 1.0000
63.7000 229.0000 1.0000
63.7200 260.0000 1.0000
63.7400 227.0000 1.0000
63.7600 232.0000 1.0000
63.7800 258.0000 1.0000
63.8000 255.0000 1.0000
63.8200 287.0000 1.0000
63.8400 285.0000 1.0000
63.8600 314.0000 1.0000
63.8800 288.0000 1.0000
63.9000 299.0000 1.0000
63.9200 243.0000 1.0000
63.9400 226.0000 1.0000
63.9600 259.0000 1.0000
63.9800 256.0000 1.0000
64.0000 211.0000 1.0000
64.0200 199.0000 1.0000
64.0400 234.0000 1.0000
64.0600 208.0000 1.0000
64.0800 223.0000 1.0000
64.1000 219.0000 1.0000
64.1200 195.0000 1.0000
64.1400 177.0000 1.0000
64.1600 162.0000 1.0000
64.1800 169.0000 1.0000
64.2000 181.0000 1.0000
64.2200 182.0000 1.0000
64.2400 171.0000 1.0000
64.2600 161.0000 1.0000
64.2800 163.0000 1.0000
64.3000 153.0000 1.0000
64.3200 151.0000 1.0000
64.3400 156.0000 1.0000
64.3600 153.0000 1.0000
64.3800 157.0000 1.0000
64.4000 152.0000 1.0000
64.4200 152.0000 1.0000
64.4400 141.0000 1.0000
64.4600 139.0000 1.0000
64.4800 144.0000 1.0000
64.5000 131.0000 1.0000
64.5200 156.0000 1.0000
64.5400 147.0000 1.0000
64.5600 130.0000 1.0000
64.5800 149.0000 1.0000
64.6000 146.0000 1.0000
64.6200 143.0000 1.0000
64.6400 142.0000 1.0000
64.6600 142.0000 1.0000
64.6800 143.0000 1.0000
64.7000 128.0000 1.0000
64.7200 127.0000 1.0000
64.7400 144.0000 1.0000
64.7600 137.0000 1.0000
64.7800 143.0000 1.0000
64.8000 145.0000 1.0000
64.8200 141.0000 1.0000
64.8400 144.0000 1.0000
64.8600 153.0000 1.0000
64.8800 145.0000 1.0000
64.9000 140.0000 1.0000
64.9200 148.0000 1.0000
64.9400 151.0000 1.0000
64.9600 151.0000 1.0000
64.9800 151.0000 1.0000
65.0000 151.0000 1.0000
*RAS_INT_END
*RAS_DATA_END
