*RAS_DATA_START
*RAS_HEADER_START
*CORR_POS_DB_NAME "Angle Correction ASC6 SC WITH Mono_04082019"
*CORR_POS_GONIO_RADIUS ""
*CORR_POS_NODE_INDEX01 ""
*CORR_POS_NODE_INDEX02 ""
*CORR_POS_NODE_INDEX03 ""
*CORR_POS_NODE_INDEX04 ""
*CORR_POS_NODE_INDEX05 ""
*CORR_POS_NODE_INDEX06 ""
*CORR_POS_NODE_INDEX07 ""
*CORR_POS_NODE_INDEX08 ""
*CORR_POS_NODE_INDEX09 ""
*CORR_POS_NODE_INDEX10 ""
*CORR_POS_NODE_INDEX11 ""
*CORR_POS_NODE_LABEL01 "Si(111)"
*CORR_POS_NODE_LABEL02 "Si(220)"
*CORR_POS_NODE_LABEL03 "Si(311)"
*CORR_POS_NODE_LABEL04 "Si(400)"
*CORR_POS_NODE_LABEL05 "Si(331)"
*CORR_POS_NODE_LABEL06 "Si(422)"
*CORR_POS_NODE_LABEL07 "Si(511)"
*CORR_POS_NODE_LABEL08 "Si(440)"
*CORR_POS_NODE_LABEL09 "Si(531)"
*CORR_POS_NODE_LABEL10 "Si(620)"
*CORR_POS_NODE_LABEL11 "Si(533)"
*CORR_POS_NODE_POS_CALC01 "28.377"
*CORR_POS_NODE_POS_CALC02 "47.2506"
*CORR_POS_NODE_POS_CALC03 "56.0725"
*CORR_POS_NODE_POS_CALC04 "69.0822"
*CORR_POS_NODE_POS_CALC05 "76.3294"
*CORR_POS_NODE_POS_CALC06 "87.9853"
*CORR_POS_NODE_POS_CALC07 "94.9091"
*CORR_POS_NODE_POS_CALC08 "106.668"
*CORR_POS_NODE_POS_CALC09 "114.054"
*CORR_POS_NODE_POS_CALC10 "127.511"
*CORR_POS_NODE_POS_CALC11 "136.864"
*CORR_POS_NODE_POS_MEAS01 "28.5058"
*CORR_POS_NODE_POS_MEAS02 "47.345"
*CORR_POS_NODE_POS_MEAS03 "56.1421"
*CORR_POS_NODE_POS_MEAS04 "69.1304"
*CORR_POS_NODE_POS_MEAS05 "76.366"
*CORR_POS_NODE_POS_MEAS06 "88.0213"
*CORR_POS_NODE_POS_MEAS07 "94.9406"
*CORR_POS_NODE_POS_MEAS08 "106.689"
*CORR_POS_NODE_POS_MEAS09 "114.065"
*CORR_POS_NODE_POS_MEAS10 "127.518"
*CORR_POS_NODE_POS_MEAS11 "136.869"
*CORR_POS_OPT_ATTR "集中法"
*CORR_POS_PARAM_MU ""
*CORR_POS_PARAM_PL ""
*CORR_POS_SEMODEL_TYPE "0"
*CORR_POS_STANDARD_TYPE ""
*CORR_POS_VALUE_ANALYZER "None"
*CORR_POS_VALUE_CMONO "None"
*CORR_POS_VALUE_IMONO "None"
*CORR_POS_VALUE_IS "1.250deg"
*CORR_POS_VALUE_ISL "10.0mm"
*CORR_POS_VALUE_ISOLLER "5.0deg"
*CORR_POS_VALUE_RS1 "1.250deg"
*CORR_POS_VALUE_RS2 "0.3mm"
*CORR_POS_VALUE_RSOLLER "5.0deg"
*CORR_POS_XG_FOCUS_L ""
*CORR_POS_XG_WAVE_TYPE ""
*CORR_POS_XG_WAVE_VALUE ""
*DISP_FMT_X "%.2f"
*DISP_FMT_Y "%.0f"
*DISP_FULLSCALE "4838.4000000000"
*DISP_LINE_COLOR "255.0000000000"
*DISP_LINE_STYLE "0.0000000000"
*DISP_LINE_WIDTH "0.2500000000"
*DISP_NOTE "Collected Data-20"
*DISP_OFFSET_Y "0.0000000000"
*DISP_PEAKSEARCH_UNIT_Y "CPS"
*DISP_RANGE_BOTTOM "0.0000000000"
*DISP_RANGE_LEFT "5.0000000000"
*DISP_RANGE_LOGCUTOFF "0.0100000000"
*DISP_RANGE_RIGHT "65.0000000000"
*DISP_RANGE_TOP "4838.4000000000"
*DISP_SCALE_MODE_Y "0.0000000000"
*DISP_TAB_NAME "Theta/2-Theta"
*DISP_TITLE_Y "Intensity"
*DISP_UNIT_Y "CPS"
*DISP_WINDOW_NAME "MSG_MACROENGINE"
*FILE_COMMENT " "
*FILE_MD5 ""
*FILE_MEMO " "
*FILE_OPERATOR "Administrator"
*FILE_PART_ID "MEAS_PBEA_00223"
*FILE_SAMPLE " "
*FILE_TYPE "RAS_RAW"
*FILE_USERGROUP "System Manager"
*FILE_VERSION "1.0000000000"
*HW_ATTACHMENT_ID "ATT1031"
*HW_ATTACHMENT_NAME "6サンプルチェンジャ|ASC-6"
*HW_COUNTER_ID-0 "CUT0021"
*HW_COUNTER_ID-1 "CUT0020"
*HW_COUNTER_ID-2 "CUT0020"
*HW_COUNTER_ID-3 "CMC0021"
*HW_COUNTER_NAME-0 "SC-70|SC-70"
*HW_COUNTER_NAME-1 "None|None"
*HW_COUNTER_NAME-2 "None|None"
*HW_COUNTER_NAME-3 "検出器モノクロメータ|Detector monochromator"
*HW_COUNTER_SELECT_NAME "SC-70|SC-70"
*HW_ECP_HV "671.5000000000"
*HW_ECP_HV_UNIT "V"
*HW_GONIOMETER_ID "GON0070"
*HW_GONIOMETER_NAME "MiniFlex 300/600|MiniFlex 300/600"
*HW_GONIOMETER_RADIUS-0 "79.0"
*HW_GONIOMETER_RADIUS-1 "91.5"
*HW_GONIOMETER_RADIUS-2 "150.0"
*HW_GONIOMETER_RADIUS-3 "0"
*HW_GONIOMETER_RADIUS-4 "103.4"
*HW_GONIOMETER_RADIUS-5 "150.0"
*HW_GONIOMETER_RADIUS-6 "46.6"
*HW_GONIOMETER_RADIUS-7 "160.0"
*HW_I_OPT_ID-0 "ISL0021"
*HW_I_OPT_ID-1 "ISO0021"
*HW_I_OPT_NAME-0 "発散スリット|Divergence slit"
*HW_I_OPT_NAME-1 "入射平行スリット|Incident parallel slit"
*HW_R_ATTENUATER_AUTOMODE "0"
*HW_R_OPT_ID-0 "RSS0021"
*HW_R_OPT_ID-1 "RSO0021"
*HW_R_OPT_ID-2 "RRS0021"
*HW_R_OPT_NAME-0 "散乱スリット|Scattering slit"
*HW_R_OPT_NAME-1 "受光平行スリット|Receiving soller slit"
*HW_R_OPT_NAME-2 "受光スリット|Receiving slit"
*HW_SAMPLE_HOLDER_ID "SMP0000"
*HW_SAMPLE_HOLDER_NAME "無し|None"
*HW_XG_CURRENT_MAX "15"
*HW_XG_CURRENT_MIN "2"
*HW_XG_CURRENT_RESOLUTION "1"
*HW_XG_CURRENT_UNIT "mA"
*HW_XG_FOCUS "1mm x 10mm"
*HW_XG_FOCUS_TYPE "Normal"
*HW_XG_ID "1060"
*HW_XG_NAME "300W/600W 封入管-B|300W/600W Sealed tube-B"
*HW_XG_TARGET_ATOMIC_NUMBER "29.0000000000"
*HW_XG_TARGET_NAME "Cu"
*HW_XG_TYPE "Hermetic"
*HW_XG_VOLTAGE_MAX "40"
*HW_XG_VOLTAGE_MIN "20"
*HW_XG_VOLTAGE_RESOLUTION "1"
*HW_XG_VOLTAGE_UNIT "kV"
*HW_XG_WATT_MAX "0.600"
*HW_XG_WATT_UNIT "kW"
*HW_XG_WAVE_LENGTH_ALPHA1 "1.540593"
*HW_XG_WAVE_LENGTH_ALPHA2 "1.544414"
*HW_XG_WAVE_LENGTH_BETA "1.392250"
*MEAS_COND_AXIS_NAME-0 "Theta/2-Theta"
*MEAS_COND_AXIS_NAME-1 "Spin"
*MEAS_COND_AXIS_NAME-2 "Change"
*MEAS_COND_AXIS_NAME-3 "Soller(inc.)"
*MEAS_COND_AXIS_NAME-4 "IHS"
*MEAS_COND_AXIS_NAME-5 "DS"
*MEAS_COND_AXIS_NAME-6 "SS"
*MEAS_COND_AXIS_NAME-7 "Soller(rec.)"
*MEAS_COND_AXIS_NAME-8 "RS"
*MEAS_COND_AXIS_NAME-9 "Filter"
*MEAS_COND_AXIS_NAME-10 "Monochromator"
*MEAS_COND_AXIS_NAME-11 "HV"
*MEAS_COND_AXIS_NAME-12 "PHA"
*MEAS_COND_AXIS_NAME_INTERNAL-0 "TwoThetaTheta"
*MEAS_COND_AXIS_NAME_INTERNAL-1 "Spin"
*MEAS_COND_AXIS_NAME_INTERNAL-2 "Change"
*MEAS_COND_AXIS_NAME_INTERNAL-3 "IncidentSollerSlit"
*MEAS_COND_AXIS_NAME_INTERNAL-4 "IncidentAxdSlit"
*MEAS_COND_AXIS_NAME_INTERNAL-5 "IncidentSlitBox"
*MEAS_COND_AXIS_NAME_INTERNAL-6 "ReceivingSlitBox1"
*MEAS_COND_AXIS_NAME_INTERNAL-7 "ReceivingSollerSlit"
*MEAS_COND_AXIS_NAME_INTERNAL-8 "ReceivingSlitBox2"
*MEAS_COND_AXIS_NAME_INTERNAL-9 "Filter"
*MEAS_COND_AXIS_NAME_INTERNAL-10 "CounterMonochromator"
*MEAS_COND_AXIS_NAME_INTERNAL-11 "HV"
*MEAS_COND_AXIS_NAME_INTERNAL-12 "PHA"
*MEAS_COND_AXIS_NAME_MAGICNO-0 "268632064.0000000000"
*MEAS_COND_AXIS_NAME_MAGICNO-1 "16842752.0000000000"
*MEAS_COND_AXIS_NAME_MAGICNO-2 "16842752.0000000000"
*MEAS_COND_AXIS_NAME_MAGICNO-3 "20971521.0000000000"
*MEAS_COND_AXIS_NAME_MAGICNO-4 "22020097.0000000000"
*MEAS_COND_AXIS_NAME_MAGICNO-5 "22020097.0000000000"
*MEAS_COND_AXIS_NAME_MAGICNO-6 "23068673.0000000000"
*MEAS_COND_AXIS_NAME_MAGICNO-7 "20971521.0000000000"
*MEAS_COND_AXIS_NAME_MAGICNO-8 "23068673.0000000000"
*MEAS_COND_AXIS_NAME_MAGICNO-9 "20971521.0000000000"
*MEAS_COND_AXIS_NAME_MAGICNO-10 "20971521.0000000000"
*MEAS_COND_AXIS_NAME_MAGICNO-11 "0.0000000000"
*MEAS_COND_AXIS_NAME_MAGICNO-12 "0.0000000000"
*MEAS_COND_AXIS_OFFSET-0 "0.0000000000"
*MEAS_COND_AXIS_OFFSET-1 "-"
*MEAS_COND_AXIS_OFFSET-2 "-"
*MEAS_COND_AXIS_OFFSET-3 "-"
*MEAS_COND_AXIS_OFFSET-4 "-"
*MEAS_COND_AXIS_OFFSET-5 "-"
*MEAS_COND_AXIS_OFFSET-6 "-"
*MEAS_COND_AXIS_OFFSET-7 "-"
*MEAS_COND_AXIS_OFFSET-8 "-"
*MEAS_COND_AXIS_OFFSET-9 "-"
*MEAS_COND_AXIS_OFFSET-10 "-"
*MEAS_COND_AXIS_OFFSET-11 "-"
*MEAS_COND_AXIS_OFFSET-12 "-"
*MEAS_COND_AXIS_POSITION-0 "65.0000000000"
*MEAS_COND_AXIS_POSITION-1 "0.0000000000"
*MEAS_COND_AXIS_POSITION-2 "6.0000000000"
*MEAS_COND_AXIS_POSITION-3 "5.0deg"
*MEAS_COND_AXIS_POSITION-4 "10.0mm"
*MEAS_COND_AXIS_POSITION-5 "1.250deg"
*MEAS_COND_AXIS_POSITION-6 "1.250deg"
*MEAS_COND_AXIS_POSITION-7 "5.0deg"
*MEAS_COND_AXIS_POSITION-8 "0.3mm"
*MEAS_COND_AXIS_POSITION-9 "None"
*MEAS_COND_AXIS_POSITION-10 "Bent"
*MEAS_COND_AXIS_POSITION-11 "671.5000000000"
*MEAS_COND_AXIS_POSITION-12 "551.2500000000"
*MEAS_COND_AXIS_UNIT-0 "deg"
*MEAS_COND_AXIS_UNIT-1 ""
*MEAS_COND_AXIS_UNIT-2 ""
*MEAS_COND_AXIS_UNIT-3 ""
*MEAS_COND_AXIS_UNIT-4 ""
*MEAS_COND_AXIS_UNIT-5 ""
*MEAS_COND_AXIS_UNIT-6 ""
*MEAS_COND_AXIS_UNIT-7 ""
*MEAS_COND_AXIS_UNIT-8 ""
*MEAS_COND_AXIS_UNIT-9 ""
*MEAS_COND_AXIS_UNIT-10 ""
*MEAS_COND_AXIS_UNIT-11 "V"
*MEAS_COND_AXIS_UNIT-12 "mV"
*MEAS_COND_CORRECTION_SLIT_COUNTERMONO "None"
*MEAS_COND_CORRECTION_SLIT_DS "1.250deg"
*MEAS_COND_CORRECTION_SLIT_FILTER "None"
*MEAS_COND_CORRECTION_SLIT_IHS "10.0mm"
*MEAS_COND_CORRECTION_SLIT_RS "0.3mm"
*MEAS_COND_CORRECTION_SLIT_SOLLER_INC "5.0deg"
*MEAS_COND_CORRECTION_SLIT_SOLLER_REC "5.0deg"
*MEAS_COND_CORRECTION_SLIT_SS "1.250deg"
*MEAS_COND_COUNTER_CNTLOSS_CORR "0.0000000000"
*MEAS_COND_COUNTER_PHABASE "551.2500000000"
*MEAS_COND_COUNTER_PHAWINDOW "926.2500000000"
*MEAS_COND_COUNTER_PHA_UNIT "mV"
*MEAS_COND_COUNTER_TAUDIFF "0.2500000000"
*MEAS_COND_COUNTER_TAUINT "0.7500000000"
*MEAS_COND_IRRADIATION_MODE "OFF"
*MEAS_COND_IRRADIATION_WIDTH ""
*MEAS_COND_OPT_ATTR " "
*MEAS_COND_OPT_NAME ""
*MEAS_COND_UNSYMMETRIC_MODE "OFF"
*MEAS_COND_XG_CURRENT "15.0000000000"
*MEAS_COND_XG_VOLTAGE "40.0000000000"
*MEAS_COND_XG_WAVE_TYPE "Ka"
*MEAS_DATA_COUNT "3001.0000000000"
*MEAS_SCAN_AXIS_X "Theta/2-Theta"
*MEAS_SCAN_AXIS_X_INTERNAL "TwoThetaTheta"
*MEAS_SCAN_END_TIME "05/07/25 00:26:37"
*MEAS_SCAN_MODE "STEP"
*MEAS_SCAN_MONITOR "0"
*MEAS_SCAN_RESOLUTION_X "0.0025"
*MEAS_SCAN_SPEED "2.00"
*MEAS_SCAN_SPEED_UNIT "sec."
*MEAS_SCAN_SPEED_USER "2.00"
*MEAS_SCAN_START "5.0000000000"
*MEAS_SCAN_START_TIME "05/06/25 22:41:21"
*MEAS_SCAN_STEP "0.0200000000"
*MEAS_SCAN_STOP "65.0000000000"
*MEAS_SCAN_UNIT_X "deg"
*MEAS_SCAN_UNIT_Y "counts"
*SLIT_SYSTEM "0"
*RAS_HEADER_END
*RAS_INT_START
5.0000 851.0000 1.0000
5.0200 952.0000 1.0000
5.0400 815.0000 1.0000
5.0600 989.0000 1.0000
5.0800 882.0000 1.0000
5.1000 860.0000 1.0000
5.1200 901.0000 1.0000
5.1400 843.0000 1.0000
5.1600 941.0000 1.0000
5.1800 890.0000 1.0000
5.2000 847.0000 1.0000
5.2200 909.0000 1.0000
5.2400 912.0000 1.0000
5.2600 863.0000 1.0000
5.2800 813.0000 1.0000
5.3000 863.0000 1.0000
5.3200 800.0000 1.0000
5.3400 860.0000 1.0000
5.3600 829.0000 1.0000
5.3800 781.0000 1.0000
5.4000 737.0000 1.0000
5.4200 734.0000 1.0000
5.4400 820.0000 1.0000
5.4600 780.0000 1.0000
5.4800 753.0000 1.0000
5.5000 720.0000 1.0000
5.5200 832.0000 1.0000
5.5400 822.0000 1.0000
5.5600 833.0000 1.0000
5.5800 803.0000 1.0000
5.6000 777.0000 1.0000
5.6200 758.0000 1.0000
5.6400 762.0000 1.0000
5.6600 759.0000 1.0000
5.6800 736.0000 1.0000
5.7000 695.0000 1.0000
5.7200 705.0000 1.0000
5.7400 752.0000 1.0000
5.7600 723.0000 1.0000
5.7800 698.0000 1.0000
5.8000 773.0000 1.0000
5.8200 725.0000 1.0000
5.8400 713.0000 1.0000
5.8600 752.0000 1.0000
5.8800 730.0000 1.0000
5.9000 744.0000 1.0000
5.9200 744.0000 1.0000
5.9400 733.0000 1.0000
5.9600 724.0000 1.0000
5.9800 731.0000 1.0000
6.0000 713.0000 1.0000
6.0200 757.0000 1.0000
6.0400 807.0000 1.0000
6.0600 743.0000 1.0000
6.0800 710.0000 1.0000
6.1000 680.0000 1.0000
6.1200 677.0000 1.0000
6.1400 706.0000 1.0000
6.1600 679.0000 1.0000
6.1800 686.0000 1.0000
6.2000 615.0000 1.0000
6.2200 625.0000 1.0000
6.2400 640.0000 1.0000
6.2600 671.0000 1.0000
6.2800 630.0000 1.0000
6.3000 596.0000 1.0000
6.3200 588.0000 1.0000
6.3400 648.0000 1.0000
6.3600 661.0000 1.0000
6.3800 603.0000 1.0000
6.4000 619.0000 1.0000
6.4200 623.0000 1.0000
6.4400 621.0000 1.0000
6.4600 578.0000 1.0000
6.4800 533.0000 1.0000
6.5000 586.0000 1.0000
6.5200 604.0000 1.0000
6.5400 571.0000 1.0000
6.5600 555.0000 1.0000
6.5800 542.0000 1.0000
6.6000 541.0000 1.0000
6.6200 547.0000 1.0000
6.6400 574.0000 1.0000
6.6600 555.0000 1.0000
6.6800 540.0000 1.0000
6.7000 535.0000 1.0000
6.7200 528.0000 1.0000
6.7400 496.0000 1.0000
6.7600 517.0000 1.0000
6.7800 529.0000 1.0000
6.8000 530.0000 1.0000
6.8200 518.0000 1.0000
6.8400 557.0000 1.0000
6.8600 566.0000 1.0000
6.8800 516.0000 1.0000
6.9000 498.0000 1.0000
6.9200 510.0000 1.0000
6.9400 549.0000 1.0000
6.9600 531.0000 1.0000
6.9800 500.0000 1.0000
7.0000 512.0000 1.0000
7.0200 527.0000 1.0000
7.0400 523.0000 1.0000
7.0600 511.0000 1.0000
7.0800 496.0000 1.0000
7.1000 505.0000 1.0000
7.1200 509.0000 1.0000
7.1400 542.0000 1.0000
7.1600 558.0000 1.0000
7.1800 510.0000 1.0000
7.2000 501.0000 1.0000
7.2200 510.0000 1.0000
7.2400 477.0000 1.0000
7.2600 466.0000 1.0000
7.2800 503.0000 1.0000
7.3000 489.0000 1.0000
7.3200 482.0000 1.0000
7.3400 486.0000 1.0000
7.3600 452.0000 1.0000
7.3800 438.0000 1.0000
7.4000 470.0000 1.0000
7.4200 509.0000 1.0000
7.4400 510.0000 1.0000
7.4600 498.0000 1.0000
7.4800 475.0000 1.0000
7.5000 451.0000 1.0000
7.5200 455.0000 1.0000
7.5400 443.0000 1.0000
7.5600 467.0000 1.0000
7.5800 513.0000 1.0000
7.6000 501.0000 1.0000
7.6200 451.0000 1.0000
7.6400 430.0000 1.0000
7.6600 454.0000 1.0000
7.6800 474.0000 1.0000
7.7000 459.0000 1.0000
7.7200 436.0000 1.0000
7.7400 454.0000 1.0000
7.7600 462.0000 1.0000
7.7800 473.0000 1.0000
7.8000 465.0000 1.0000
7.8200 452.0000 1.0000
7.8400 443.0000 1.0000
7.8600 440.0000 1.0000
7.8800 431.0000 1.0000
7.9000 435.0000 1.0000
7.9200 479.0000 1.0000
7.9400 511.0000 1.0000
7.9600 434.0000 1.0000
7.9800 414.0000 1.0000
8.0000 441.0000 1.0000
8.0200 459.0000 1.0000
8.0400 448.0000 1.0000
8.0600 433.0000 1.0000
8.0800 486.0000 1.0000
8.1000 429.0000 1.0000
8.1200 458.0000 1.0000
8.1400 487.0000 1.0000
8.1600 517.0000 1.0000
8.1800 482.0000 1.0000
8.2000 426.0000 1.0000
8.2200 461.0000 1.0000
8.2400 469.0000 1.0000
8.2600 509.0000 1.0000
8.2800 503.0000 1.0000
8.3000 486.0000 1.0000
8.3200 478.0000 1.0000
8.3400 468.0000 1.0000
8.3600 543.0000 1.0000
8.3800 566.0000 1.0000
8.4000 558.0000 1.0000
8.4200 521.0000 1.0000
8.4400 578.0000 1.0000
8.4600 583.0000 1.0000
8.4800 544.0000 1.0000
8.5000 572.0000 1.0000
8.5200 610.0000 1.0000
8.5400 613.0000 1.0000
8.5600 635.0000 1.0000
8.5800 608.0000 1.0000
8.6000 621.0000 1.0000
8.6200 618.0000 1.0000
8.6400 554.0000 1.0000
8.6600 537.0000 1.0000
8.6800 469.0000 1.0000
8.7000 447.0000 1.0000
8.7200 416.0000 1.0000
8.7400 434.0000 1.0000
8.7600 420.0000 1.0000
8.7800 360.0000 1.0000
8.8000 361.0000 1.0000
8.8200 333.0000 1.0000
8.8400 321.0000 1.0000
8.8600 369.0000 1.0000
8.8800 337.0000 1.0000
8.9000 355.0000 1.0000
8.9200 371.0000 1.0000
8.9400 387.0000 1.0000
8.9600 311.0000 1.0000
8.9800 329.0000 1.0000
9.0000 332.0000 1.0000
9.0200 311.0000 1.0000
9.0400 329.0000 1.0000
9.0600 338.0000 1.0000
9.0800 338.0000 1.0000
9.1000 345.0000 1.0000
9.1200 332.0000 1.0000
9.1400 380.0000 1.0000
9.1600 365.0000 1.0000
9.1800 344.0000 1.0000
9.2000 319.0000 1.0000
9.2200 330.0000 1.0000
9.2400 320.0000 1.0000
9.2600 311.0000 1.0000
9.2800 324.0000 1.0000
9.3000 311.0000 1.0000
9.3200 345.0000 1.0000
9.3400 332.0000 1.0000
9.3600 353.0000 1.0000
9.3800 363.0000 1.0000
9.4000 366.0000 1.0000
9.4200 434.0000 1.0000
9.4400 426.0000 1.0000
9.4600 423.0000 1.0000
9.4800 424.0000 1.0000
9.5000 409.0000 1.0000
9.5200 452.0000 1.0000
9.5400 533.0000 1.0000
9.5600 438.0000 1.0000
9.5800 402.0000 1.0000
9.6000 304.0000 1.0000
9.6200 324.0000 1.0000
9.6400 341.0000 1.0000
9.6600 310.0000 1.0000
9.6800 276.0000 1.0000
9.7000 289.0000 1.0000
9.7200 287.0000 1.0000
9.7400 315.0000 1.0000
9.7600 320.0000 1.0000
9.7800 327.0000 1.0000
9.8000 362.0000 1.0000
9.8200 377.0000 1.0000
9.8400 384.0000 1.0000
9.8600 356.0000 1.0000
9.8800 350.0000 1.0000
9.9000 423.0000 1.0000
9.9200 467.0000 1.0000
9.9400 483.0000 1.0000
9.9600 529.0000 1.0000
9.9800 556.0000 1.0000
10.0000 630.0000 1.0000
10.0200 599.0000 1.0000
10.0400 685.0000 1.0000
10.0600 832.0000 1.0000
10.0800 961.0000 1.0000
10.1000 992.0000 1.0000
10.1200 1202.0000 1.0000
10.1400 1401.0000 1.0000
10.1600 1645.0000 1.0000
10.1800 1798.0000 1.0000
10.2000 2129.0000 1.0000
10.2200 2219.0000 1.0000
10.2400 2473.0000 1.0000
10.2600 2210.0000 1.0000
10.2800 1922.0000 1.0000
10.3000 1581.0000 1.0000
10.3200 1232.0000 1.0000
10.3400 877.0000 1.0000
10.3600 597.0000 1.0000
10.3800 432.0000 1.0000
10.4000 381.0000 1.0000
10.4200 307.0000 1.0000
10.4400 356.0000 1.0000
10.4600 270.0000 1.0000
10.4800 273.0000 1.0000
10.5000 251.0000 1.0000
10.5200 247.0000 1.0000
10.5400 211.0000 1.0000
10.5600 198.0000 1.0000
10.5800 228.0000 1.0000
10.6000 252.0000 1.0000
10.6200 241.0000 1.0000
10.6400 204.0000 1.0000
10.6600 231.0000 1.0000
10.6800 203.0000 1.0000
10.7000 231.0000 1.0000
10.7200 218.0000 1.0000
10.7400 219.0000 1.0000
10.7600 195.0000 1.0000
10.7800 205.0000 1.0000
10.8000 206.0000 1.0000
10.8200 211.0000 1.0000
10.8400 186.0000 1.0000
10.8600 184.0000 1.0000
10.8800 210.0000 1.0000
10.9000 206.0000 1.0000
10.9200 209.0000 1.0000
10.9400 207.0000 1.0000
10.9600 179.0000 1.0000
10.9800 169.0000 1.0000
11.0000 204.0000 1.0000
11.0200 183.0000 1.0000
11.0400 195.0000 1.0000
11.0600 174.0000 1.0000
11.0800 196.0000 1.0000
11.1000 194.0000 1.0000
11.1200 180.0000 1.0000
11.1400 176.0000 1.0000
11.1600 223.0000 1.0000
11.1800 184.0000 1.0000
11.2000 170.0000 1.0000
11.2200 222.0000 1.0000
11.2400 193.0000 1.0000
11.2600 181.0000 1.0000
11.2800 214.0000 1.0000
11.3000 185.0000 1.0000
11.3200 177.0000 1.0000
11.3400 158.0000 1.0000
11.3600 201.0000 1.0000
11.3800 194.0000 1.0000
11.4000 177.0000 1.0000
11.4200 160.0000 1.0000
11.4400 183.0000 1.0000
11.4600 160.0000 1.0000
11.4800 150.0000 1.0000
11.5000 164.0000 1.0000
11.5200 192.0000 1.0000
11.5400 165.0000 1.0000
11.5600 171.0000 1.0000
11.5800 171.0000 1.0000
11.6000 181.0000 1.0000
11.6200 192.0000 1.0000
11.6400 175.0000 1.0000
11.6600 162.0000 1.0000
11.6800 157.0000 1.0000
11.7000 131.0000 1.0000
11.7200 158.0000 1.0000
11.7400 170.0000 1.0000
11.7600 169.0000 1.0000
11.7800 168.0000 1.0000
11.8000 173.0000 1.0000
11.8200 185.0000 1.0000
11.8400 155.0000 1.0000
11.8600 183.0000 1.0000
11.8800 179.0000 1.0000
11.9000 171.0000 1.0000
11.9200 163.0000 1.0000
11.9400 190.0000 1.0000
11.9600 181.0000 1.0000
11.9800 173.0000 1.0000
12.0000 187.0000 1.0000
12.0200 188.0000 1.0000
12.0400 200.0000 1.0000
12.0600 203.0000 1.0000
12.0800 186.0000 1.0000
12.1000 195.0000 1.0000
12.1200 181.0000 1.0000
12.1400 185.0000 1.0000
12.1600 197.0000 1.0000
12.1800 226.0000 1.0000
12.2000 235.0000 1.0000
12.2200 249.0000 1.0000
12.2400 222.0000 1.0000
12.2600 246.0000 1.0000
12.2800 227.0000 1.0000
12.3000 236.0000 1.0000
12.3200 205.0000 1.0000
12.3400 205.0000 1.0000
12.3600 215.0000 1.0000
12.3800 177.0000 1.0000
12.4000 169.0000 1.0000
12.4200 161.0000 1.0000
12.4400 156.0000 1.0000
12.4600 185.0000 1.0000
12.4800 162.0000 1.0000
12.5000 148.0000 1.0000
12.5200 164.0000 1.0000
12.5400 170.0000 1.0000
12.5600 183.0000 1.0000
12.5800 149.0000 1.0000
12.6000 150.0000 1.0000
12.6200 156.0000 1.0000
12.6400 152.0000 1.0000
12.6600 163.0000 1.0000
12.6800 137.0000 1.0000
12.7000 158.0000 1.0000
12.7200 172.0000 1.0000
12.7400 145.0000 1.0000
12.7600 148.0000 1.0000
12.7800 162.0000 1.0000
12.8000 152.0000 1.0000
12.8200 159.0000 1.0000
12.8400 159.0000 1.0000
12.8600 163.0000 1.0000
12.8800 145.0000 1.0000
12.9000 160.0000 1.0000
12.9200 138.0000 1.0000
12.9400 130.0000 1.0000
12.9600 140.0000 1.0000
12.9800 164.0000 1.0000
13.0000 167.0000 1.0000
13.0200 148.0000 1.0000
13.0400 148.0000 1.0000
13.0600 143.0000 1.0000
13.0800 150.0000 1.0000
13.1000 151.0000 1.0000
13.1200 143.0000 1.0000
13.1400 130.0000 1.0000
13.1600 142.0000 1.0000
13.1800 158.0000 1.0000
13.2000 154.0000 1.0000
13.2200 157.0000 1.0000
13.2400 157.0000 1.0000
13.2600 158.0000 1.0000
13.2800 165.0000 1.0000
13.3000 174.0000 1.0000
13.3200 188.0000 1.0000
13.3400 185.0000 1.0000
13.3600 179.0000 1.0000
13.3800 211.0000 1.0000
13.4000 193.0000 1.0000
13.4200 187.0000 1.0000
13.4400 210.0000 1.0000
13.4600 231.0000 1.0000
13.4800 260.0000 1.0000
13.5000 261.0000 1.0000
13.5200 262.0000 1.0000
13.5400 282.0000 1.0000
13.5600 308.0000 1.0000
13.5800 336.0000 1.0000
13.6000 398.0000 1.0000
13.6200 394.0000 1.0000
13.6400 376.0000 1.0000
13.6600 385.0000 1.0000
13.6800 394.0000 1.0000
13.7000 351.0000 1.0000
13.7200 286.0000 1.0000
13.7400 266.0000 1.0000
13.7600 235.0000 1.0000
13.7800 212.0000 1.0000
13.8000 184.0000 1.0000
13.8200 186.0000 1.0000
13.8400 173.0000 1.0000
13.8600 146.0000 1.0000
13.8800 127.0000 1.0000
13.9000 128.0000 1.0000
13.9200 145.0000 1.0000
13.9400 126.0000 1.0000
13.9600 115.0000 1.0000
13.9800 143.0000 1.0000
14.0000 144.0000 1.0000
14.0200 137.0000 1.0000
14.0400 152.0000 1.0000
14.0600 132.0000 1.0000
14.0800 126.0000 1.0000
14.1000 121.0000 1.0000
14.1200 122.0000 1.0000
14.1400 131.0000 1.0000
14.1600 120.0000 1.0000
14.1800 119.0000 1.0000
14.2000 133.0000 1.0000
14.2200 128.0000 1.0000
14.2400 114.0000 1.0000
14.2600 118.0000 1.0000
14.2800 122.0000 1.0000
14.3000 132.0000 1.0000
14.3200 141.0000 1.0000
14.3400 129.0000 1.0000
14.3600 128.0000 1.0000
14.3800 141.0000 1.0000
14.4000 142.0000 1.0000
14.4200 138.0000 1.0000
14.4400 139.0000 1.0000
14.4600 142.0000 1.0000
14.4800 134.0000 1.0000
14.5000 128.0000 1.0000
14.5200 138.0000 1.0000
14.5400 125.0000 1.0000
14.5600 123.0000 1.0000
14.5800 118.0000 1.0000
14.6000 144.0000 1.0000
14.6200 161.0000 1.0000
14.6400 148.0000 1.0000
14.6600 135.0000 1.0000
14.6800 130.0000 1.0000
14.7000 131.0000 1.0000
14.7200 140.0000 1.0000
14.7400 157.0000 1.0000
14.7600 159.0000 1.0000
14.7800 176.0000 1.0000
14.8000 180.0000 1.0000
14.8200 169.0000 1.0000
14.8400 175.0000 1.0000
14.8600 171.0000 1.0000
14.8800 169.0000 1.0000
14.9000 173.0000 1.0000
14.9200 178.0000 1.0000
14.9400 169.0000 1.0000
14.9600 156.0000 1.0000
14.9800 146.0000 1.0000
15.0000 150.0000 1.0000
15.0200 135.0000 1.0000
15.0400 122.0000 1.0000
15.0600 128.0000 1.0000
15.0800 119.0000 1.0000
15.1000 117.0000 1.0000
15.1200 120.0000 1.0000
15.1400 120.0000 1.0000
15.1600 114.0000 1.0000
15.1800 117.0000 1.0000
15.2000 124.0000 1.0000
15.2200 133.0000 1.0000
15.2400 131.0000 1.0000
15.2600 131.0000 1.0000
15.2800 130.0000 1.0000
15.3000 119.0000 1.0000
15.3200 122.0000 1.0000
15.3400 129.0000 1.0000
15.3600 132.0000 1.0000
15.3800 129.0000 1.0000
15.4000 134.0000 1.0000
15.4200 141.0000 1.0000
15.4400 137.0000 1.0000
15.4600 134.0000 1.0000
15.4800 128.0000 1.0000
15.5000 129.0000 1.0000
15.5200 138.0000 1.0000
15.5400 136.0000 1.0000
15.5600 131.0000 1.0000
15.5800 141.0000 1.0000
15.6000 151.0000 1.0000
15.6200 141.0000 1.0000
15.6400 136.0000 1.0000
15.6600 121.0000 1.0000
15.6800 113.0000 1.0000
15.7000 112.0000 1.0000
15.7200 123.0000 1.0000
15.7400 131.0000 1.0000
15.7600 112.0000 1.0000
15.7800 112.0000 1.0000
15.8000 111.0000 1.0000
15.8200 109.0000 1.0000
15.8400 119.0000 1.0000
15.8600 118.0000 1.0000
15.8800 107.0000 1.0000
15.9000 112.0000 1.0000
15.9200 112.0000 1.0000
15.9400 114.0000 1.0000
15.9600 106.0000 1.0000
15.9800 102.0000 1.0000
16.0000 121.0000 1.0000
16.0200 127.0000 1.0000
16.0400 126.0000 1.0000
16.0600 119.0000 1.0000
16.0800 111.0000 1.0000
16.1000 102.0000 1.0000
16.1200 106.0000 1.0000
16.1400 113.0000 1.0000
16.1600 121.0000 1.0000
16.1800 127.0000 1.0000
16.2000 127.0000 1.0000
16.2200 120.0000 1.0000
16.2400 115.0000 1.0000
16.2600 104.0000 1.0000
16.2800 110.0000 1.0000
16.3000 120.0000 1.0000
16.3200 110.0000 1.0000
16.3400 118.0000 1.0000
16.3600 112.0000 1.0000
16.3800 105.0000 1.0000
16.4000 115.0000 1.0000
16.4200 106.0000 1.0000
16.4400 96.0000 1.0000
16.4600 105.0000 1.0000
16.4800 105.0000 1.0000
16.5000 98.0000 1.0000
16.5200 110.0000 1.0000
16.5400 110.0000 1.0000
16.5600 127.0000 1.0000
16.5800 137.0000 1.0000
16.6000 124.0000 1.0000
16.6200 121.0000 1.0000
16.6400 108.0000 1.0000
16.6600 112.0000 1.0000
16.6800 117.0000 1.0000
16.7000 109.0000 1.0000
16.7200 105.0000 1.0000
16.7400 116.0000 1.0000
16.7600 120.0000 1.0000
16.7800 125.0000 1.0000
16.8000 123.0000 1.0000
16.8200 120.0000 1.0000
16.8400 122.0000 1.0000
16.8600 109.0000 1.0000
16.8800 114.0000 1.0000
16.9000 116.0000 1.0000
16.9200 125.0000 1.0000
16.9400 118.0000 1.0000
16.9600 126.0000 1.0000
16.9800 141.0000 1.0000
17.0000 106.0000 1.0000
17.0200 106.0000 1.0000
17.0400 111.0000 1.0000
17.0600 123.0000 1.0000
17.0800 128.0000 1.0000
17.1000 135.0000 1.0000
17.1200 150.0000 1.0000
17.1400 150.0000 1.0000
17.1600 155.0000 1.0000
17.1800 132.0000 1.0000
17.2000 129.0000 1.0000
17.2200 136.0000 1.0000
17.2400 133.0000 1.0000
17.2600 138.0000 1.0000
17.2800 151.0000 1.0000
17.3000 146.0000 1.0000
17.3200 131.0000 1.0000
17.3400 131.0000 1.0000
17.3600 133.0000 1.0000
17.3800 127.0000 1.0000
17.4000 122.0000 1.0000
17.4200 114.0000 1.0000
17.4400 126.0000 1.0000
17.4600 131.0000 1.0000
17.4800 123.0000 1.0000
17.5000 145.0000 1.0000
17.5200 142.0000 1.0000
17.5400 141.0000 1.0000
17.5600 143.0000 1.0000
17.5800 131.0000 1.0000
17.6000 121.0000 1.0000
17.6200 121.0000 1.0000
17.6400 136.0000 1.0000
17.6600 143.0000 1.0000
17.6800 152.0000 1.0000
17.7000 159.0000 1.0000
17.7200 154.0000 1.0000
17.7400 142.0000 1.0000
17.7600 176.0000 1.0000
17.7800 191.0000 1.0000
17.8000 159.0000 1.0000
17.8200 165.0000 1.0000
17.8400 182.0000 1.0000
17.8600 198.0000 1.0000
17.8800 168.0000 1.0000
17.9000 158.0000 1.0000
17.9200 138.0000 1.0000
17.9400 135.0000 1.0000
17.9600 130.0000 1.0000
17.9800 141.0000 1.0000
18.0000 119.0000 1.0000
18.0200 125.0000 1.0000
18.0400 132.0000 1.0000
18.0600 131.0000 1.0000
18.0800 140.0000 1.0000
18.1000 138.0000 1.0000
18.1200 130.0000 1.0000
18.1400 128.0000 1.0000
18.1600 133.0000 1.0000
18.1800 134.0000 1.0000
18.2000 124.0000 1.0000
18.2200 129.0000 1.0000
18.2400 130.0000 1.0000
18.2600 129.0000 1.0000
18.2800 138.0000 1.0000
18.3000 140.0000 1.0000
18.3200 148.0000 1.0000
18.3400 156.0000 1.0000
18.3600 156.0000 1.0000
18.3800 143.0000 1.0000
18.4000 136.0000 1.0000
18.4200 126.0000 1.0000
18.4400 137.0000 1.0000
18.4600 139.0000 1.0000
18.4800 156.0000 1.0000
18.5000 147.0000 1.0000
18.5200 140.0000 1.0000
18.5400 143.0000 1.0000
18.5600 148.0000 1.0000
18.5800 134.0000 1.0000
18.6000 140.0000 1.0000
18.6200 130.0000 1.0000
18.6400 159.0000 1.0000
18.6600 169.0000 1.0000
18.6800 177.0000 1.0000
18.7000 152.0000 1.0000
18.7200 145.0000 1.0000
18.7400 155.0000 1.0000
18.7600 159.0000 1.0000
18.7800 137.0000 1.0000
18.8000 144.0000 1.0000
18.8200 141.0000 1.0000
18.8400 153.0000 1.0000
18.8600 136.0000 1.0000
18.8800 158.0000 1.0000
18.9000 143.0000 1.0000
18.9200 149.0000 1.0000
18.9400 149.0000 1.0000
18.9600 141.0000 1.0000
18.9800 124.0000 1.0000
19.0000 126.0000 1.0000
19.0200 145.0000 1.0000
19.0400 171.0000 1.0000
19.0600 159.0000 1.0000
19.0800 150.0000 1.0000
19.1000 150.0000 1.0000
19.1200 163.0000 1.0000
19.1400 161.0000 1.0000
19.1600 163.0000 1.0000
19.1800 142.0000 1.0000
19.2000 159.0000 1.0000
19.2200 184.0000 1.0000
19.2400 194.0000 1.0000
19.2600 202.0000 1.0000
19.2800 230.0000 1.0000
19.3000 207.0000 1.0000
19.3200 216.0000 1.0000
19.3400 205.0000 1.0000
19.3600 224.0000 1.0000
19.3800 249.0000 1.0000
19.4000 233.0000 1.0000
19.4200 207.0000 1.0000
19.4400 238.0000 1.0000
19.4600 216.0000 1.0000
19.4800 189.0000 1.0000
19.5000 198.0000 1.0000
19.5200 212.0000 1.0000
19.5400 204.0000 1.0000
19.5600 229.0000 1.0000
19.5800 179.0000 1.0000
19.6000 193.0000 1.0000
19.6200 201.0000 1.0000
19.6400 194.0000 1.0000
19.6600 189.0000 1.0000
19.6800 194.0000 1.0000
19.7000 162.0000 1.0000
19.7200 192.0000 1.0000
19.7400 164.0000 1.0000
19.7600 182.0000 1.0000
19.7800 165.0000 1.0000
19.8000 179.0000 1.0000
19.8200 171.0000 1.0000
19.8400 169.0000 1.0000
19.8600 149.0000 1.0000
19.8800 148.0000 1.0000
19.9000 145.0000 1.0000
19.9200 174.0000 1.0000
19.9400 162.0000 1.0000
19.9600 158.0000 1.0000
19.9800 142.0000 1.0000
20.0000 159.0000 1.0000
20.0200 149.0000 1.0000
20.0400 146.0000 1.0000
20.0600 151.0000 1.0000
20.0800 161.0000 1.0000
20.1000 153.0000 1.0000
20.1200 178.0000 1.0000
20.1400 176.0000 1.0000
20.1600 158.0000 1.0000
20.1800 145.0000 1.0000
20.2000 160.0000 1.0000
20.2200 147.0000 1.0000
20.2400 175.0000 1.0000
20.2600 201.0000 1.0000
20.2800 195.0000 1.0000
20.3000 212.0000 1.0000
20.3200 248.0000 1.0000
20.3400 216.0000 1.0000
20.3600 217.0000 1.0000
20.3800 284.0000 1.0000
20.4000 270.0000 1.0000
20.4200 288.0000 1.0000
20.4400 349.0000 1.0000
20.4600 365.0000 1.0000
20.4800 393.0000 1.0000
20.5000 470.0000 1.0000
20.5200 560.0000 1.0000
20.5400 703.0000 1.0000
20.5600 850.0000 1.0000
20.5800 1008.0000 1.0000
20.6000 1280.0000 1.0000
20.6200 1529.0000 1.0000
20.6400 1747.0000 1.0000
20.6600 1773.0000 1.0000
20.6800 1782.0000 1.0000
20.7000 1598.0000 1.0000
20.7200 1322.0000 1.0000
20.7400 1011.0000 1.0000
20.7600 717.0000 1.0000
20.7800 559.0000 1.0000
20.8000 421.0000 1.0000
20.8200 366.0000 1.0000
20.8400 328.0000 1.0000
20.8600 303.0000 1.0000
20.8800 305.0000 1.0000
20.9000 253.0000 1.0000
20.9200 238.0000 1.0000
20.9400 220.0000 1.0000
20.9600 203.0000 1.0000
20.9800 199.0000 1.0000
21.0000 209.0000 1.0000
21.0200 193.0000 1.0000
21.0400 205.0000 1.0000
21.0600 195.0000 1.0000
21.0800 209.0000 1.0000
21.1000 213.0000 1.0000
21.1200 190.0000 1.0000
21.1400 201.0000 1.0000
21.1600 162.0000 1.0000
21.1800 177.0000 1.0000
21.2000 161.0000 1.0000
21.2200 182.0000 1.0000
21.2400 184.0000 1.0000
21.2600 193.0000 1.0000
21.2800 171.0000 1.0000
21.3000 166.0000 1.0000
21.3200 170.0000 1.0000
21.3400 168.0000 1.0000
21.3600 191.0000 1.0000
21.3800 190.0000 1.0000
21.4000 201.0000 1.0000
21.4200 176.0000 1.0000
21.4400 193.0000 1.0000
21.4600 210.0000 1.0000
21.4800 185.0000 1.0000
21.5000 205.0000 1.0000
21.5200 215.0000 1.0000
21.5400 241.0000 1.0000
21.5600 266.0000 1.0000
21.5800 274.0000 1.0000
21.6000 299.0000 1.0000
21.6200 334.0000 1.0000
21.6400 396.0000 1.0000
21.6600 400.0000 1.0000
21.6800 485.0000 1.0000
21.7000 574.0000 1.0000
21.7200 733.0000 1.0000
21.7400 851.0000 1.0000
21.7600 977.0000 1.0000
21.7800 1053.0000 1.0000
21.8000 1074.0000 1.0000
21.8200 1030.0000 1.0000
21.8400 962.0000 1.0000
21.8600 786.0000 1.0000
21.8800 693.0000 1.0000
21.9000 547.0000 1.0000
21.9200 386.0000 1.0000
21.9400 316.0000 1.0000
21.9600 315.0000 1.0000
21.9800 264.0000 1.0000
22.0000 251.0000 1.0000
22.0200 211.0000 1.0000
22.0400 176.0000 1.0000
22.0600 188.0000 1.0000
22.0800 219.0000 1.0000
22.1000 180.0000 1.0000
22.1200 184.0000 1.0000
22.1400 166.0000 1.0000
22.1600 180.0000 1.0000
22.1800 171.0000 1.0000
22.2000 171.0000 1.0000
22.2200 182.0000 1.0000
22.2400 166.0000 1.0000
22.2600 166.0000 1.0000
22.2800 179.0000 1.0000
22.3000 161.0000 1.0000
22.3200 166.0000 1.0000
22.3400 176.0000 1.0000
22.3600 171.0000 1.0000
22.3800 173.0000 1.0000
22.4000 176.0000 1.0000
22.4200 169.0000 1.0000
22.4400 190.0000 1.0000
22.4600 206.0000 1.0000
22.4800 182.0000 1.0000
22.5000 187.0000 1.0000
22.5200 194.0000 1.0000
22.5400 224.0000 1.0000
22.5600 225.0000 1.0000
22.5800 219.0000 1.0000
22.6000 259.0000 1.0000
22.6200 259.0000 1.0000
22.6400 300.0000 1.0000
22.6600 296.0000 1.0000
22.6800 331.0000 1.0000
22.7000 329.0000 1.0000
22.7200 342.0000 1.0000
22.7400 345.0000 1.0000
22.7600 349.0000 1.0000
22.7800 337.0000 1.0000
22.8000 309.0000 1.0000
22.8200 287.0000 1.0000
22.8400 285.0000 1.0000
22.8600 259.0000 1.0000
22.8800 228.0000 1.0000
22.9000 202.0000 1.0000
22.9200 212.0000 1.0000
22.9400 186.0000 1.0000
22.9600 212.0000 1.0000
22.9800 189.0000 1.0000
23.0000 198.0000 1.0000
23.0200 206.0000 1.0000
23.0400 196.0000 1.0000
23.0600 213.0000 1.0000
23.0800 205.0000 1.0000
23.1000 210.0000 1.0000
23.1200 208.0000 1.0000
23.1400 224.0000 1.0000
23.1600 237.0000 1.0000
23.1800 254.0000 1.0000
23.2000 248.0000 1.0000
23.2200 264.0000 1.0000
23.2400 280.0000 1.0000
23.2600 341.0000 1.0000
23.2800 401.0000 1.0000
23.3000 438.0000 1.0000
23.3200 456.0000 1.0000
23.3400 533.0000 1.0000
23.3600 616.0000 1.0000
23.3800 610.0000 1.0000
23.4000 648.0000 1.0000
23.4200 720.0000 1.0000
23.4400 685.0000 1.0000
23.4600 624.0000 1.0000
23.4800 577.0000 1.0000
23.5000 531.0000 1.0000
23.5200 461.0000 1.0000
23.5400 432.0000 1.0000
23.5600 403.0000 1.0000
23.5800 385.0000 1.0000
23.6000 408.0000 1.0000
23.6200 432.0000 1.0000
23.6400 435.0000 1.0000
23.6600 445.0000 1.0000
23.6800 480.0000 1.0000
23.7000 504.0000 1.0000
23.7200 534.0000 1.0000
23.7400 487.0000 1.0000
23.7600 471.0000 1.0000
23.7800 466.0000 1.0000
23.8000 448.0000 1.0000
23.8200 415.0000 1.0000
23.8400 412.0000 1.0000
23.8600 410.0000 1.0000
23.8800 403.0000 1.0000
23.9000 406.0000 1.0000
23.9200 407.0000 1.0000
23.9400 422.0000 1.0000
23.9600 420.0000 1.0000
23.9800 445.0000 1.0000
24.0000 465.0000 1.0000
24.0200 520.0000 1.0000
24.0400 594.0000 1.0000
24.0600 621.0000 1.0000
24.0800 614.0000 1.0000
24.1000 602.0000 1.0000
24.1200 625.0000 1.0000
24.1400 619.0000 1.0000
24.1600 581.0000 1.0000
24.1800 529.0000 1.0000
24.2000 453.0000 1.0000
24.2200 439.0000 1.0000
24.2400 375.0000 1.0000
24.2600 331.0000 1.0000
24.2800 303.0000 1.0000
24.3000 253.0000 1.0000
24.3200 226.0000 1.0000
24.3400 244.0000 1.0000
24.3600 220.0000 1.0000
24.3800 193.0000 1.0000
24.4000 193.0000 1.0000
24.4200 199.0000 1.0000
24.4400 180.0000 1.0000
24.4600 176.0000 1.0000
24.4800 170.0000 1.0000
24.5000 166.0000 1.0000
24.5200 183.0000 1.0000
24.5400 168.0000 1.0000
24.5600 160.0000 1.0000
24.5800 142.0000 1.0000
24.6000 164.0000 1.0000
24.6200 148.0000 1.0000
24.6400 149.0000 1.0000
24.6600 156.0000 1.0000
24.6800 172.0000 1.0000
24.7000 164.0000 1.0000
24.7200 166.0000 1.0000
24.7400 173.0000 1.0000
24.7600 167.0000 1.0000
24.7800 165.0000 1.0000
24.8000 182.0000 1.0000
24.8200 185.0000 1.0000
24.8400 149.0000 1.0000
24.8600 164.0000 1.0000
24.8800 170.0000 1.0000
24.9000 171.0000 1.0000
24.9200 183.0000 1.0000
24.9400 191.0000 1.0000
24.9600 209.0000 1.0000
24.9800 219.0000 1.0000
25.0000 214.0000 1.0000
25.0200 211.0000 1.0000
25.0400 226.0000 1.0000
25.0600 229.0000 1.0000
25.0800 243.0000 1.0000
25.1000 252.0000 1.0000
25.1200 261.0000 1.0000
25.1400 266.0000 1.0000
25.1600 336.0000 1.0000
25.1800 385.0000 1.0000
25.2000 423.0000 1.0000
25.2200 467.0000 1.0000
25.2400 553.0000 1.0000
25.2600 667.0000 1.0000
25.2800 796.0000 1.0000
25.3000 968.0000 1.0000
25.3200 1106.0000 1.0000
25.3400 1206.0000 1.0000
25.3600 1311.0000 1.0000
25.3800 1330.0000 1.0000
25.4000 1272.0000 1.0000
25.4200 1196.0000 1.0000
25.4400 1027.0000 1.0000
25.4600 839.0000 1.0000
25.4800 693.0000 1.0000
25.5000 573.0000 1.0000
25.5200 471.0000 1.0000
25.5400 344.0000 1.0000
25.5600 297.0000 1.0000
25.5800 321.0000 1.0000
25.6000 312.0000 1.0000
25.6200 295.0000 1.0000
25.6400 294.0000 1.0000
25.6600 275.0000 1.0000
25.6800 269.0000 1.0000
25.7000 276.0000 1.0000
25.7200 269.0000 1.0000
25.7400 262.0000 1.0000
25.7600 255.0000 1.0000
25.7800 251.0000 1.0000
25.8000 271.0000 1.0000
25.8200 296.0000 1.0000
25.8400 293.0000 1.0000
25.8600 316.0000 1.0000
25.8800 353.0000 1.0000
25.9000 375.0000 1.0000
25.9200 409.0000 1.0000
25.9400 439.0000 1.0000
25.9600 483.0000 1.0000
25.9800 499.0000 1.0000
26.0000 523.0000 1.0000
26.0200 555.0000 1.0000
26.0400 590.0000 1.0000
26.0600 607.0000 1.0000
26.0800 634.0000 1.0000
26.1000 637.0000 1.0000
26.1200 663.0000 1.0000
26.1400 756.0000 1.0000
26.1600 849.0000 1.0000
26.1800 953.0000 1.0000
26.2000 1053.0000 1.0000
26.2200 1218.0000 1.0000
26.2400 1409.0000 1.0000
26.2600 1661.0000 1.0000
26.2800 1975.0000 1.0000
26.3000 2369.0000 1.0000
26.3200 2874.0000 1.0000
26.3400 3665.0000 1.0000
26.3600 4586.0000 1.0000
26.3800 5687.0000 1.0000
26.4000 6781.0000 1.0000
26.4200 7596.0000 1.0000
26.4400 8064.0000 1.0000
26.4600 7896.0000 1.0000
26.4800 7124.0000 1.0000
26.5000 6020.0000 1.0000
26.5200 4691.0000 1.0000
26.5400 3443.0000 1.0000
26.5600 2465.0000 1.0000
26.5800 1759.0000 1.0000
26.6000 1196.0000 1.0000
26.6200 865.0000 1.0000
26.6400 711.0000 1.0000
26.6600 643.0000 1.0000
26.6800 608.0000 1.0000
26.7000 563.0000 1.0000
26.7200 554.0000 1.0000
26.7400 579.0000 1.0000
26.7600 593.0000 1.0000
26.7800 576.0000 1.0000
26.8000 601.0000 1.0000
26.8200 626.0000 1.0000
26.8400 622.0000 1.0000
26.8600 619.0000 1.0000
26.8800 594.0000 1.0000
26.9000 593.0000 1.0000
26.9200 569.0000 1.0000
26.9400 505.0000 1.0000
26.9600 481.0000 1.0000
26.9800 474.0000 1.0000
27.0000 427.0000 1.0000
27.0200 396.0000 1.0000
27.0400 382.0000 1.0000
27.0600 361.0000 1.0000
27.0800 364.0000 1.0000
27.1000 353.0000 1.0000
27.1200 358.0000 1.0000
27.1400 372.0000 1.0000
27.1600 405.0000 1.0000
27.1800 453.0000 1.0000
27.2000 473.0000 1.0000
27.2200 531.0000 1.0000
27.2400 574.0000 1.0000
27.2600 626.0000 1.0000
27.2800 707.0000 1.0000
27.3000 742.0000 1.0000
27.3200 768.0000 1.0000
27.3400 791.0000 1.0000
27.3600 778.0000 1.0000
27.3800 793.0000 1.0000
27.4000 794.0000 1.0000
27.4200 797.0000 1.0000
27.4400 854.0000 1.0000
27.4600 940.0000 1.0000
27.4800 1073.0000 1.0000
27.5000 1274.0000 1.0000
27.5200 1472.0000 1.0000
27.5400 1610.0000 1.0000
27.5600 1826.0000 1.0000
27.5800 2081.0000 1.0000
27.6000 2172.0000 1.0000
27.6200 2232.0000 1.0000
27.6400 2310.0000 1.0000
27.6600 2340.0000 1.0000
27.6800 2360.0000 1.0000
27.7000 2357.0000 1.0000
27.7200 2410.0000 1.0000
27.7400 2542.0000 1.0000
27.7600 2657.0000 1.0000
27.7800 2656.0000 1.0000
27.8000 2574.0000 1.0000
27.8200 2468.0000 1.0000
27.8400 2251.0000 1.0000
27.8600 1910.0000 1.0000
27.8800 1606.0000 1.0000
27.9000 1386.0000 1.0000
27.9200 1170.0000 1.0000
27.9400 948.0000 1.0000
27.9600 821.0000 1.0000
27.9800 719.0000 1.0000
28.0000 685.0000 1.0000
28.0200 684.0000 1.0000
28.0400 680.0000 1.0000
28.0600 699.0000 1.0000
28.0800 722.0000 1.0000
28.1000 769.0000 1.0000
28.1200 813.0000 1.0000
28.1400 809.0000 1.0000
28.1600 818.0000 1.0000
28.1800 865.0000 1.0000
28.2000 876.0000 1.0000
28.2200 895.0000 1.0000
28.2400 919.0000 1.0000
28.2600 883.0000 1.0000
28.2800 855.0000 1.0000
28.3000 804.0000 1.0000
28.3200 729.0000 1.0000
28.3400 641.0000 1.0000
28.3600 545.0000 1.0000
28.3800 480.0000 1.0000
28.4000 403.0000 1.0000
28.4200 331.0000 1.0000
28.4400 286.0000 1.0000
28.4600 261.0000 1.0000
28.4800 223.0000 1.0000
28.5000 208.0000 1.0000
28.5200 202.0000 1.0000
28.5400 179.0000 1.0000
28.5600 182.0000 1.0000
28.5800 179.0000 1.0000
28.6000 161.0000 1.0000
28.6200 164.0000 1.0000
28.6400 163.0000 1.0000
28.6600 158.0000 1.0000
28.6800 150.0000 1.0000
28.7000 154.0000 1.0000
28.7200 154.0000 1.0000
28.7400 159.0000 1.0000
28.7600 154.0000 1.0000
28.7800 161.0000 1.0000
28.8000 150.0000 1.0000
28.8200 155.0000 1.0000
28.8400 163.0000 1.0000
28.8600 151.0000 1.0000
28.8800 163.0000 1.0000
28.9000 173.0000 1.0000
28.9200 158.0000 1.0000
28.9400 156.0000 1.0000
28.9600 156.0000 1.0000
28.9800 139.0000 1.0000
29.0000 130.0000 1.0000
29.0200 156.0000 1.0000
29.0400 151.0000 1.0000
29.0600 161.0000 1.0000
29.0800 167.0000 1.0000
29.1000 164.0000 1.0000
29.1200 147.0000 1.0000
29.1400 148.0000 1.0000
29.1600 163.0000 1.0000
29.1800 177.0000 1.0000
29.2000 176.0000 1.0000
29.2200 183.0000 1.0000
29.2400 191.0000 1.0000
29.2600 198.0000 1.0000
29.2800 206.0000 1.0000
29.3000 194.0000 1.0000
29.3200 217.0000 1.0000
29.3400 229.0000 1.0000
29.3600 226.0000 1.0000
29.3800 237.0000 1.0000
29.4000 235.0000 1.0000
29.4200 258.0000 1.0000
29.4400 287.0000 1.0000
29.4600 304.0000 1.0000
29.4800 328.0000 1.0000
29.5000 346.0000 1.0000
29.5200 364.0000 1.0000
29.5400 399.0000 1.0000
29.5600 404.0000 1.0000
29.5800 423.0000 1.0000
29.6000 420.0000 1.0000
29.6200 420.0000 1.0000
29.6400 414.0000 1.0000
29.6600 386.0000 1.0000
29.6800 385.0000 1.0000
29.7000 367.0000 1.0000
29.7200 357.0000 1.0000
29.7400 360.0000 1.0000
29.7600 345.0000 1.0000
29.7800 340.0000 1.0000
29.8000 334.0000 1.0000
29.8200 328.0000 1.0000
29.8400 345.0000 1.0000
29.8600 316.0000 1.0000
29.8800 332.0000 1.0000
29.9000 321.0000 1.0000
29.9200 341.0000 1.0000
29.9400 352.0000 1.0000
29.9600 391.0000 1.0000
29.9800 421.0000 1.0000
30.0000 428.0000 1.0000
30.0200 430.0000 1.0000
30.0400 472.0000 1.0000
30.0600 491.0000 1.0000
30.0800 555.0000 1.0000
30.1000 581.0000 1.0000
30.1200 579.0000 1.0000
30.1400 622.0000 1.0000
30.1600 599.0000 1.0000
30.1800 586.0000 1.0000
30.2000 606.0000 1.0000
30.2200 638.0000 1.0000
30.2400 649.0000 1.0000
30.2600 629.0000 1.0000
30.2800 625.0000 1.0000
30.3000 581.0000 1.0000
30.3200 502.0000 1.0000
30.3400 474.0000 1.0000
30.3600 386.0000 1.0000
30.3800 346.0000 1.0000
30.4000 325.0000 1.0000
30.4200 292.0000 1.0000
30.4400 255.0000 1.0000
30.4600 209.0000 1.0000
30.4800 215.0000 1.0000
30.5000 234.0000 1.0000
30.5200 218.0000 1.0000
30.5400 237.0000 1.0000
30.5600 233.0000 1.0000
30.5800 238.0000 1.0000
30.6000 242.0000 1.0000
30.6200 237.0000 1.0000
30.6400 251.0000 1.0000
30.6600 237.0000 1.0000
30.6800 221.0000 1.0000
30.7000 235.0000 1.0000
30.7200 220.0000 1.0000
30.7400 183.0000 1.0000
30.7600 193.0000 1.0000
30.7800 202.0000 1.0000
30.8000 172.0000 1.0000
30.8200 171.0000 1.0000
30.8400 146.0000 1.0000
30.8600 143.0000 1.0000
30.8800 155.0000 1.0000
30.9000 177.0000 1.0000
30.9200 162.0000 1.0000
30.9400 154.0000 1.0000
30.9600 165.0000 1.0000
30.9800 168.0000 1.0000
31.0000 194.0000 1.0000
31.0200 201.0000 1.0000
31.0400 200.0000 1.0000
31.0600 211.0000 1.0000
31.0800 217.0000 1.0000
31.1000 235.0000 1.0000
31.1200 254.0000 1.0000
31.1400 293.0000 1.0000
31.1600 324.0000 1.0000
31.1800 311.0000 1.0000
31.2000 313.0000 1.0000
31.2200 321.0000 1.0000
31.2400 338.0000 1.0000
31.2600 306.0000 1.0000
31.2800 317.0000 1.0000
31.3000 276.0000 1.0000
31.3200 272.0000 1.0000
31.3400 271.0000 1.0000
31.3600 244.0000 1.0000
31.3800 230.0000 1.0000
31.4000 230.0000 1.0000
31.4200 233.0000 1.0000
31.4400 223.0000 1.0000
31.4600 223.0000 1.0000
31.4800 231.0000 1.0000
31.5000 231.0000 1.0000
31.5200 248.0000 1.0000
31.5400 246.0000 1.0000
31.5600 250.0000 1.0000
31.5800 236.0000 1.0000
31.6000 229.0000 1.0000
31.6200 217.0000 1.0000
31.6400 202.0000 1.0000
31.6600 191.0000 1.0000
31.6800 198.0000 1.0000
31.7000 180.0000 1.0000
31.7200 167.0000 1.0000
31.7400 160.0000 1.0000
31.7600 156.0000 1.0000
31.7800 158.0000 1.0000
31.8000 136.0000 1.0000
31.8200 149.0000 1.0000
31.8400 136.0000 1.0000
31.8600 128.0000 1.0000
31.8800 146.0000 1.0000
31.9000 129.0000 1.0000
31.9200 145.0000 1.0000
31.9400 121.0000 1.0000
31.9600 139.0000 1.0000
31.9800 151.0000 1.0000
32.0000 128.0000 1.0000
32.0200 166.0000 1.0000
32.0400 154.0000 1.0000
32.0600 154.0000 1.0000
32.0800 164.0000 1.0000
32.1000 165.0000 1.0000
32.1200 180.0000 1.0000
32.1400 186.0000 1.0000
32.1600 181.0000 1.0000
32.1800 175.0000 1.0000
32.2000 171.0000 1.0000
32.2200 201.0000 1.0000
32.2400 215.0000 1.0000
32.2600 217.0000 1.0000
32.2800 220.0000 1.0000
32.3000 247.0000 1.0000
32.3200 250.0000 1.0000
32.3400 287.0000 1.0000
32.3600 291.0000 1.0000
32.3800 284.0000 1.0000
32.4000 273.0000 1.0000
32.4200 274.0000 1.0000
32.4400 268.0000 1.0000
32.4600 246.0000 1.0000
32.4800 263.0000 1.0000
32.5000 244.0000 1.0000
32.5200 243.0000 1.0000
32.5400 247.0000 1.0000
32.5600 233.0000 1.0000
32.5800 292.0000 1.0000
32.6000 301.0000 1.0000
32.6200 345.0000 1.0000
32.6400 372.0000 1.0000
32.6600 434.0000 1.0000
32.6800 467.0000 1.0000
32.7000 469.0000 1.0000
32.7200 497.0000 1.0000
32.7400 530.0000 1.0000
32.7600 516.0000 1.0000
32.7800 502.0000 1.0000
32.8000 450.0000 1.0000
32.8200 410.0000 1.0000
32.8400 368.0000 1.0000
32.8600 308.0000 1.0000
32.8800 281.0000 1.0000
32.9000 248.0000 1.0000
32.9200 213.0000 1.0000
32.9400 201.0000 1.0000
32.9600 179.0000 1.0000
32.9800 163.0000 1.0000
33.0000 155.0000 1.0000
33.0200 145.0000 1.0000
33.0400 137.0000 1.0000
33.0600 176.0000 1.0000
33.0800 144.0000 1.0000
33.1000 139.0000 1.0000
33.1200 132.0000 1.0000
33.1400 133.0000 1.0000
33.1600 133.0000 1.0000
33.1800 118.0000 1.0000
33.2000 137.0000 1.0000
33.2200 117.0000 1.0000
33.2400 106.0000 1.0000
33.2600 102.0000 1.0000
33.2800 115.0000 1.0000
33.3000 111.0000 1.0000
33.3200 124.0000 1.0000
33.3400 131.0000 1.0000
33.3600 126.0000 1.0000
33.3800 126.0000 1.0000
33.4000 123.0000 1.0000
33.4200 148.0000 1.0000
33.4400 150.0000 1.0000
33.4600 138.0000 1.0000
33.4800 150.0000 1.0000
33.5000 170.0000 1.0000
33.5200 196.0000 1.0000
33.5400 202.0000 1.0000
33.5600 225.0000 1.0000
33.5800 248.0000 1.0000
33.6000 260.0000 1.0000
33.6200 245.0000 1.0000
33.6400 240.0000 1.0000
33.6600 261.0000 1.0000
33.6800 256.0000 1.0000
33.7000 250.0000 1.0000
33.7200 229.0000 1.0000
33.7400 238.0000 1.0000
33.7600 221.0000 1.0000
33.7800 219.0000 1.0000
33.8000 183.0000 1.0000
33.8200 194.0000 1.0000
33.8400 181.0000 1.0000
33.8600 172.0000 1.0000
33.8800 179.0000 1.0000
33.9000 172.0000 1.0000
33.9200 189.0000 1.0000
33.9400 181.0000 1.0000
33.9600 212.0000 1.0000
33.9800 195.0000 1.0000
34.0000 200.0000 1.0000
34.0200 203.0000 1.0000
34.0400 257.0000 1.0000
34.0600 259.0000 1.0000
34.0800 269.0000 1.0000
34.1000 311.0000 1.0000
34.1200 279.0000 1.0000
34.1400 313.0000 1.0000
34.1600 328.0000 1.0000
34.1800 344.0000 1.0000
34.2000 344.0000 1.0000
34.2200 323.0000 1.0000
34.2400 336.0000 1.0000
34.2600 341.0000 1.0000
34.2800 287.0000 1.0000
34.3000 282.0000 1.0000
34.3200 259.0000 1.0000
34.3400 277.0000 1.0000
34.3600 253.0000 1.0000
34.3800 229.0000 1.0000
34.4000 248.0000 1.0000
34.4200 228.0000 1.0000
34.4400 223.0000 1.0000
34.4600 221.0000 1.0000
34.4800 237.0000 1.0000
34.5000 250.0000 1.0000
34.5200 252.0000 1.0000
34.5400 215.0000 1.0000
34.5600 245.0000 1.0000
34.5800 246.0000 1.0000
34.6000 270.0000 1.0000
34.6200 278.0000 1.0000
34.6400 299.0000 1.0000
34.6600 311.0000 1.0000
34.6800 343.0000 1.0000
34.7000 330.0000 1.0000
34.7200 391.0000 1.0000
34.7400 421.0000 1.0000
34.7600 454.0000 1.0000
34.7800 521.0000 1.0000
34.8000 574.0000 1.0000
34.8200 704.0000 1.0000
34.8400 810.0000 1.0000
34.8600 1052.0000 1.0000
34.8800 1160.0000 1.0000
34.9000 1378.0000 1.0000
34.9200 1648.0000 1.0000
34.9400 1863.0000 1.0000
34.9600 1814.0000 1.0000
34.9800 1765.0000 1.0000
35.0000 1680.0000 1.0000
35.0200 1527.0000 1.0000
35.0400 1354.0000 1.0000
35.0600 1136.0000 1.0000
35.0800 1047.0000 1.0000
35.1000 861.0000 1.0000
35.1200 699.0000 1.0000
35.1400 663.0000 1.0000
35.1600 567.0000 1.0000
35.1800 534.0000 1.0000
35.2000 573.0000 1.0000
35.2200 567.0000 1.0000
35.2400 501.0000 1.0000
35.2600 452.0000 1.0000
35.2800 461.0000 1.0000
35.3000 425.0000 1.0000
35.3200 363.0000 1.0000
35.3400 374.0000 1.0000
35.3600 360.0000 1.0000
35.3800 362.0000 1.0000
35.4000 367.0000 1.0000
35.4200 354.0000 1.0000
35.4400 328.0000 1.0000
35.4600 297.0000 1.0000
35.4800 263.0000 1.0000
35.5000 287.0000 1.0000
35.5200 242.0000 1.0000
35.5400 238.0000 1.0000
35.5600 256.0000 1.0000
35.5800 239.0000 1.0000
35.6000 218.0000 1.0000
35.6200 233.0000 1.0000
35.6400 215.0000 1.0000
35.6600 197.0000 1.0000
35.6800 196.0000 1.0000
35.7000 165.0000 1.0000
35.7200 176.0000 1.0000
35.7400 180.0000 1.0000
35.7600 183.0000 1.0000
35.7800 180.0000 1.0000
35.8000 185.0000 1.0000
35.8200 204.0000 1.0000
35.8400 209.0000 1.0000
35.8600 221.0000 1.0000
35.8800 231.0000 1.0000
35.9000 212.0000 1.0000
35.9200 218.0000 1.0000
35.9400 214.0000 1.0000
35.9600 238.0000 1.0000
35.9800 229.0000 1.0000
36.0000 224.0000 1.0000
36.0200 225.0000 1.0000
36.0400 222.0000 1.0000
36.0600 232.0000 1.0000
36.0800 226.0000 1.0000
36.1000 229.0000 1.0000
36.1200 230.0000 1.0000
36.1400 224.0000 1.0000
36.1600 255.0000 1.0000
36.1800 274.0000 1.0000
36.2000 271.0000 1.0000
36.2200 280.0000 1.0000
36.2400 344.0000 1.0000
36.2600 396.0000 1.0000
36.2800 459.0000 1.0000
36.3000 555.0000 1.0000
36.3200 625.0000 1.0000
36.3400 693.0000 1.0000
36.3600 695.0000 1.0000
36.3800 692.0000 1.0000
36.4000 629.0000 1.0000
36.4200 585.0000 1.0000
36.4400 525.0000 1.0000
36.4600 463.0000 1.0000
36.4800 445.0000 1.0000
36.5000 358.0000 1.0000
36.5200 296.0000 1.0000
36.5400 268.0000 1.0000
36.5600 231.0000 1.0000
36.5800 227.0000 1.0000
36.6000 213.0000 1.0000
36.6200 205.0000 1.0000
36.6400 187.0000 1.0000
36.6600 207.0000 1.0000
36.6800 203.0000 1.0000
36.7000 204.0000 1.0000
36.7200 191.0000 1.0000
36.7400 205.0000 1.0000
36.7600 213.0000 1.0000
36.7800 224.0000 1.0000
36.8000 215.0000 1.0000
36.8200 215.0000 1.0000
36.8400 217.0000 1.0000
36.8600 225.0000 1.0000
36.8800 235.0000 1.0000
36.9000 229.0000 1.0000
36.9200 220.0000 1.0000
36.9400 204.0000 1.0000
36.9600 187.0000 1.0000
36.9800 195.0000 1.0000
37.0000 187.0000 1.0000
37.0200 173.0000 1.0000
37.0400 163.0000 1.0000
37.0600 162.0000 1.0000
37.0800 164.0000 1.0000
37.1000 169.0000 1.0000
37.1200 176.0000 1.0000
37.1400 179.0000 1.0000
37.1600 181.0000 1.0000
37.1800 187.0000 1.0000
37.2000 197.0000 1.0000
37.2200 190.0000 1.0000
37.2400 199.0000 1.0000
37.2600 208.0000 1.0000
37.2800 235.0000 1.0000
37.3000 256.0000 1.0000
37.3200 242.0000 1.0000
37.3400 252.0000 1.0000
37.3600 288.0000 1.0000
37.3800 284.0000 1.0000
37.4000 298.0000 1.0000
37.4200 315.0000 1.0000
37.4400 359.0000 1.0000
37.4600 408.0000 1.0000
37.4800 450.0000 1.0000
37.5000 512.0000 1.0000
37.5200 582.0000 1.0000
37.5400 651.0000 1.0000
37.5600 752.0000 1.0000
37.5800 758.0000 1.0000
37.6000 736.0000 1.0000
37.6200 707.0000 1.0000
37.6400 632.0000 1.0000
37.6600 565.0000 1.0000
37.6800 476.0000 1.0000
37.7000 422.0000 1.0000
37.7200 358.0000 1.0000
37.7400 304.0000 1.0000
37.7600 219.0000 1.0000
37.7800 193.0000 1.0000
37.8000 165.0000 1.0000
37.8200 194.0000 1.0000
37.8400 188.0000 1.0000
37.8600 171.0000 1.0000
37.8800 163.0000 1.0000
37.9000 155.0000 1.0000
37.9200 170.0000 1.0000
37.9400 188.0000 1.0000
37.9600 186.0000 1.0000
37.9800 204.0000 1.0000
38.0000 220.0000 1.0000
38.0200 229.0000 1.0000
38.0400 252.0000 1.0000
38.0600 250.0000 1.0000
38.0800 259.0000 1.0000
38.1000 248.0000 1.0000
38.1200 245.0000 1.0000
38.1400 256.0000 1.0000
38.1600 235.0000 1.0000
38.1800 212.0000 1.0000
38.2000 227.0000 1.0000
38.2200 221.0000 1.0000
38.2400 219.0000 1.0000
38.2600 220.0000 1.0000
38.2800 197.0000 1.0000
38.3000 199.0000 1.0000
38.3200 203.0000 1.0000
38.3400 204.0000 1.0000
38.3600 188.0000 1.0000
38.3800 180.0000 1.0000
38.4000 189.0000 1.0000
38.4200 179.0000 1.0000
38.4400 189.0000 1.0000
38.4600 207.0000 1.0000
38.4800 197.0000 1.0000
38.5000 177.0000 1.0000
38.5200 165.0000 1.0000
38.5400 150.0000 1.0000
38.5600 151.0000 1.0000
38.5800 151.0000 1.0000
38.6000 148.0000 1.0000
38.6200 154.0000 1.0000
38.6400 156.0000 1.0000
38.6600 158.0000 1.0000
38.6800 179.0000 1.0000
38.7000 170.0000 1.0000
38.7200 170.0000 1.0000
38.7400 173.0000 1.0000
38.7600 185.0000 1.0000
38.7800 178.0000 1.0000
38.8000 181.0000 1.0000
38.8200 182.0000 1.0000
38.8400 172.0000 1.0000
38.8600 177.0000 1.0000
38.8800 201.0000 1.0000
38.9000 215.0000 1.0000
38.9200 234.0000 1.0000
38.9400 230.0000 1.0000
38.9600 212.0000 1.0000
38.9800 238.0000 1.0000
39.0000 238.0000 1.0000
39.0200 231.0000 1.0000
39.0400 257.0000 1.0000
39.0600 278.0000 1.0000
39.0800 285.0000 1.0000
39.1000 281.0000 1.0000
39.1200 278.0000 1.0000
39.1400 302.0000 1.0000
39.1600 332.0000 1.0000
39.1800 395.0000 1.0000
39.2000 442.0000 1.0000
39.2200 499.0000 1.0000
39.2400 539.0000 1.0000
39.2600 592.0000 1.0000
39.2800 608.0000 1.0000
39.3000 583.0000 1.0000
39.3200 605.0000 1.0000
39.3400 556.0000 1.0000
39.3600 493.0000 1.0000
39.3800 444.0000 1.0000
39.4000 371.0000 1.0000
39.4200 343.0000 1.0000
39.4400 291.0000 1.0000
39.4600 225.0000 1.0000
39.4800 194.0000 1.0000
39.5000 202.0000 1.0000
39.5200 191.0000 1.0000
39.5400 164.0000 1.0000
39.5600 142.0000 1.0000
39.5800 141.0000 1.0000
39.6000 152.0000 1.0000
39.6200 157.0000 1.0000
39.6400 148.0000 1.0000
39.6600 140.0000 1.0000
39.6800 130.0000 1.0000
39.7000 139.0000 1.0000
39.7200 149.0000 1.0000
39.7400 134.0000 1.0000
39.7600 131.0000 1.0000
39.7800 138.0000 1.0000
39.8000 129.0000 1.0000
39.8200 125.0000 1.0000
39.8400 132.0000 1.0000
39.8600 136.0000 1.0000
39.8800 144.0000 1.0000
39.9000 145.0000 1.0000
39.9200 145.0000 1.0000
39.9400 170.0000 1.0000
39.9600 184.0000 1.0000
39.9800 190.0000 1.0000
40.0000 222.0000 1.0000
40.0200 257.0000 1.0000
40.0400 280.0000 1.0000
40.0600 321.0000 1.0000
40.0800 356.0000 1.0000
40.1000 359.0000 1.0000
40.1200 348.0000 1.0000
40.1400 339.0000 1.0000
40.1600 330.0000 1.0000
40.1800 309.0000 1.0000
40.2000 271.0000 1.0000
40.2200 248.0000 1.0000
40.2400 234.0000 1.0000
40.2600 218.0000 1.0000
40.2800 187.0000 1.0000
40.3000 169.0000 1.0000
40.3200 165.0000 1.0000
40.3400 151.0000 1.0000
40.3600 143.0000 1.0000
40.3800 144.0000 1.0000
40.4000 148.0000 1.0000
40.4200 142.0000 1.0000
40.4400 135.0000 1.0000
40.4600 138.0000 1.0000
40.4800 153.0000 1.0000
40.5000 160.0000 1.0000
40.5200 151.0000 1.0000
40.5400 134.0000 1.0000
40.5600 137.0000 1.0000
40.5800 153.0000 1.0000
40.6000 148.0000 1.0000
40.6200 142.0000 1.0000
40.6400 145.0000 1.0000
40.6600 137.0000 1.0000
40.6800 148.0000 1.0000
40.7000 160.0000 1.0000
40.7200 150.0000 1.0000
40.7400 145.0000 1.0000
40.7600 143.0000 1.0000
40.7800 147.0000 1.0000
40.8000 143.0000 1.0000
40.8200 128.0000 1.0000
40.8400 122.0000 1.0000
40.8600 128.0000 1.0000
40.8800 139.0000 1.0000
40.9000 143.0000 1.0000
40.9200 142.0000 1.0000
40.9400 148.0000 1.0000
40.9600 154.0000 1.0000
40.9800 152.0000 1.0000
41.0000 156.0000 1.0000
41.0200 157.0000 1.0000
41.0400 148.0000 1.0000
41.0600 152.0000 1.0000
41.0800 154.0000 1.0000
41.1000 152.0000 1.0000
41.1200 147.0000 1.0000
41.1400 164.0000 1.0000
41.1600 186.0000 1.0000
41.1800 175.0000 1.0000
41.2000 178.0000 1.0000
41.2200 178.0000 1.0000
41.2400 196.0000 1.0000
41.2600 209.0000 1.0000
41.2800 197.0000 1.0000
41.3000 200.0000 1.0000
41.3200 224.0000 1.0000
41.3400 217.0000 1.0000
41.3600 226.0000 1.0000
41.3800 239.0000 1.0000
41.4000 256.0000 1.0000
41.4200 257.0000 1.0000
41.4400 257.0000 1.0000
41.4600 259.0000 1.0000
41.4800 238.0000 1.0000
41.5000 235.0000 1.0000
41.5200 243.0000 1.0000
41.5400 244.0000 1.0000
41.5600 243.0000 1.0000
41.5800 251.0000 1.0000
41.6000 236.0000 1.0000
41.6200 225.0000 1.0000
41.6400 220.0000 1.0000
41.6600 204.0000 1.0000
41.6800 208.0000 1.0000
41.7000 211.0000 1.0000
41.7200 188.0000 1.0000
41.7400 176.0000 1.0000
41.7600 171.0000 1.0000
41.7800 181.0000 1.0000
41.8000 164.0000 1.0000
41.8200 166.0000 1.0000
41.8400 180.0000 1.0000
41.8600 177.0000 1.0000
41.8800 180.0000 1.0000
41.9000 183.0000 1.0000
41.9200 177.0000 1.0000
41.9400 169.0000 1.0000
41.9600 190.0000 1.0000
41.9800 201.0000 1.0000
42.0000 212.0000 1.0000
42.0200 219.0000 1.0000
42.0400 241.0000 1.0000
42.0600 256.0000 1.0000
42.0800 276.0000 1.0000
42.1000 280.0000 1.0000
42.1200 284.0000 1.0000
42.1400 307.0000 1.0000
42.1600 343.0000 1.0000
42.1800 391.0000 1.0000
42.2000 475.0000 1.0000
42.2200 539.0000 1.0000
42.2400 564.0000 1.0000
42.2600 586.0000 1.0000
42.2800 573.0000 1.0000
42.3000 574.0000 1.0000
42.3200 511.0000 1.0000
42.3400 481.0000 1.0000
42.3600 425.0000 1.0000
42.3800 392.0000 1.0000
42.4000 343.0000 1.0000
42.4200 310.0000 1.0000
42.4400 257.0000 1.0000
42.4600 235.0000 1.0000
42.4800 225.0000 1.0000
42.5000 216.0000 1.0000
42.5200 201.0000 1.0000
42.5400 200.0000 1.0000
42.5600 209.0000 1.0000
42.5800 210.0000 1.0000
42.6000 219.0000 1.0000
42.6200 216.0000 1.0000
42.6400 241.0000 1.0000
42.6600 249.0000 1.0000
42.6800 272.0000 1.0000
42.7000 264.0000 1.0000
42.7200 263.0000 1.0000
42.7400 285.0000 1.0000
42.7600 280.0000 1.0000
42.7800 263.0000 1.0000
42.8000 232.0000 1.0000
42.8200 219.0000 1.0000
42.8400 261.0000 1.0000
42.8600 254.0000 1.0000
42.8800 221.0000 1.0000
42.9000 252.0000 1.0000
42.9200 264.0000 1.0000
42.9400 285.0000 1.0000
42.9600 304.0000 1.0000
42.9800 352.0000 1.0000
43.0000 370.0000 1.0000
43.0200 448.0000 1.0000
43.0400 528.0000 1.0000
43.0600 690.0000 1.0000
43.0800 800.0000 1.0000
43.1000 1021.0000 1.0000
43.1200 1295.0000 1.0000
43.1400 1427.0000 1.0000
43.1600 1505.0000 1.0000
43.1800 1517.0000 1.0000
43.2000 1513.0000 1.0000
43.2200 1334.0000 1.0000
43.2400 1240.0000 1.0000
43.2600 1052.0000 1.0000
43.2800 922.0000 1.0000
43.3000 863.0000 1.0000
43.3200 673.0000 1.0000
43.3400 540.0000 1.0000
43.3600 439.0000 1.0000
43.3800 339.0000 1.0000
43.4000 257.0000 1.0000
43.4200 223.0000 1.0000
43.4400 211.0000 1.0000
43.4600 187.0000 1.0000
43.4800 185.0000 1.0000
43.5000 147.0000 1.0000
43.5200 150.0000 1.0000
43.5400 152.0000 1.0000
43.5600 130.0000 1.0000
43.5800 134.0000 1.0000
43.6000 171.0000 1.0000
43.6200 155.0000 1.0000
43.6400 137.0000 1.0000
43.6600 141.0000 1.0000
43.6800 158.0000 1.0000
43.7000 134.0000 1.0000
43.7200 135.0000 1.0000
43.7400 143.0000 1.0000
43.7600 142.0000 1.0000
43.7800 146.0000 1.0000
43.8000 160.0000 1.0000
43.8200 145.0000 1.0000
43.8400 151.0000 1.0000
43.8600 159.0000 1.0000
43.8800 172.0000 1.0000
43.9000 157.0000 1.0000
43.9200 157.0000 1.0000
43.9400 161.0000 1.0000
43.9600 165.0000 1.0000
43.9800 160.0000 1.0000
44.0000 149.0000 1.0000
44.0200 151.0000 1.0000
44.0400 150.0000 1.0000
44.0600 144.0000 1.0000
44.0800 128.0000 1.0000
44.1000 124.0000 1.0000
44.1200 126.0000 1.0000
44.1400 122.0000 1.0000
44.1600 142.0000 1.0000
44.1800 136.0000 1.0000
44.2000 121.0000 1.0000
44.2200 120.0000 1.0000
44.2400 132.0000 1.0000
44.2600 139.0000 1.0000
44.2800 151.0000 1.0000
44.3000 131.0000 1.0000
44.3200 145.0000 1.0000
44.3400 154.0000 1.0000
44.3600 151.0000 1.0000
44.3800 167.0000 1.0000
44.4000 165.0000 1.0000
44.4200 180.0000 1.0000
44.4400 186.0000 1.0000
44.4600 172.0000 1.0000
44.4800 233.0000 1.0000
44.5000 232.0000 1.0000
44.5200 204.0000 1.0000
44.5400 199.0000 1.0000
44.5600 228.0000 1.0000
44.5800 215.0000 1.0000
44.6000 214.0000 1.0000
44.6200 209.0000 1.0000
44.6400 249.0000 1.0000
44.6600 227.0000 1.0000
44.6800 216.0000 1.0000
44.7000 196.0000 1.0000
44.7200 200.0000 1.0000
44.7400 178.0000 1.0000
44.7600 172.0000 1.0000
44.7800 189.0000 1.0000
44.8000 176.0000 1.0000
44.8200 164.0000 1.0000
44.8400 163.0000 1.0000
44.8600 174.0000 1.0000
44.8800 153.0000 1.0000
44.9000 185.0000 1.0000
44.9200 150.0000 1.0000
44.9400 175.0000 1.0000
44.9600 172.0000 1.0000
44.9800 187.0000 1.0000
45.0000 176.0000 1.0000
45.0200 177.0000 1.0000
45.0400 159.0000 1.0000
45.0600 168.0000 1.0000
45.0800 166.0000 1.0000
45.1000 173.0000 1.0000
45.1200 161.0000 1.0000
45.1400 161.0000 1.0000
45.1600 163.0000 1.0000
45.1800 123.0000 1.0000
45.2000 154.0000 1.0000
45.2200 145.0000 1.0000
45.2400 168.0000 1.0000
45.2600 164.0000 1.0000
45.2800 153.0000 1.0000
45.3000 166.0000 1.0000
45.3200 136.0000 1.0000
45.3400 172.0000 1.0000
45.3600 160.0000 1.0000
45.3800 181.0000 1.0000
45.4000 194.0000 1.0000
45.4200 192.0000 1.0000
45.4400 211.0000 1.0000
45.4600 208.0000 1.0000
45.4800 215.0000 1.0000
45.5000 251.0000 1.0000
45.5200 278.0000 1.0000
45.5400 324.0000 1.0000
45.5600 364.0000 1.0000
45.5800 414.0000 1.0000
45.6000 390.0000 1.0000
45.6200 325.0000 1.0000
45.6400 365.0000 1.0000
45.6600 344.0000 1.0000
45.6800 337.0000 1.0000
45.7000 285.0000 1.0000
45.7200 282.0000 1.0000
45.7400 241.0000 1.0000
45.7600 227.0000 1.0000
45.7800 217.0000 1.0000
45.8000 196.0000 1.0000
45.8200 169.0000 1.0000
45.8400 159.0000 1.0000
45.8600 136.0000 1.0000
45.8800 143.0000 1.0000
45.9000 137.0000 1.0000
45.9200 161.0000 1.0000
45.9400 146.0000 1.0000
45.9600 149.0000 1.0000
45.9800 117.0000 1.0000
46.0000 141.0000 1.0000
46.0200 134.0000 1.0000
46.0400 143.0000 1.0000
46.0600 147.0000 1.0000
46.0800 140.0000 1.0000
46.1000 126.0000 1.0000
46.1200 116.0000 1.0000
46.1400 112.0000 1.0000
46.1600 115.0000 1.0000
46.1800 110.0000 1.0000
46.2000 100.0000 1.0000
46.2200 96.0000 1.0000
46.2400 110.0000 1.0000
46.2600 109.0000 1.0000
46.2800 107.0000 1.0000
46.3000 117.0000 1.0000
46.3200 108.0000 1.0000
46.3400 99.0000 1.0000
46.3600 98.0000 1.0000
46.3800 121.0000 1.0000
46.4000 117.0000 1.0000
46.4200 108.0000 1.0000
46.4400 100.0000 1.0000
46.4600 104.0000 1.0000
46.4800 103.0000 1.0000
46.5000 105.0000 1.0000
46.5200 99.0000 1.0000
46.5400 133.0000 1.0000
46.5600 137.0000 1.0000
46.5800 110.0000 1.0000
46.6000 117.0000 1.0000
46.6200 124.0000 1.0000
46.6400 124.0000 1.0000
46.6600 134.0000 1.0000
46.6800 142.0000 1.0000
46.7000 144.0000 1.0000
46.7200 123.0000 1.0000
46.7400 123.0000 1.0000
46.7600 141.0000 1.0000
46.7800 138.0000 1.0000
46.8000 143.0000 1.0000
46.8200 129.0000 1.0000
46.8400 120.0000 1.0000
46.8600 119.0000 1.0000
46.8800 119.0000 1.0000
46.9000 131.0000 1.0000
46.9200 123.0000 1.0000
46.9400 121.0000 1.0000
46.9600 108.0000 1.0000
46.9800 112.0000 1.0000
47.0000 99.0000 1.0000
47.0200 108.0000 1.0000
47.0400 113.0000 1.0000
47.0600 102.0000 1.0000
47.0800 104.0000 1.0000
47.1000 99.0000 1.0000
47.1200 103.0000 1.0000
47.1400 112.0000 1.0000
47.1600 114.0000 1.0000
47.1800 107.0000 1.0000
47.2000 109.0000 1.0000
47.2200 122.0000 1.0000
47.2400 137.0000 1.0000
47.2600 147.0000 1.0000
47.2800 149.0000 1.0000
47.3000 144.0000 1.0000
47.3200 149.0000 1.0000
47.3400 146.0000 1.0000
47.3600 137.0000 1.0000
47.3800 114.0000 1.0000
47.4000 121.0000 1.0000
47.4200 137.0000 1.0000
47.4400 132.0000 1.0000
47.4600 135.0000 1.0000
47.4800 135.0000 1.0000
47.5000 133.0000 1.0000
47.5200 138.0000 1.0000
47.5400 128.0000 1.0000
47.5600 121.0000 1.0000
47.5800 117.0000 1.0000
47.6000 120.0000 1.0000
47.6200 118.0000 1.0000
47.6400 103.0000 1.0000
47.6600 112.0000 1.0000
47.6800 133.0000 1.0000
47.7000 135.0000 1.0000
47.7200 119.0000 1.0000
47.7400 113.0000 1.0000
47.7600 132.0000 1.0000
47.7800 129.0000 1.0000
47.8000 123.0000 1.0000
47.8200 134.0000 1.0000
47.8400 136.0000 1.0000
47.8600 110.0000 1.0000
47.8800 117.0000 1.0000
47.9000 122.0000 1.0000
47.9200 138.0000 1.0000
47.9400 129.0000 1.0000
47.9600 137.0000 1.0000
47.9800 157.0000 1.0000
48.0000 150.0000 1.0000
48.0200 145.0000 1.0000
48.0400 141.0000 1.0000
48.0600 152.0000 1.0000
48.0800 163.0000 1.0000
48.1000 186.0000 1.0000
48.1200 194.0000 1.0000
48.1400 179.0000 1.0000
48.1600 195.0000 1.0000
48.1800 214.0000 1.0000
48.2000 206.0000 1.0000
48.2200 188.0000 1.0000
48.2400 187.0000 1.0000
48.2600 188.0000 1.0000
48.2800 184.0000 1.0000
48.3000 175.0000 1.0000
48.3200 170.0000 1.0000
48.3400 172.0000 1.0000
48.3600 163.0000 1.0000
48.3800 157.0000 1.0000
48.4000 154.0000 1.0000
48.4200 148.0000 1.0000
48.4400 143.0000 1.0000
48.4600 134.0000 1.0000
48.4800 138.0000 1.0000
48.5000 140.0000 1.0000
48.5200 148.0000 1.0000
48.5400 161.0000 1.0000
48.5600 164.0000 1.0000
48.5800 166.0000 1.0000
48.6000 151.0000 1.0000
48.6200 148.0000 1.0000
48.6400 156.0000 1.0000
48.6600 149.0000 1.0000
48.6800 142.0000 1.0000
48.7000 143.0000 1.0000
48.7200 135.0000 1.0000
48.7400 136.0000 1.0000
48.7600 144.0000 1.0000
48.7800 153.0000 1.0000
48.8000 155.0000 1.0000
48.8200 162.0000 1.0000
48.8400 163.0000 1.0000
48.8600 153.0000 1.0000
48.8800 170.0000 1.0000
48.9000 175.0000 1.0000
48.9200 181.0000 1.0000
48.9400 189.0000 1.0000
48.9600 185.0000 1.0000
48.9800 212.0000 1.0000
49.0000 241.0000 1.0000
49.0200 236.0000 1.0000
49.0400 238.0000 1.0000
49.0600 246.0000 1.0000
49.0800 235.0000 1.0000
49.1000 225.0000 1.0000
49.1200 212.0000 1.0000
49.1400 196.0000 1.0000
49.1600 194.0000 1.0000
49.1800 196.0000 1.0000
49.2000 177.0000 1.0000
49.2200 175.0000 1.0000
49.2400 169.0000 1.0000
49.2600 172.0000 1.0000
49.2800 183.0000 1.0000
49.3000 171.0000 1.0000
49.3200 168.0000 1.0000
49.3400 169.0000 1.0000
49.3600 159.0000 1.0000
49.3800 175.0000 1.0000
49.4000 175.0000 1.0000
49.4200 173.0000 1.0000
49.4400 189.0000 1.0000
49.4600 199.0000 1.0000
49.4800 205.0000 1.0000
49.5000 213.0000 1.0000
49.5200 246.0000 1.0000
49.5400 252.0000 1.0000
49.5600 244.0000 1.0000
49.5800 263.0000 1.0000
49.6000 293.0000 1.0000
49.6200 321.0000 1.0000
49.6400 332.0000 1.0000
49.6600 335.0000 1.0000
49.6800 349.0000 1.0000
49.7000 358.0000 1.0000
49.7200 363.0000 1.0000
49.7400 398.0000 1.0000
49.7600 397.0000 1.0000
49.7800 398.0000 1.0000
49.8000 405.0000 1.0000
49.8200 408.0000 1.0000
49.8400 499.0000 1.0000
49.8600 570.0000 1.0000
49.8800 644.0000 1.0000
49.9000 746.0000 1.0000
49.9200 875.0000 1.0000
49.9400 990.0000 1.0000
49.9600 979.0000 1.0000
49.9800 937.0000 1.0000
50.0000 912.0000 1.0000
50.0200 837.0000 1.0000
50.0400 732.0000 1.0000
50.0600 648.0000 1.0000
50.0800 654.0000 1.0000
50.1000 597.0000 1.0000
50.1200 514.0000 1.0000
50.1400 459.0000 1.0000
50.1600 397.0000 1.0000
50.1800 311.0000 1.0000
50.2000 238.0000 1.0000
50.2200 199.0000 1.0000
50.2400 192.0000 1.0000
50.2600 179.0000 1.0000
50.2800 173.0000 1.0000
50.3000 183.0000 1.0000
50.3200 167.0000 1.0000
50.3400 188.0000 1.0000
50.3600 201.0000 1.0000
50.3800 213.0000 1.0000
50.4000 206.0000 1.0000
50.4200 222.0000 1.0000
50.4400 236.0000 1.0000
50.4600 244.0000 1.0000
50.4800 234.0000 1.0000
50.5000 243.0000 1.0000
50.5200 250.0000 1.0000
50.5400 261.0000 1.0000
50.5600 244.0000 1.0000
50.5800 248.0000 1.0000
50.6000 244.0000 1.0000
50.6200 235.0000 1.0000
50.6400 225.0000 1.0000
50.6600 202.0000 1.0000
50.6800 198.0000 1.0000
50.7000 195.0000 1.0000
50.7200 191.0000 1.0000
50.7400 179.0000 1.0000
50.7600 154.0000 1.0000
50.7800 165.0000 1.0000
50.8000 141.0000 1.0000
50.8200 143.0000 1.0000
50.8400 162.0000 1.0000
50.8600 161.0000 1.0000
50.8800 151.0000 1.0000
50.9000 127.0000 1.0000
50.9200 157.0000 1.0000
50.9400 177.0000 1.0000
50.9600 168.0000 1.0000
50.9800 196.0000 1.0000
51.0000 201.0000 1.0000
51.0200 212.0000 1.0000
51.0400 220.0000 1.0000
51.0600 222.0000 1.0000
51.0800 237.0000 1.0000
51.1000 236.0000 1.0000
51.1200 257.0000 1.0000
51.1400 265.0000 1.0000
51.1600 260.0000 1.0000
51.1800 251.0000 1.0000
51.2000 246.0000 1.0000
51.2200 242.0000 1.0000
51.2400 265.0000 1.0000
51.2600 221.0000 1.0000
51.2800 219.0000 1.0000
51.3000 218.0000 1.0000
51.3200 215.0000 1.0000
51.3400 211.0000 1.0000
51.3600 184.0000 1.0000
51.3800 159.0000 1.0000
51.4000 160.0000 1.0000
51.4200 136.0000 1.0000
51.4400 121.0000 1.0000
51.4600 115.0000 1.0000
51.4800 140.0000 1.0000
51.5000 114.0000 1.0000
51.5200 123.0000 1.0000
51.5400 115.0000 1.0000
51.5600 107.0000 1.0000
51.5800 117.0000 1.0000
51.6000 106.0000 1.0000
51.6200 142.0000 1.0000
51.6400 127.0000 1.0000
51.6600 117.0000 1.0000
51.6800 108.0000 1.0000
51.7000 96.0000 1.0000
51.7200 108.0000 1.0000
51.7400 112.0000 1.0000
51.7600 114.0000 1.0000
51.7800 124.0000 1.0000
51.8000 147.0000 1.0000
51.8200 134.0000 1.0000
51.8400 135.0000 1.0000
51.8600 136.0000 1.0000
51.8800 132.0000 1.0000
51.9000 141.0000 1.0000
51.9200 127.0000 1.0000
51.9400 130.0000 1.0000
51.9600 152.0000 1.0000
51.9800 156.0000 1.0000
52.0000 148.0000 1.0000
52.0200 192.0000 1.0000
52.0400 156.0000 1.0000
52.0600 164.0000 1.0000
52.0800 173.0000 1.0000
52.1000 181.0000 1.0000
52.1200 204.0000 1.0000
52.1400 191.0000 1.0000
52.1600 187.0000 1.0000
52.1800 201.0000 1.0000
52.2000 233.0000 1.0000
52.2200 247.0000 1.0000
52.2400 298.0000 1.0000
52.2600 313.0000 1.0000
52.2800 414.0000 1.0000
52.3000 484.0000 1.0000
52.3200 576.0000 1.0000
52.3400 649.0000 1.0000
52.3600 740.0000 1.0000
52.3800 770.0000 1.0000
52.4000 699.0000 1.0000
52.4200 684.0000 1.0000
52.4400 676.0000 1.0000
52.4600 626.0000 1.0000
52.4800 541.0000 1.0000
52.5000 512.0000 1.0000
52.5200 468.0000 1.0000
52.5400 478.0000 1.0000
52.5600 415.0000 1.0000
52.5800 348.0000 1.0000
52.6000 320.0000 1.0000
52.6200 249.0000 1.0000
52.6400 234.0000 1.0000
52.6600 192.0000 1.0000
52.6800 209.0000 1.0000
52.7000 195.0000 1.0000
52.7200 212.0000 1.0000
52.7400 201.0000 1.0000
52.7600 183.0000 1.0000
52.7800 192.0000 1.0000
52.8000 202.0000 1.0000
52.8200 190.0000 1.0000
52.8400 204.0000 1.0000
52.8600 207.0000 1.0000
52.8800 187.0000 1.0000
52.9000 217.0000 1.0000
52.9200 213.0000 1.0000
52.9400 219.0000 1.0000
52.9600 195.0000 1.0000
52.9800 197.0000 1.0000
53.0000 192.0000 1.0000
53.0200 205.0000 1.0000
53.0400 189.0000 1.0000
53.0600 198.0000 1.0000
53.0800 196.0000 1.0000
53.1000 190.0000 1.0000
53.1200 170.0000 1.0000
53.1400 169.0000 1.0000
53.1600 160.0000 1.0000
53.1800 138.0000 1.0000
53.2000 161.0000 1.0000
53.2200 170.0000 1.0000
53.2400 156.0000 1.0000
53.2600 156.0000 1.0000
53.2800 130.0000 1.0000
53.3000 128.0000 1.0000
53.3200 126.0000 1.0000
53.3400 138.0000 1.0000
53.3600 137.0000 1.0000
53.3800 143.0000 1.0000
53.4000 135.0000 1.0000
53.4200 131.0000 1.0000
53.4400 143.0000 1.0000
53.4600 136.0000 1.0000
53.4800 150.0000 1.0000
53.5000 127.0000 1.0000
53.5200 124.0000 1.0000
53.5400 120.0000 1.0000
53.5600 122.0000 1.0000
53.5800 113.0000 1.0000
53.6000 140.0000 1.0000
53.6200 146.0000 1.0000
53.6400 122.0000 1.0000
53.6600 133.0000 1.0000
53.6800 133.0000 1.0000
53.7000 144.0000 1.0000
53.7200 154.0000 1.0000
53.7400 131.0000 1.0000
53.7600 133.0000 1.0000
53.7800 143.0000 1.0000
53.8000 170.0000 1.0000
53.8200 155.0000 1.0000
53.8400 167.0000 1.0000
53.8600 166.0000 1.0000
53.8800 156.0000 1.0000
53.9000 155.0000 1.0000
53.9200 159.0000 1.0000
53.9400 140.0000 1.0000
53.9600 155.0000 1.0000
53.9800 169.0000 1.0000
54.0000 171.0000 1.0000
54.0200 166.0000 1.0000
54.0400 163.0000 1.0000
54.0600 166.0000 1.0000
54.0800 155.0000 1.0000
54.1000 157.0000 1.0000
54.1200 153.0000 1.0000
54.1400 150.0000 1.0000
54.1600 154.0000 1.0000
54.1800 159.0000 1.0000
54.2000 166.0000 1.0000
54.2200 157.0000 1.0000
54.2400 179.0000 1.0000
54.2600 167.0000 1.0000
54.2800 168.0000 1.0000
54.3000 185.0000 1.0000
54.3200 157.0000 1.0000
54.3400 165.0000 1.0000
54.3600 154.0000 1.0000
54.3800 139.0000 1.0000
54.4000 143.0000 1.0000
54.4200 153.0000 1.0000
54.4400 135.0000 1.0000
54.4600 141.0000 1.0000
54.4800 151.0000 1.0000
54.5000 165.0000 1.0000
54.5200 164.0000 1.0000
54.5400 177.0000 1.0000
54.5600 186.0000 1.0000
54.5800 186.0000 1.0000
54.6000 204.0000 1.0000
54.6200 237.0000 1.0000
54.6400 270.0000 1.0000
54.6600 320.0000 1.0000
54.6800 348.0000 1.0000
54.7000 346.0000 1.0000
54.7200 344.0000 1.0000
54.7400 323.0000 1.0000
54.7600 311.0000 1.0000
54.7800 292.0000 1.0000
54.8000 281.0000 1.0000
54.8200 294.0000 1.0000
54.8400 283.0000 1.0000
54.8600 251.0000 1.0000
54.8800 232.0000 1.0000
54.9000 234.0000 1.0000
54.9200 224.0000 1.0000
54.9400 176.0000 1.0000
54.9600 165.0000 1.0000
54.9800 171.0000 1.0000
55.0000 159.0000 1.0000
55.0200 143.0000 1.0000
55.0400 183.0000 1.0000
55.0600 194.0000 1.0000
55.0800 209.0000 1.0000
55.1000 229.0000 1.0000
55.1200 252.0000 1.0000
55.1400 272.0000 1.0000
55.1600 265.0000 1.0000
55.1800 269.0000 1.0000
55.2000 292.0000 1.0000
55.2200 264.0000 1.0000
55.2400 246.0000 1.0000
55.2600 265.0000 1.0000
55.2800 287.0000 1.0000
55.3000 264.0000 1.0000
55.3200 247.0000 1.0000
55.3400 246.0000 1.0000
55.3600 242.0000 1.0000
55.3800 232.0000 1.0000
55.4000 195.0000 1.0000
55.4200 190.0000 1.0000
55.4400 191.0000 1.0000
55.4600 175.0000 1.0000
55.4800 168.0000 1.0000
55.5000 157.0000 1.0000
55.5200 163.0000 1.0000
55.5400 158.0000 1.0000
55.5600 147.0000 1.0000
55.5800 155.0000 1.0000
55.6000 135.0000 1.0000
55.6200 132.0000 1.0000
55.6400 141.0000 1.0000
55.6600 136.0000 1.0000
55.6800 132.0000 1.0000
55.7000 133.0000 1.0000
55.7200 145.0000 1.0000
55.7400 152.0000 1.0000
55.7600 147.0000 1.0000
55.7800 133.0000 1.0000
55.8000 129.0000 1.0000
55.8200 140.0000 1.0000
55.8400 145.0000 1.0000
55.8600 138.0000 1.0000
55.8800 136.0000 1.0000
55.9000 136.0000 1.0000
55.9200 129.0000 1.0000
55.9400 129.0000 1.0000
55.9600 140.0000 1.0000
55.9800 141.0000 1.0000
56.0000 126.0000 1.0000
56.0200 121.0000 1.0000
56.0400 128.0000 1.0000
56.0600 125.0000 1.0000
56.0800 123.0000 1.0000
56.1000 119.0000 1.0000
56.1200 114.0000 1.0000
56.1400 128.0000 1.0000
56.1600 131.0000 1.0000
56.1800 127.0000 1.0000
56.2000 134.0000 1.0000
56.2200 138.0000 1.0000
56.2400 141.0000 1.0000
56.2600 138.0000 1.0000
56.2800 143.0000 1.0000
56.3000 144.0000 1.0000
56.3200 148.0000 1.0000
56.3400 166.0000 1.0000
56.3600 169.0000 1.0000
56.3800 172.0000 1.0000
56.4000 192.0000 1.0000
56.4200 195.0000 1.0000
56.4400 175.0000 1.0000
56.4600 165.0000 1.0000
56.4800 172.0000 1.0000
56.5000 178.0000 1.0000
56.5200 161.0000 1.0000
56.5400 154.0000 1.0000
56.5600 167.0000 1.0000
56.5800 158.0000 1.0000
56.6000 152.0000 1.0000
56.6200 156.0000 1.0000
56.6400 162.0000 1.0000
56.6600 153.0000 1.0000
56.6800 147.0000 1.0000
56.7000 145.0000 1.0000
56.7200 143.0000 1.0000
56.7400 133.0000 1.0000
56.7600 139.0000 1.0000
56.7800 149.0000 1.0000
56.8000 154.0000 1.0000
56.8200 158.0000 1.0000
56.8400 150.0000 1.0000
56.8600 138.0000 1.0000
56.8800 136.0000 1.0000
56.9000 145.0000 1.0000
56.9200 141.0000 1.0000
56.9400 148.0000 1.0000
56.9600 154.0000 1.0000
56.9800 166.0000 1.0000
57.0000 170.0000 1.0000
57.0200 182.0000 1.0000
57.0400 175.0000 1.0000
57.0600 181.0000 1.0000
57.0800 194.0000 1.0000
57.1000 209.0000 1.0000
57.1200 232.0000 1.0000
57.1400 257.0000 1.0000
57.1600 293.0000 1.0000
57.1800 339.0000 1.0000
57.2000 413.0000 1.0000
57.2200 537.0000 1.0000
57.2400 652.0000 1.0000
57.2600 823.0000 1.0000
57.2800 1013.0000 1.0000
57.3000 1148.0000 1.0000
57.3200 1278.0000 1.0000
57.3400 1282.0000 1.0000
57.3600 1223.0000 1.0000
57.3800 1163.0000 1.0000
57.4000 1042.0000 1.0000
57.4200 944.0000 1.0000
57.4400 852.0000 1.0000
57.4600 810.0000 1.0000
57.4800 786.0000 1.0000
57.5000 712.0000 1.0000
57.5200 675.0000 1.0000
57.5400 610.0000 1.0000
57.5600 484.0000 1.0000
57.5800 388.0000 1.0000
57.6000 328.0000 1.0000
57.6200 268.0000 1.0000
57.6400 246.0000 1.0000
57.6600 224.0000 1.0000
57.6800 226.0000 1.0000
57.7000 233.0000 1.0000
57.7200 227.0000 1.0000
57.7400 214.0000 1.0000
57.7600 201.0000 1.0000
57.7800 173.0000 1.0000
57.8000 178.0000 1.0000
57.8200 195.0000 1.0000
57.8400 172.0000 1.0000
57.8600 188.0000 1.0000
57.8800 173.0000 1.0000
57.9000 160.0000 1.0000
57.9200 156.0000 1.0000
57.9400 166.0000 1.0000
57.9600 162.0000 1.0000
57.9800 162.0000 1.0000
58.0000 154.0000 1.0000
58.0200 153.0000 1.0000
58.0400 150.0000 1.0000
58.0600 160.0000 1.0000
58.0800 153.0000 1.0000
58.1000 139.0000 1.0000
58.1200 130.0000 1.0000
58.1400 143.0000 1.0000
58.1600 145.0000 1.0000
58.1800 127.0000 1.0000
58.2000 150.0000 1.0000
58.2200 118.0000 1.0000
58.2400 137.0000 1.0000
58.2600 141.0000 1.0000
58.2800 136.0000 1.0000
58.3000 153.0000 1.0000
58.3200 135.0000 1.0000
58.3400 142.0000 1.0000
58.3600 143.0000 1.0000
58.3800 123.0000 1.0000
58.4000 128.0000 1.0000
58.4200 131.0000 1.0000
58.4400 148.0000 1.0000
58.4600 156.0000 1.0000
58.4800 161.0000 1.0000
58.5000 148.0000 1.0000
58.5200 142.0000 1.0000
58.5400 151.0000 1.0000
58.5600 165.0000 1.0000
58.5800 155.0000 1.0000
58.6000 132.0000 1.0000
58.6200 157.0000 1.0000
58.6400 171.0000 1.0000
58.6600 136.0000 1.0000
58.6800 134.0000 1.0000
58.7000 134.0000 1.0000
58.7200 139.0000 1.0000
58.7400 127.0000 1.0000
58.7600 118.0000 1.0000
58.7800 130.0000 1.0000
58.8000 128.0000 1.0000
58.8200 118.0000 1.0000
58.8400 122.0000 1.0000
58.8600 126.0000 1.0000
58.8800 112.0000 1.0000
58.9000 133.0000 1.0000
58.9200 110.0000 1.0000
58.9400 125.0000 1.0000
58.9600 130.0000 1.0000
58.9800 145.0000 1.0000
59.0000 143.0000 1.0000
59.0200 129.0000 1.0000
59.0400 148.0000 1.0000
59.0600 133.0000 1.0000
59.0800 138.0000 1.0000
59.1000 121.0000 1.0000
59.1200 120.0000 1.0000
59.1400 125.0000 1.0000
59.1600 143.0000 1.0000
59.1800 124.0000 1.0000
59.2000 143.0000 1.0000
59.2200 131.0000 1.0000
59.2400 142.0000 1.0000
59.2600 139.0000 1.0000
59.2800 132.0000 1.0000
59.3000 127.0000 1.0000
59.3200 140.0000 1.0000
59.3400 140.0000 1.0000
59.3600 160.0000 1.0000
59.3800 144.0000 1.0000
59.4000 134.0000 1.0000
59.4200 167.0000 1.0000
59.4400 155.0000 1.0000
59.4600 157.0000 1.0000
59.4800 173.0000 1.0000
59.5000 181.0000 1.0000
59.5200 193.0000 1.0000
59.5400 209.0000 1.0000
59.5600 213.0000 1.0000
59.5800 231.0000 1.0000
59.6000 218.0000 1.0000
59.6200 263.0000 1.0000
59.6400 250.0000 1.0000
59.6600 294.0000 1.0000
59.6800 347.0000 1.0000
59.7000 395.0000 1.0000
59.7200 454.0000 1.0000
59.7400 554.0000 1.0000
59.7600 625.0000 1.0000
59.7800 679.0000 1.0000
59.8000 691.0000 1.0000
59.8200 650.0000 1.0000
59.8400 630.0000 1.0000
59.8600 571.0000 1.0000
59.8800 489.0000 1.0000
59.9000 445.0000 1.0000
59.9200 446.0000 1.0000
59.9400 434.0000 1.0000
59.9600 456.0000 1.0000
59.9800 467.0000 1.0000
60.0000 416.0000 1.0000
60.0200 384.0000 1.0000
60.0400 309.0000 1.0000
60.0600 270.0000 1.0000
60.0800 234.0000 1.0000
60.1000 220.0000 1.0000
60.1200 180.0000 1.0000
60.1400 170.0000 1.0000
60.1600 187.0000 1.0000
60.1800 185.0000 1.0000
60.2000 175.0000 1.0000
60.2200 178.0000 1.0000
60.2400 183.0000 1.0000
60.2600 175.0000 1.0000
60.2800 168.0000 1.0000
60.3000 167.0000 1.0000
60.3200 173.0000 1.0000
60.3400 161.0000 1.0000
60.3600 145.0000 1.0000
60.3800 151.0000 1.0000
60.4000 158.0000 1.0000
60.4200 157.0000 1.0000
60.4400 175.0000 1.0000
60.4600 180.0000 1.0000
60.4800 145.0000 1.0000
60.5000 158.0000 1.0000
60.5200 166.0000 1.0000
60.5400 160.0000 1.0000
60.5600 171.0000 1.0000
60.5800 176.0000 1.0000
60.6000 191.0000 1.0000
60.6200 203.0000 1.0000
60.6400 175.0000 1.0000
60.6600 205.0000 1.0000
60.6800 182.0000 1.0000
60.7000 169.0000 1.0000
60.7200 171.0000 1.0000
60.7400 165.0000 1.0000
60.7600 183.0000 1.0000
60.7800 180.0000 1.0000
60.8000 156.0000 1.0000
60.8200 177.0000 1.0000
60.8400 158.0000 1.0000
60.8600 199.0000 1.0000
60.8800 175.0000 1.0000
60.9000 172.0000 1.0000
60.9200 183.0000 1.0000
60.9400 173.0000 1.0000
60.9600 203.0000 1.0000
60.9800 199.0000 1.0000
61.0000 213.0000 1.0000
61.0200 218.0000 1.0000
61.0400 226.0000 1.0000
61.0600 242.0000 1.0000
61.0800 253.0000 1.0000
61.1000 283.0000 1.0000
61.1200 276.0000 1.0000
61.1400 299.0000 1.0000
61.1600 285.0000 1.0000
61.1800 290.0000 1.0000
61.2000 245.0000 1.0000
61.2200 281.0000 1.0000
61.2400 233.0000 1.0000
61.2600 219.0000 1.0000
61.2800 213.0000 1.0000
61.3000 249.0000 1.0000
61.3200 211.0000 1.0000
61.3400 236.0000 1.0000
61.3600 225.0000 1.0000
61.3800 199.0000 1.0000
61.4000 199.0000 1.0000
61.4200 183.0000 1.0000
61.4400 186.0000 1.0000
61.4600 163.0000 1.0000
61.4800 170.0000 1.0000
61.5000 178.0000 1.0000
61.5200 185.0000 1.0000
61.5400 188.0000 1.0000
61.5600 178.0000 1.0000
61.5800 193.0000 1.0000
61.6000 161.0000 1.0000
61.6200 163.0000 1.0000
61.6400 164.0000 1.0000
61.6600 198.0000 1.0000
61.6800 167.0000 1.0000
61.7000 172.0000 1.0000
61.7200 172.0000 1.0000
61.7400 151.0000 1.0000
61.7600 180.0000 1.0000
61.7800 170.0000 1.0000
61.8000 176.0000 1.0000
61.8200 150.0000 1.0000
61.8400 176.0000 1.0000
61.8600 162.0000 1.0000
61.8800 144.0000 1.0000
61.9000 165.0000 1.0000
61.9200 163.0000 1.0000
61.9400 152.0000 1.0000
61.9600 187.0000 1.0000
61.9800 153.0000 1.0000
62.0000 163.0000 1.0000
62.0200 199.0000 1.0000
62.0400 154.0000 1.0000
62.0600 157.0000 1.0000
62.0800 147.0000 1.0000
62.1000 166.0000 1.0000
62.1200 155.0000 1.0000
62.1400 159.0000 1.0000
62.1600 163.0000 1.0000
62.1800 167.0000 1.0000
62.2000 148.0000 1.0000
62.2200 133.0000 1.0000
62.2400 148.0000 1.0000
62.2600 165.0000 1.0000
62.2800 158.0000 1.0000
62.3000 141.0000 1.0000
62.3200 157.0000 1.0000
62.3400 170.0000 1.0000
62.3600 142.0000 1.0000
62.3800 145.0000 1.0000
62.4000 147.0000 1.0000
62.4200 150.0000 1.0000
62.4400 128.0000 1.0000
62.4600 147.0000 1.0000
62.4800 167.0000 1.0000
62.5000 143.0000 1.0000
62.5200 144.0000 1.0000
62.5400 177.0000 1.0000
62.5600 178.0000 1.0000
62.5800 169.0000 1.0000
62.6000 161.0000 1.0000
62.6200 151.0000 1.0000
62.6400 160.0000 1.0000
62.6600 163.0000 1.0000
62.6800 160.0000 1.0000
62.7000 153.0000 1.0000
62.7200 172.0000 1.0000
62.7400 177.0000 1.0000
62.7600 173.0000 1.0000
62.7800 162.0000 1.0000
62.8000 149.0000 1.0000
62.8200 148.0000 1.0000
62.8400 162.0000 1.0000
62.8600 163.0000 1.0000
62.8800 146.0000 1.0000
62.9000 172.0000 1.0000
62.9200 160.0000 1.0000
62.9400 153.0000 1.0000
62.9600 174.0000 1.0000
62.9800 164.0000 1.0000
63.0000 154.0000 1.0000
63.0200 153.0000 1.0000
63.0400 153.0000 1.0000
63.0600 144.0000 1.0000
63.0800 149.0000 1.0000
63.1000 153.0000 1.0000
63.1200 140.0000 1.0000
63.1400 156.0000 1.0000
63.1600 149.0000 1.0000
63.1800 161.0000 1.0000
63.2000 163.0000 1.0000
63.2200 172.0000 1.0000
63.2400 176.0000 1.0000
63.2600 163.0000 1.0000
63.2800 164.0000 1.0000
63.3000 171.0000 1.0000
63.3200 172.0000 1.0000
63.3400 180.0000 1.0000
63.3600 199.0000 1.0000
63.3800 189.0000 1.0000
63.4000 199.0000 1.0000
63.4200 164.0000 1.0000
63.4400 186.0000 1.0000
63.4600 146.0000 1.0000
63.4800 191.0000 1.0000
63.5000 209.0000 1.0000
63.5200 195.0000 1.0000
63.5400 208.0000 1.0000
63.5600 186.0000 1.0000
63.5800 195.0000 1.0000
63.6000 192.0000 1.0000
63.6200 214.0000 1.0000
63.6400 201.0000 1.0000
63.6600 217.0000 1.0000
63.6800 214.0000 1.0000
63.7000 210.0000 1.0000
63.7200 217.0000 1.0000
63.7400 203.0000 1.0000
63.7600 219.0000 1.0000
63.7800 235.0000 1.0000
63.8000 236.0000 1.0000
63.8200 262.0000 1.0000
63.8400 269.0000 1.0000
63.8600 275.0000 1.0000
63.8800 265.0000 1.0000
63.9000 269.0000 1.0000
63.9200 283.0000 1.0000
63.9400 238.0000 1.0000
63.9600 221.0000 1.0000
63.9800 223.0000 1.0000
64.0000 229.0000 1.0000
64.0200 198.0000 1.0000
64.0400 220.0000 1.0000
64.0600 208.0000 1.0000
64.0800 207.0000 1.0000
64.1000 198.0000 1.0000
64.1200 196.0000 1.0000
64.1400 187.0000 1.0000
64.1600 165.0000 1.0000
64.1800 163.0000 1.0000
64.2000 174.0000 1.0000
64.2200 202.0000 1.0000
64.2400 190.0000 1.0000
64.2600 213.0000 1.0000
64.2800 190.0000 1.0000
64.3000 158.0000 1.0000
64.3200 172.0000 1.0000
64.3400 186.0000 1.0000
64.3600 203.0000 1.0000
64.3800 220.0000 1.0000
64.4000 219.0000 1.0000
64.4200 209.0000 1.0000
64.4400 196.0000 1.0000
64.4600 171.0000 1.0000
64.4800 175.0000 1.0000
64.5000 165.0000 1.0000
64.5200 171.0000 1.0000
64.5400 160.0000 1.0000
64.5600 149.0000 1.0000
64.5800 159.0000 1.0000
64.6000 143.0000 1.0000
64.6200 143.0000 1.0000
64.6400 156.0000 1.0000
64.6600 139.0000 1.0000
64.6800 136.0000 1.0000
64.7000 151.0000 1.0000
64.7200 160.0000 1.0000
64.7400 144.0000 1.0000
64.7600 137.0000 1.0000
64.7800 138.0000 1.0000
64.8000 140.0000 1.0000
64.8200 141.0000 1.0000
64.8400 129.0000 1.0000
64.8600 135.0000 1.0000
64.8800 147.0000 1.0000
64.9000 142.0000 1.0000
64.9200 140.0000 1.0000
64.9400 140.0000 1.0000
64.9600 140.0000 1.0000
64.9800 140.0000 1.0000
65.0000 140.0000 1.0000
*RAS_INT_END
*RAS_DATA_END
