*RAS_DATA_START
*RAS_HEADER_START
*CORR_POS_DB_NAME "Angle Correction ASC6 SC WITH Mono_04082019"
*CORR_POS_GONIO_RADIUS ""
*CORR_POS_NODE_INDEX01 ""
*CORR_POS_NODE_INDEX02 ""
*CORR_POS_NODE_INDEX03 ""
*CORR_POS_NODE_INDEX04 ""
*CORR_POS_NODE_INDEX05 ""
*CORR_POS_NODE_INDEX06 ""
*CORR_POS_NODE_INDEX07 ""
*CORR_POS_NODE_INDEX08 ""
*CORR_POS_NODE_INDEX09 ""
*CORR_POS_NODE_INDEX10 ""
*CORR_POS_NODE_INDEX11 ""
*CORR_POS_NODE_LABEL01 "Si(111)"
*CORR_POS_NODE_LABEL02 "Si(220)"
*CORR_POS_NODE_LABEL03 "Si(311)"
*CORR_POS_NODE_LABEL04 "Si(400)"
*CORR_POS_NODE_LABEL05 "Si(331)"
*CORR_POS_NODE_LABEL06 "Si(422)"
*CORR_POS_NODE_LABEL07 "Si(511)"
*CORR_POS_NODE_LABEL08 "Si(440)"
*CORR_POS_NODE_LABEL09 "Si(531)"
*CORR_POS_NODE_LABEL10 "Si(620)"
*CORR_POS_NODE_LABEL11 "Si(533)"
*CORR_POS_NODE_POS_CALC01 "28.377"
*CORR_POS_NODE_POS_CALC02 "47.2506"
*CORR_POS_NODE_POS_CALC03 "56.0725"
*CORR_POS_NODE_POS_CALC04 "69.0822"
*CORR_POS_NODE_POS_CALC05 "76.3294"
*CORR_POS_NODE_POS_CALC06 "87.9853"
*CORR_POS_NODE_POS_CALC07 "94.9091"
*CORR_POS_NODE_POS_CALC08 "106.668"
*CORR_POS_NODE_POS_CALC09 "114.054"
*CORR_POS_NODE_POS_CALC10 "127.511"
*CORR_POS_NODE_POS_CALC11 "136.864"
*CORR_POS_NODE_POS_MEAS01 "28.5058"
*CORR_POS_NODE_POS_MEAS02 "47.345"
*CORR_POS_NODE_POS_MEAS03 "56.1421"
*CORR_POS_NODE_POS_MEAS04 "69.1304"
*CORR_POS_NODE_POS_MEAS05 "76.366"
*CORR_POS_NODE_POS_MEAS06 "88.0213"
*CORR_POS_NODE_POS_MEAS07 "94.9406"
*CORR_POS_NODE_POS_MEAS08 "106.689"
*CORR_POS_NODE_POS_MEAS09 "114.065"
*CORR_POS_NODE_POS_MEAS10 "127.518"
*CORR_POS_NODE_POS_MEAS11 "136.869"
*CORR_POS_OPT_ATTR "集中法"
*CORR_POS_PARAM_MU ""
*CORR_POS_PARAM_PL ""
*CORR_POS_SEMODEL_TYPE "0"
*CORR_POS_STANDARD_TYPE ""
*CORR_POS_VALUE_ANALYZER "None"
*CORR_POS_VALUE_CMONO "None"
*CORR_POS_VALUE_IMONO "None"
*CORR_POS_VALUE_IS "1.250deg"
*CORR_POS_VALUE_ISL "10.0mm"
*CORR_POS_VALUE_ISOLLER "5.0deg"
*CORR_POS_VALUE_RS1 "1.250deg"
*CORR_POS_VALUE_RS2 "0.3mm"
*CORR_POS_VALUE_RSOLLER "5.0deg"
*CORR_POS_XG_FOCUS_L ""
*CORR_POS_XG_WAVE_TYPE ""
*CORR_POS_XG_WAVE_VALUE ""
*DISP_FMT_X "%.2f"
*DISP_FMT_Y "%.0f"
*DISP_FULLSCALE "5170.8000000000"
*DISP_LINE_COLOR "255.0000000000"
*DISP_LINE_STYLE "0.0000000000"
*DISP_LINE_WIDTH "0.2500000000"
*DISP_NOTE "Collected Data-19"
*DISP_OFFSET_Y "0.0000000000"
*DISP_PEAKSEARCH_UNIT_Y "CPS"
*DISP_RANGE_BOTTOM "0.0000000000"
*DISP_RANGE_LEFT "5.0000000000"
*DISP_RANGE_LOGCUTOFF "0.0100000000"
*DISP_RANGE_RIGHT "65.0000000000"
*DISP_RANGE_TOP "5170.8000000000"
*DISP_SCALE_MODE_Y "0.0000000000"
*DISP_TAB_NAME "Theta/2-Theta"
*DISP_TITLE_Y "Intensity"
*DISP_UNIT_Y "CPS"
*DISP_WINDOW_NAME "MSG_MACROENGINE"
*FILE_COMMENT " "
*FILE_MD5 ""
*FILE_MEMO " "
*FILE_OPERATOR "administrator"
*FILE_PART_ID "MEAS_PBEA_00223"
*FILE_SAMPLE " "
*FILE_TYPE "RAS_RAW"
*FILE_USERGROUP "System Manager"
*FILE_VERSION "1.0000000000"
*HW_ATTACHMENT_ID "ATT1031"
*HW_ATTACHMENT_NAME "6サンプルチェンジャ|ASC-6"
*HW_COUNTER_ID-0 "CUT0021"
*HW_COUNTER_ID-1 "CUT0020"
*HW_COUNTER_ID-2 "CUT0020"
*HW_COUNTER_ID-3 "CMC0021"
*HW_COUNTER_NAME-0 "SC-70|SC-70"
*HW_COUNTER_NAME-1 "None|None"
*HW_COUNTER_NAME-2 "None|None"
*HW_COUNTER_NAME-3 "検出器モノクロメータ|Detector monochromator"
*HW_COUNTER_SELECT_NAME "SC-70|SC-70"
*HW_ECP_HV "671.5000000000"
*HW_ECP_HV_UNIT "V"
*HW_GONIOMETER_ID "GON0070"
*HW_GONIOMETER_NAME "MiniFlex 300/600|MiniFlex 300/600"
*HW_GONIOMETER_RADIUS-0 "79.0"
*HW_GONIOMETER_RADIUS-1 "91.5"
*HW_GONIOMETER_RADIUS-2 "150.0"
*HW_GONIOMETER_RADIUS-3 "0"
*HW_GONIOMETER_RADIUS-4 "103.4"
*HW_GONIOMETER_RADIUS-5 "150.0"
*HW_GONIOMETER_RADIUS-6 "46.6"
*HW_GONIOMETER_RADIUS-7 "160.0"
*HW_I_OPT_ID-0 "ISL0021"
*HW_I_OPT_ID-1 "ISO0021"
*HW_I_OPT_NAME-0 "発散スリット|Divergence slit"
*HW_I_OPT_NAME-1 "入射平行スリット|Incident parallel slit"
*HW_R_ATTENUATER_AUTOMODE "0"
*HW_R_OPT_ID-0 "RSS0021"
*HW_R_OPT_ID-1 "RSO0021"
*HW_R_OPT_ID-2 "RRS0021"
*HW_R_OPT_NAME-0 "散乱スリット|Scattering slit"
*HW_R_OPT_NAME-1 "受光平行スリット|Receiving soller slit"
*HW_R_OPT_NAME-2 "受光スリット|Receiving slit"
*HW_SAMPLE_HOLDER_ID "SMP0000"
*HW_SAMPLE_HOLDER_NAME "無し|None"
*HW_XG_CURRENT_MAX "15"
*HW_XG_CURRENT_MIN "2"
*HW_XG_CURRENT_RESOLUTION "1"
*HW_XG_CURRENT_UNIT "mA"
*HW_XG_FOCUS "1mm x 10mm"
*HW_XG_FOCUS_TYPE "Normal"
*HW_XG_ID "1060"
*HW_XG_NAME "300W/600W 封入管-B|300W/600W Sealed tube-B"
*HW_XG_TARGET_ATOMIC_NUMBER "29.0000000000"
*HW_XG_TARGET_NAME "Cu"
*HW_XG_TYPE "Hermetic"
*HW_XG_VOLTAGE_MAX "40"
*HW_XG_VOLTAGE_MIN "20"
*HW_XG_VOLTAGE_RESOLUTION "1"
*HW_XG_VOLTAGE_UNIT "kV"
*HW_XG_WATT_MAX "0.600"
*HW_XG_WATT_UNIT "kW"
*HW_XG_WAVE_LENGTH_ALPHA1 "1.540593"
*HW_XG_WAVE_LENGTH_ALPHA2 "1.544414"
*HW_XG_WAVE_LENGTH_BETA "1.392250"
*MEAS_COND_AXIS_NAME-0 "Theta/2-Theta"
*MEAS_COND_AXIS_NAME-1 "Spin"
*MEAS_COND_AXIS_NAME-2 "Change"
*MEAS_COND_AXIS_NAME-3 "Soller(inc.)"
*MEAS_COND_AXIS_NAME-4 "IHS"
*MEAS_COND_AXIS_NAME-5 "DS"
*MEAS_COND_AXIS_NAME-6 "SS"
*MEAS_COND_AXIS_NAME-7 "Soller(rec.)"
*MEAS_COND_AXIS_NAME-8 "RS"
*MEAS_COND_AXIS_NAME-9 "Filter"
*MEAS_COND_AXIS_NAME-10 "Monochromator"
*MEAS_COND_AXIS_NAME-11 "HV"
*MEAS_COND_AXIS_NAME-12 "PHA"
*MEAS_COND_AXIS_NAME_INTERNAL-0 "TwoThetaTheta"
*MEAS_COND_AXIS_NAME_INTERNAL-1 "Spin"
*MEAS_COND_AXIS_NAME_INTERNAL-2 "Change"
*MEAS_COND_AXIS_NAME_INTERNAL-3 "IncidentSollerSlit"
*MEAS_COND_AXIS_NAME_INTERNAL-4 "IncidentAxdSlit"
*MEAS_COND_AXIS_NAME_INTERNAL-5 "IncidentSlitBox"
*MEAS_COND_AXIS_NAME_INTERNAL-6 "ReceivingSlitBox1"
*MEAS_COND_AXIS_NAME_INTERNAL-7 "ReceivingSollerSlit"
*MEAS_COND_AXIS_NAME_INTERNAL-8 "ReceivingSlitBox2"
*MEAS_COND_AXIS_NAME_INTERNAL-9 "Filter"
*MEAS_COND_AXIS_NAME_INTERNAL-10 "CounterMonochromator"
*MEAS_COND_AXIS_NAME_INTERNAL-11 "HV"
*MEAS_COND_AXIS_NAME_INTERNAL-12 "PHA"
*MEAS_COND_AXIS_NAME_MAGICNO-0 "268632064.0000000000"
*MEAS_COND_AXIS_NAME_MAGICNO-1 "16842752.0000000000"
*MEAS_COND_AXIS_NAME_MAGICNO-2 "16842752.0000000000"
*MEAS_COND_AXIS_NAME_MAGICNO-3 "20971521.0000000000"
*MEAS_COND_AXIS_NAME_MAGICNO-4 "22020097.0000000000"
*MEAS_COND_AXIS_NAME_MAGICNO-5 "22020097.0000000000"
*MEAS_COND_AXIS_NAME_MAGICNO-6 "23068673.0000000000"
*MEAS_COND_AXIS_NAME_MAGICNO-7 "20971521.0000000000"
*MEAS_COND_AXIS_NAME_MAGICNO-8 "23068673.0000000000"
*MEAS_COND_AXIS_NAME_MAGICNO-9 "20971521.0000000000"
*MEAS_COND_AXIS_NAME_MAGICNO-10 "20971521.0000000000"
*MEAS_COND_AXIS_NAME_MAGICNO-11 "0.0000000000"
*MEAS_COND_AXIS_NAME_MAGICNO-12 "0.0000000000"
*MEAS_COND_AXIS_OFFSET-0 "0.0000000000"
*MEAS_COND_AXIS_OFFSET-1 "-"
*MEAS_COND_AXIS_OFFSET-2 "-"
*MEAS_COND_AXIS_OFFSET-3 "-"
*MEAS_COND_AXIS_OFFSET-4 "-"
*MEAS_COND_AXIS_OFFSET-5 "-"
*MEAS_COND_AXIS_OFFSET-6 "-"
*MEAS_COND_AXIS_OFFSET-7 "-"
*MEAS_COND_AXIS_OFFSET-8 "-"
*MEAS_COND_AXIS_OFFSET-9 "-"
*MEAS_COND_AXIS_OFFSET-10 "-"
*MEAS_COND_AXIS_OFFSET-11 "-"
*MEAS_COND_AXIS_OFFSET-12 "-"
*MEAS_COND_AXIS_POSITION-0 "65.0000000000"
*MEAS_COND_AXIS_POSITION-1 "0.0000000000"
*MEAS_COND_AXIS_POSITION-2 "3.0000000000"
*MEAS_COND_AXIS_POSITION-3 "5.0deg"
*MEAS_COND_AXIS_POSITION-4 "10.0mm"
*MEAS_COND_AXIS_POSITION-5 "1.250deg"
*MEAS_COND_AXIS_POSITION-6 "1.250deg"
*MEAS_COND_AXIS_POSITION-7 "5.0deg"
*MEAS_COND_AXIS_POSITION-8 "0.3mm"
*MEAS_COND_AXIS_POSITION-9 "None"
*MEAS_COND_AXIS_POSITION-10 "Bent"
*MEAS_COND_AXIS_POSITION-11 "671.5000000000"
*MEAS_COND_AXIS_POSITION-12 "551.2500000000"
*MEAS_COND_AXIS_UNIT-0 "deg"
*MEAS_COND_AXIS_UNIT-1 ""
*MEAS_COND_AXIS_UNIT-2 ""
*MEAS_COND_AXIS_UNIT-3 ""
*MEAS_COND_AXIS_UNIT-4 ""
*MEAS_COND_AXIS_UNIT-5 ""
*MEAS_COND_AXIS_UNIT-6 ""
*MEAS_COND_AXIS_UNIT-7 ""
*MEAS_COND_AXIS_UNIT-8 ""
*MEAS_COND_AXIS_UNIT-9 ""
*MEAS_COND_AXIS_UNIT-10 ""
*MEAS_COND_AXIS_UNIT-11 "V"
*MEAS_COND_AXIS_UNIT-12 "mV"
*MEAS_COND_CORRECTION_SLIT_COUNTERMONO "None"
*MEAS_COND_CORRECTION_SLIT_DS "1.250deg"
*MEAS_COND_CORRECTION_SLIT_FILTER "None"
*MEAS_COND_CORRECTION_SLIT_IHS "10.0mm"
*MEAS_COND_CORRECTION_SLIT_RS "0.3mm"
*MEAS_COND_CORRECTION_SLIT_SOLLER_INC "5.0deg"
*MEAS_COND_CORRECTION_SLIT_SOLLER_REC "5.0deg"
*MEAS_COND_CORRECTION_SLIT_SS "1.250deg"
*MEAS_COND_COUNTER_CNTLOSS_CORR "0.0000000000"
*MEAS_COND_COUNTER_PHABASE "551.2500000000"
*MEAS_COND_COUNTER_PHAWINDOW "926.2500000000"
*MEAS_COND_COUNTER_PHA_UNIT "mV"
*MEAS_COND_COUNTER_TAUDIFF "0.2500000000"
*MEAS_COND_COUNTER_TAUINT "0.7500000000"
*MEAS_COND_IRRADIATION_MODE "OFF"
*MEAS_COND_IRRADIATION_WIDTH ""
*MEAS_COND_OPT_ATTR " "
*MEAS_COND_OPT_NAME ""
*MEAS_COND_UNSYMMETRIC_MODE "OFF"
*MEAS_COND_XG_CURRENT "15.0000000000"
*MEAS_COND_XG_VOLTAGE "40.0000000000"
*MEAS_COND_XG_WAVE_TYPE "Ka"
*MEAS_DATA_COUNT "3001.0000000000"
*MEAS_SCAN_AXIS_X "Theta/2-Theta"
*MEAS_SCAN_AXIS_X_INTERNAL "TwoThetaTheta"
*MEAS_SCAN_END_TIME "06/10/25 17:22:34"
*MEAS_SCAN_MODE "STEP"
*MEAS_SCAN_MONITOR "0"
*MEAS_SCAN_RESOLUTION_X "0.0025"
*MEAS_SCAN_SPEED "2.00"
*MEAS_SCAN_SPEED_UNIT "sec."
*MEAS_SCAN_SPEED_USER "2.00"
*MEAS_SCAN_START "5.0000000000"
*MEAS_SCAN_START_TIME "06/10/25 15:37:18"
*MEAS_SCAN_STEP "0.0200000000"
*MEAS_SCAN_STOP "65.0000000000"
*MEAS_SCAN_UNIT_X "deg"
*MEAS_SCAN_UNIT_Y "counts"
*SLIT_SYSTEM "0"
*RAS_HEADER_END
*RAS_INT_START
5.0000 915.0000 1.0000
5.0200 975.0000 1.0000
5.0400 989.0000 1.0000
5.0600 989.0000 1.0000
5.0800 1044.0000 1.0000
5.1000 937.0000 1.0000
5.1200 904.0000 1.0000
5.1400 876.0000 1.0000
5.1600 1013.0000 1.0000
5.1800 977.0000 1.0000
5.2000 894.0000 1.0000
5.2200 977.0000 1.0000
5.2400 984.0000 1.0000
5.2600 930.0000 1.0000
5.2800 951.0000 1.0000
5.3000 902.0000 1.0000
5.3200 916.0000 1.0000
5.3400 885.0000 1.0000
5.3600 847.0000 1.0000
5.3800 889.0000 1.0000
5.4000 830.0000 1.0000
5.4200 837.0000 1.0000
5.4400 838.0000 1.0000
5.4600 746.0000 1.0000
5.4800 770.0000 1.0000
5.5000 794.0000 1.0000
5.5200 798.0000 1.0000
5.5400 907.0000 1.0000
5.5600 914.0000 1.0000
5.5800 873.0000 1.0000
5.6000 837.0000 1.0000
5.6200 778.0000 1.0000
5.6400 765.0000 1.0000
5.6600 765.0000 1.0000
5.6800 855.0000 1.0000
5.7000 760.0000 1.0000
5.7200 777.0000 1.0000
5.7400 771.0000 1.0000
5.7600 840.0000 1.0000
5.7800 788.0000 1.0000
5.8000 766.0000 1.0000
5.8200 841.0000 1.0000
5.8400 847.0000 1.0000
5.8600 765.0000 1.0000
5.8800 800.0000 1.0000
5.9000 782.0000 1.0000
5.9200 785.0000 1.0000
5.9400 846.0000 1.0000
5.9600 749.0000 1.0000
5.9800 728.0000 1.0000
6.0000 759.0000 1.0000
6.0200 667.0000 1.0000
6.0400 680.0000 1.0000
6.0600 786.0000 1.0000
6.0800 777.0000 1.0000
6.1000 732.0000 1.0000
6.1200 772.0000 1.0000
6.1400 782.0000 1.0000
6.1600 725.0000 1.0000
6.1800 734.0000 1.0000
6.2000 723.0000 1.0000
6.2200 691.0000 1.0000
6.2400 688.0000 1.0000
6.2600 701.0000 1.0000
6.2800 711.0000 1.0000
6.3000 700.0000 1.0000
6.3200 697.0000 1.0000
6.3400 666.0000 1.0000
6.3600 690.0000 1.0000
6.3800 703.0000 1.0000
6.4000 695.0000 1.0000
6.4200 678.0000 1.0000
6.4400 629.0000 1.0000
6.4600 633.0000 1.0000
6.4800 672.0000 1.0000
6.5000 687.0000 1.0000
6.5200 607.0000 1.0000
6.5400 605.0000 1.0000
6.5600 635.0000 1.0000
6.5800 622.0000 1.0000
6.6000 617.0000 1.0000
6.6200 595.0000 1.0000
6.6400 579.0000 1.0000
6.6600 600.0000 1.0000
6.6800 621.0000 1.0000
6.7000 588.0000 1.0000
6.7200 525.0000 1.0000
6.7400 549.0000 1.0000
6.7600 583.0000 1.0000
6.7800 556.0000 1.0000
6.8000 536.0000 1.0000
6.8200 542.0000 1.0000
6.8400 546.0000 1.0000
6.8600 523.0000 1.0000
6.8800 559.0000 1.0000
6.9000 552.0000 1.0000
6.9200 529.0000 1.0000
6.9400 557.0000 1.0000
6.9600 601.0000 1.0000
6.9800 607.0000 1.0000
7.0000 582.0000 1.0000
7.0200 540.0000 1.0000
7.0400 525.0000 1.0000
7.0600 519.0000 1.0000
7.0800 493.0000 1.0000
7.1000 510.0000 1.0000
7.1200 564.0000 1.0000
7.1400 557.0000 1.0000
7.1600 524.0000 1.0000
7.1800 523.0000 1.0000
7.2000 529.0000 1.0000
7.2200 523.0000 1.0000
7.2400 480.0000 1.0000
7.2600 484.0000 1.0000
7.2800 526.0000 1.0000
7.3000 535.0000 1.0000
7.3200 518.0000 1.0000
7.3400 519.0000 1.0000
7.3600 556.0000 1.0000
7.3800 557.0000 1.0000
7.4000 525.0000 1.0000
7.4200 516.0000 1.0000
7.4400 517.0000 1.0000
7.4600 518.0000 1.0000
7.4800 484.0000 1.0000
7.5000 493.0000 1.0000
7.5200 487.0000 1.0000
7.5400 493.0000 1.0000
7.5600 497.0000 1.0000
7.5800 481.0000 1.0000
7.6000 516.0000 1.0000
7.6200 525.0000 1.0000
7.6400 499.0000 1.0000
7.6600 493.0000 1.0000
7.6800 518.0000 1.0000
7.7000 502.0000 1.0000
7.7200 457.0000 1.0000
7.7400 451.0000 1.0000
7.7600 443.0000 1.0000
7.7800 471.0000 1.0000
7.8000 486.0000 1.0000
7.8200 480.0000 1.0000
7.8400 469.0000 1.0000
7.8600 456.0000 1.0000
7.8800 467.0000 1.0000
7.9000 461.0000 1.0000
7.9200 488.0000 1.0000
7.9400 496.0000 1.0000
7.9600 491.0000 1.0000
7.9800 494.0000 1.0000
8.0000 483.0000 1.0000
8.0200 443.0000 1.0000
8.0400 439.0000 1.0000
8.0600 491.0000 1.0000
8.0800 490.0000 1.0000
8.1000 501.0000 1.0000
8.1200 483.0000 1.0000
8.1400 459.0000 1.0000
8.1600 481.0000 1.0000
8.1800 507.0000 1.0000
8.2000 529.0000 1.0000
8.2200 502.0000 1.0000
8.2400 497.0000 1.0000
8.2600 498.0000 1.0000
8.2800 539.0000 1.0000
8.3000 520.0000 1.0000
8.3200 469.0000 1.0000
8.3400 484.0000 1.0000
8.3600 494.0000 1.0000
8.3800 468.0000 1.0000
8.4000 520.0000 1.0000
8.4200 566.0000 1.0000
8.4400 547.0000 1.0000
8.4600 519.0000 1.0000
8.4800 546.0000 1.0000
8.5000 545.0000 1.0000
8.5200 581.0000 1.0000
8.5400 582.0000 1.0000
8.5600 568.0000 1.0000
8.5800 627.0000 1.0000
8.6000 558.0000 1.0000
8.6200 596.0000 1.0000
8.6400 593.0000 1.0000
8.6600 567.0000 1.0000
8.6800 596.0000 1.0000
8.7000 623.0000 1.0000
8.7200 581.0000 1.0000
8.7400 530.0000 1.0000
8.7600 501.0000 1.0000
8.7800 479.0000 1.0000
8.8000 471.0000 1.0000
8.8200 460.0000 1.0000
8.8400 467.0000 1.0000
8.8600 394.0000 1.0000
8.8800 402.0000 1.0000
8.9000 365.0000 1.0000
8.9200 379.0000 1.0000
8.9400 362.0000 1.0000
8.9600 340.0000 1.0000
8.9800 362.0000 1.0000
9.0000 353.0000 1.0000
9.0200 356.0000 1.0000
9.0400 411.0000 1.0000
9.0600 344.0000 1.0000
9.0800 300.0000 1.0000
9.1000 359.0000 1.0000
9.1200 338.0000 1.0000
9.1400 378.0000 1.0000
9.1600 371.0000 1.0000
9.1800 377.0000 1.0000
9.2000 343.0000 1.0000
9.2200 377.0000 1.0000
9.2400 354.0000 1.0000
9.2600 414.0000 1.0000
9.2800 348.0000 1.0000
9.3000 354.0000 1.0000
9.3200 341.0000 1.0000
9.3400 344.0000 1.0000
9.3600 297.0000 1.0000
9.3800 303.0000 1.0000
9.4000 344.0000 1.0000
9.4200 343.0000 1.0000
9.4400 337.0000 1.0000
9.4600 344.0000 1.0000
9.4800 343.0000 1.0000
9.5000 350.0000 1.0000
9.5200 361.0000 1.0000
9.5400 355.0000 1.0000
9.5600 346.0000 1.0000
9.5800 380.0000 1.0000
9.6000 356.0000 1.0000
9.6200 377.0000 1.0000
9.6400 401.0000 1.0000
9.6600 373.0000 1.0000
9.6800 332.0000 1.0000
9.7000 355.0000 1.0000
9.7200 329.0000 1.0000
9.7400 297.0000 1.0000
9.7600 280.0000 1.0000
9.7800 285.0000 1.0000
9.8000 307.0000 1.0000
9.8200 297.0000 1.0000
9.8400 268.0000 1.0000
9.8600 320.0000 1.0000
9.8800 297.0000 1.0000
9.9000 283.0000 1.0000
9.9200 303.0000 1.0000
9.9400 308.0000 1.0000
9.9600 327.0000 1.0000
9.9800 352.0000 1.0000
10.0000 327.0000 1.0000
10.0200 362.0000 1.0000
10.0400 348.0000 1.0000
10.0600 370.0000 1.0000
10.0800 376.0000 1.0000
10.1000 429.0000 1.0000
10.1200 421.0000 1.0000
10.1400 406.0000 1.0000
10.1600 460.0000 1.0000
10.1800 571.0000 1.0000
10.2000 630.0000 1.0000
10.2200 691.0000 1.0000
10.2400 842.0000 1.0000
10.2600 871.0000 1.0000
10.2800 996.0000 1.0000
10.3000 1054.0000 1.0000
10.3200 1212.0000 1.0000
10.3400 1237.0000 1.0000
10.3600 1422.0000 1.0000
10.3800 1334.0000 1.0000
10.4000 1105.0000 1.0000
10.4200 933.0000 1.0000
10.4400 716.0000 1.0000
10.4600 518.0000 1.0000
10.4800 400.0000 1.0000
10.5000 328.0000 1.0000
10.5200 290.0000 1.0000
10.5400 270.0000 1.0000
10.5600 248.0000 1.0000
10.5800 283.0000 1.0000
10.6000 238.0000 1.0000
10.6200 197.0000 1.0000
10.6400 239.0000 1.0000
10.6600 242.0000 1.0000
10.6800 219.0000 1.0000
10.7000 213.0000 1.0000
10.7200 253.0000 1.0000
10.7400 219.0000 1.0000
10.7600 186.0000 1.0000
10.7800 203.0000 1.0000
10.8000 215.0000 1.0000
10.8200 164.0000 1.0000
10.8400 228.0000 1.0000
10.8600 189.0000 1.0000
10.8800 241.0000 1.0000
10.9000 201.0000 1.0000
10.9200 193.0000 1.0000
10.9400 169.0000 1.0000
10.9600 196.0000 1.0000
10.9800 174.0000 1.0000
11.0000 202.0000 1.0000
11.0200 168.0000 1.0000
11.0400 217.0000 1.0000
11.0600 164.0000 1.0000
11.0800 181.0000 1.0000
11.1000 180.0000 1.0000
11.1200 195.0000 1.0000
11.1400 154.0000 1.0000
11.1600 188.0000 1.0000
11.1800 207.0000 1.0000
11.2000 167.0000 1.0000
11.2200 182.0000 1.0000
11.2400 178.0000 1.0000
11.2600 164.0000 1.0000
11.2800 182.0000 1.0000
11.3000 169.0000 1.0000
11.3200 178.0000 1.0000
11.3400 176.0000 1.0000
11.3600 165.0000 1.0000
11.3800 171.0000 1.0000
11.4000 164.0000 1.0000
11.4200 159.0000 1.0000
11.4400 159.0000 1.0000
11.4600 175.0000 1.0000
11.4800 168.0000 1.0000
11.5000 176.0000 1.0000
11.5200 156.0000 1.0000
11.5400 159.0000 1.0000
11.5600 165.0000 1.0000
11.5800 163.0000 1.0000
11.6000 164.0000 1.0000
11.6200 148.0000 1.0000
11.6400 170.0000 1.0000
11.6600 165.0000 1.0000
11.6800 191.0000 1.0000
11.7000 163.0000 1.0000
11.7200 176.0000 1.0000
11.7400 155.0000 1.0000
11.7600 157.0000 1.0000
11.7800 156.0000 1.0000
11.8000 163.0000 1.0000
11.8200 180.0000 1.0000
11.8400 152.0000 1.0000
11.8600 142.0000 1.0000
11.8800 159.0000 1.0000
11.9000 170.0000 1.0000
11.9200 166.0000 1.0000
11.9400 174.0000 1.0000
11.9600 170.0000 1.0000
11.9800 175.0000 1.0000
12.0000 154.0000 1.0000
12.0200 177.0000 1.0000
12.0400 169.0000 1.0000
12.0600 163.0000 1.0000
12.0800 175.0000 1.0000
12.1000 181.0000 1.0000
12.1200 162.0000 1.0000
12.1400 191.0000 1.0000
12.1600 212.0000 1.0000
12.1800 195.0000 1.0000
12.2000 164.0000 1.0000
12.2200 194.0000 1.0000
12.2400 219.0000 1.0000
12.2600 235.0000 1.0000
12.2800 203.0000 1.0000
12.3000 234.0000 1.0000
12.3200 217.0000 1.0000
12.3400 252.0000 1.0000
12.3600 219.0000 1.0000
12.3800 237.0000 1.0000
12.4000 246.0000 1.0000
12.4200 223.0000 1.0000
12.4400 224.0000 1.0000
12.4600 221.0000 1.0000
12.4800 199.0000 1.0000
12.5000 181.0000 1.0000
12.5200 194.0000 1.0000
12.5400 173.0000 1.0000
12.5600 168.0000 1.0000
12.5800 175.0000 1.0000
12.6000 193.0000 1.0000
12.6200 148.0000 1.0000
12.6400 145.0000 1.0000
12.6600 164.0000 1.0000
12.6800 173.0000 1.0000
12.7000 169.0000 1.0000
12.7200 156.0000 1.0000
12.7400 173.0000 1.0000
12.7600 191.0000 1.0000
12.7800 164.0000 1.0000
12.8000 168.0000 1.0000
12.8200 182.0000 1.0000
12.8400 178.0000 1.0000
12.8600 202.0000 1.0000
12.8800 190.0000 1.0000
12.9000 160.0000 1.0000
12.9200 168.0000 1.0000
12.9400 163.0000 1.0000
12.9600 147.0000 1.0000
12.9800 140.0000 1.0000
13.0000 140.0000 1.0000
13.0200 164.0000 1.0000
13.0400 168.0000 1.0000
13.0600 143.0000 1.0000
13.0800 137.0000 1.0000
13.1000 140.0000 1.0000
13.1200 144.0000 1.0000
13.1400 144.0000 1.0000
13.1600 148.0000 1.0000
13.1800 155.0000 1.0000
13.2000 157.0000 1.0000
13.2200 149.0000 1.0000
13.2400 174.0000 1.0000
13.2600 151.0000 1.0000
13.2800 137.0000 1.0000
13.3000 151.0000 1.0000
13.3200 156.0000 1.0000
13.3400 161.0000 1.0000
13.3600 189.0000 1.0000
13.3800 197.0000 1.0000
13.4000 177.0000 1.0000
13.4200 177.0000 1.0000
13.4400 194.0000 1.0000
13.4600 193.0000 1.0000
13.4800 200.0000 1.0000
13.5000 212.0000 1.0000
13.5200 251.0000 1.0000
13.5400 250.0000 1.0000
13.5600 268.0000 1.0000
13.5800 227.0000 1.0000
13.6000 239.0000 1.0000
13.6200 268.0000 1.0000
13.6400 258.0000 1.0000
13.6600 285.0000 1.0000
13.6800 312.0000 1.0000
13.7000 317.0000 1.0000
13.7200 349.0000 1.0000
13.7400 362.0000 1.0000
13.7600 378.0000 1.0000
13.7800 364.0000 1.0000
13.8000 343.0000 1.0000
13.8200 328.0000 1.0000
13.8400 280.0000 1.0000
13.8600 251.0000 1.0000
13.8800 225.0000 1.0000
13.9000 195.0000 1.0000
13.9200 176.0000 1.0000
13.9400 185.0000 1.0000
13.9600 170.0000 1.0000
13.9800 162.0000 1.0000
14.0000 142.0000 1.0000
14.0200 144.0000 1.0000
14.0400 155.0000 1.0000
14.0600 150.0000 1.0000
14.0800 152.0000 1.0000
14.1000 139.0000 1.0000
14.1200 122.0000 1.0000
14.1400 118.0000 1.0000
14.1600 132.0000 1.0000
14.1800 131.0000 1.0000
14.2000 129.0000 1.0000
14.2200 121.0000 1.0000
14.2400 129.0000 1.0000
14.2600 129.0000 1.0000
14.2800 122.0000 1.0000
14.3000 120.0000 1.0000
14.3200 123.0000 1.0000
14.3400 116.0000 1.0000
14.3600 115.0000 1.0000
14.3800 131.0000 1.0000
14.4000 117.0000 1.0000
14.4200 114.0000 1.0000
14.4400 117.0000 1.0000
14.4600 117.0000 1.0000
14.4800 136.0000 1.0000
14.5000 132.0000 1.0000
14.5200 124.0000 1.0000
14.5400 116.0000 1.0000
14.5600 117.0000 1.0000
14.5800 122.0000 1.0000
14.6000 122.0000 1.0000
14.6200 123.0000 1.0000
14.6400 136.0000 1.0000
14.6600 142.0000 1.0000
14.6800 134.0000 1.0000
14.7000 139.0000 1.0000
14.7200 140.0000 1.0000
14.7400 131.0000 1.0000
14.7600 129.0000 1.0000
14.7800 156.0000 1.0000
14.8000 173.0000 1.0000
14.8200 174.0000 1.0000
14.8400 182.0000 1.0000
14.8600 170.0000 1.0000
14.8800 180.0000 1.0000
14.9000 186.0000 1.0000
14.9200 179.0000 1.0000
14.9400 194.0000 1.0000
14.9600 188.0000 1.0000
14.9800 181.0000 1.0000
15.0000 175.0000 1.0000
15.0200 173.0000 1.0000
15.0400 174.0000 1.0000
15.0600 168.0000 1.0000
15.0800 171.0000 1.0000
15.1000 149.0000 1.0000
15.1200 132.0000 1.0000
15.1400 141.0000 1.0000
15.1600 132.0000 1.0000
15.1800 122.0000 1.0000
15.2000 115.0000 1.0000
15.2200 111.0000 1.0000
15.2400 118.0000 1.0000
15.2600 121.0000 1.0000
15.2800 125.0000 1.0000
15.3000 138.0000 1.0000
15.3200 141.0000 1.0000
15.3400 133.0000 1.0000
15.3600 128.0000 1.0000
15.3800 127.0000 1.0000
15.4000 125.0000 1.0000
15.4200 119.0000 1.0000
15.4400 113.0000 1.0000
15.4600 127.0000 1.0000
15.4800 137.0000 1.0000
15.5000 129.0000 1.0000
15.5200 125.0000 1.0000
15.5400 124.0000 1.0000
15.5600 128.0000 1.0000
15.5800 137.0000 1.0000
15.6000 154.0000 1.0000
15.6200 150.0000 1.0000
15.6400 147.0000 1.0000
15.6600 161.0000 1.0000
15.6800 160.0000 1.0000
15.7000 157.0000 1.0000
15.7200 152.0000 1.0000
15.7400 145.0000 1.0000
15.7600 132.0000 1.0000
15.7800 135.0000 1.0000
15.8000 134.0000 1.0000
15.8200 133.0000 1.0000
15.8400 128.0000 1.0000
15.8600 115.0000 1.0000
15.8800 112.0000 1.0000
15.9000 121.0000 1.0000
15.9200 106.0000 1.0000
15.9400 113.0000 1.0000
15.9600 116.0000 1.0000
15.9800 108.0000 1.0000
16.0000 107.0000 1.0000
16.0200 116.0000 1.0000
16.0400 125.0000 1.0000
16.0600 106.0000 1.0000
16.0800 107.0000 1.0000
16.1000 119.0000 1.0000
16.1200 115.0000 1.0000
16.1400 107.0000 1.0000
16.1600 108.0000 1.0000
16.1800 107.0000 1.0000
16.2000 111.0000 1.0000
16.2200 127.0000 1.0000
16.2400 123.0000 1.0000
16.2600 116.0000 1.0000
16.2800 125.0000 1.0000
16.3000 128.0000 1.0000
16.3200 115.0000 1.0000
16.3400 110.0000 1.0000
16.3600 124.0000 1.0000
16.3800 108.0000 1.0000
16.4000 107.0000 1.0000
16.4200 121.0000 1.0000
16.4400 114.0000 1.0000
16.4600 105.0000 1.0000
16.4800 99.0000 1.0000
16.5000 99.0000 1.0000
16.5200 100.0000 1.0000
16.5400 111.0000 1.0000
16.5600 117.0000 1.0000
16.5800 103.0000 1.0000
16.6000 108.0000 1.0000
16.6200 106.0000 1.0000
16.6400 105.0000 1.0000
16.6600 94.0000 1.0000
16.6800 110.0000 1.0000
16.7000 111.0000 1.0000
16.7200 108.0000 1.0000
16.7400 124.0000 1.0000
16.7600 111.0000 1.0000
16.7800 111.0000 1.0000
16.8000 126.0000 1.0000
16.8200 121.0000 1.0000
16.8400 129.0000 1.0000
16.8600 133.0000 1.0000
16.8800 132.0000 1.0000
16.9000 131.0000 1.0000
16.9200 122.0000 1.0000
16.9400 112.0000 1.0000
16.9600 114.0000 1.0000
16.9800 103.0000 1.0000
17.0000 104.0000 1.0000
17.0200 120.0000 1.0000
17.0400 108.0000 1.0000
17.0600 119.0000 1.0000
17.0800 123.0000 1.0000
17.1000 126.0000 1.0000
17.1200 113.0000 1.0000
17.1400 126.0000 1.0000
17.1600 133.0000 1.0000
17.1800 122.0000 1.0000
17.2000 134.0000 1.0000
17.2200 135.0000 1.0000
17.2400 148.0000 1.0000
17.2600 139.0000 1.0000
17.2800 151.0000 1.0000
17.3000 152.0000 1.0000
17.3200 133.0000 1.0000
17.3400 118.0000 1.0000
17.3600 126.0000 1.0000
17.3800 119.0000 1.0000
17.4000 141.0000 1.0000
17.4200 131.0000 1.0000
17.4400 135.0000 1.0000
17.4600 144.0000 1.0000
17.4800 138.0000 1.0000
17.5000 130.0000 1.0000
17.5200 143.0000 1.0000
17.5400 139.0000 1.0000
17.5600 163.0000 1.0000
17.5800 142.0000 1.0000
17.6000 149.0000 1.0000
17.6200 145.0000 1.0000
17.6400 144.0000 1.0000
17.6600 127.0000 1.0000
17.6800 146.0000 1.0000
17.7000 151.0000 1.0000
17.7200 149.0000 1.0000
17.7400 142.0000 1.0000
17.7600 161.0000 1.0000
17.7800 140.0000 1.0000
17.8000 138.0000 1.0000
17.8200 157.0000 1.0000
17.8400 166.0000 1.0000
17.8600 151.0000 1.0000
17.8800 175.0000 1.0000
17.9000 164.0000 1.0000
17.9200 175.0000 1.0000
17.9400 171.0000 1.0000
17.9600 171.0000 1.0000
17.9800 158.0000 1.0000
18.0000 156.0000 1.0000
18.0200 152.0000 1.0000
18.0400 151.0000 1.0000
18.0600 129.0000 1.0000
18.0800 123.0000 1.0000
18.1000 126.0000 1.0000
18.1200 141.0000 1.0000
18.1400 128.0000 1.0000
18.1600 150.0000 1.0000
18.1800 125.0000 1.0000
18.2000 110.0000 1.0000
18.2200 120.0000 1.0000
18.2400 132.0000 1.0000
18.2600 120.0000 1.0000
18.2800 121.0000 1.0000
18.3000 122.0000 1.0000
18.3200 116.0000 1.0000
18.3400 125.0000 1.0000
18.3600 127.0000 1.0000
18.3800 129.0000 1.0000
18.4000 123.0000 1.0000
18.4200 126.0000 1.0000
18.4400 136.0000 1.0000
18.4600 154.0000 1.0000
18.4800 151.0000 1.0000
18.5000 134.0000 1.0000
18.5200 137.0000 1.0000
18.5400 152.0000 1.0000
18.5600 145.0000 1.0000
18.5800 130.0000 1.0000
18.6000 141.0000 1.0000
18.6200 144.0000 1.0000
18.6400 141.0000 1.0000
18.6600 161.0000 1.0000
18.6800 160.0000 1.0000
18.7000 135.0000 1.0000
18.7200 149.0000 1.0000
18.7400 157.0000 1.0000
18.7600 129.0000 1.0000
18.7800 146.0000 1.0000
18.8000 169.0000 1.0000
18.8200 146.0000 1.0000
18.8400 158.0000 1.0000
18.8600 185.0000 1.0000
18.8800 178.0000 1.0000
18.9000 152.0000 1.0000
18.9200 159.0000 1.0000
18.9400 155.0000 1.0000
18.9600 138.0000 1.0000
18.9800 138.0000 1.0000
19.0000 134.0000 1.0000
19.0200 158.0000 1.0000
19.0400 138.0000 1.0000
19.0600 148.0000 1.0000
19.0800 161.0000 1.0000
19.1000 149.0000 1.0000
19.1200 149.0000 1.0000
19.1400 163.0000 1.0000
19.1600 143.0000 1.0000
19.1800 173.0000 1.0000
19.2000 157.0000 1.0000
19.2200 174.0000 1.0000
19.2400 161.0000 1.0000
19.2600 177.0000 1.0000
19.2800 166.0000 1.0000
19.3000 148.0000 1.0000
19.3200 187.0000 1.0000
19.3400 201.0000 1.0000
19.3600 181.0000 1.0000
19.3800 202.0000 1.0000
19.4000 205.0000 1.0000
19.4200 233.0000 1.0000
19.4400 205.0000 1.0000
19.4600 241.0000 1.0000
19.4800 270.0000 1.0000
19.5000 247.0000 1.0000
19.5200 262.0000 1.0000
19.5400 263.0000 1.0000
19.5600 233.0000 1.0000
19.5800 237.0000 1.0000
19.6000 253.0000 1.0000
19.6200 248.0000 1.0000
19.6400 264.0000 1.0000
19.6600 258.0000 1.0000
19.6800 254.0000 1.0000
19.7000 241.0000 1.0000
19.7200 254.0000 1.0000
19.7400 254.0000 1.0000
19.7600 235.0000 1.0000
19.7800 264.0000 1.0000
19.8000 230.0000 1.0000
19.8200 231.0000 1.0000
19.8400 244.0000 1.0000
19.8600 254.0000 1.0000
19.8800 237.0000 1.0000
19.9000 208.0000 1.0000
19.9200 203.0000 1.0000
19.9400 229.0000 1.0000
19.9600 204.0000 1.0000
19.9800 204.0000 1.0000
20.0000 185.0000 1.0000
20.0200 183.0000 1.0000
20.0400 192.0000 1.0000
20.0600 200.0000 1.0000
20.0800 193.0000 1.0000
20.1000 173.0000 1.0000
20.1200 167.0000 1.0000
20.1400 182.0000 1.0000
20.1600 213.0000 1.0000
20.1800 179.0000 1.0000
20.2000 198.0000 1.0000
20.2200 184.0000 1.0000
20.2400 177.0000 1.0000
20.2600 192.0000 1.0000
20.2800 190.0000 1.0000
20.3000 204.0000 1.0000
20.3200 197.0000 1.0000
20.3400 212.0000 1.0000
20.3600 226.0000 1.0000
20.3800 212.0000 1.0000
20.4000 235.0000 1.0000
20.4200 241.0000 1.0000
20.4400 248.0000 1.0000
20.4600 252.0000 1.0000
20.4800 277.0000 1.0000
20.5000 292.0000 1.0000
20.5200 285.0000 1.0000
20.5400 378.0000 1.0000
20.5600 383.0000 1.0000
20.5800 444.0000 1.0000
20.6000 488.0000 1.0000
20.6200 626.0000 1.0000
20.6400 659.0000 1.0000
20.6600 785.0000 1.0000
20.6800 1061.0000 1.0000
20.7000 1201.0000 1.0000
20.7200 1457.0000 1.0000
20.7400 1617.0000 1.0000
20.7600 1757.0000 1.0000
20.7800 1872.0000 1.0000
20.8000 1765.0000 1.0000
20.8200 1605.0000 1.0000
20.8400 1343.0000 1.0000
20.8600 969.0000 1.0000
20.8800 740.0000 1.0000
20.9000 604.0000 1.0000
20.9200 490.0000 1.0000
20.9400 391.0000 1.0000
20.9600 315.0000 1.0000
20.9800 321.0000 1.0000
21.0000 321.0000 1.0000
21.0200 307.0000 1.0000
21.0400 276.0000 1.0000
21.0600 238.0000 1.0000
21.0800 222.0000 1.0000
21.1000 213.0000 1.0000
21.1200 215.0000 1.0000
21.1400 203.0000 1.0000
21.1600 215.0000 1.0000
21.1800 197.0000 1.0000
21.2000 216.0000 1.0000
21.2200 209.0000 1.0000
21.2400 216.0000 1.0000
21.2600 198.0000 1.0000
21.2800 184.0000 1.0000
21.3000 203.0000 1.0000
21.3200 203.0000 1.0000
21.3400 198.0000 1.0000
21.3600 192.0000 1.0000
21.3800 219.0000 1.0000
21.4000 189.0000 1.0000
21.4200 179.0000 1.0000
21.4400 192.0000 1.0000
21.4600 219.0000 1.0000
21.4800 210.0000 1.0000
21.5000 177.0000 1.0000
21.5200 176.0000 1.0000
21.5400 181.0000 1.0000
21.5600 195.0000 1.0000
21.5800 215.0000 1.0000
21.6000 221.0000 1.0000
21.6200 240.0000 1.0000
21.6400 232.0000 1.0000
21.6600 262.0000 1.0000
21.6800 282.0000 1.0000
21.7000 297.0000 1.0000
21.7200 348.0000 1.0000
21.7400 402.0000 1.0000
21.7600 457.0000 1.0000
21.7800 543.0000 1.0000
21.8000 606.0000 1.0000
21.8200 756.0000 1.0000
21.8400 860.0000 1.0000
21.8600 956.0000 1.0000
21.8800 1165.0000 1.0000
21.9000 1209.0000 1.0000
21.9200 1247.0000 1.0000
21.9400 1185.0000 1.0000
21.9600 1093.0000 1.0000
21.9800 931.0000 1.0000
22.0000 742.0000 1.0000
22.0200 597.0000 1.0000
22.0400 431.0000 1.0000
22.0600 371.0000 1.0000
22.0800 321.0000 1.0000
22.1000 261.0000 1.0000
22.1200 234.0000 1.0000
22.1400 206.0000 1.0000
22.1600 233.0000 1.0000
22.1800 206.0000 1.0000
22.2000 207.0000 1.0000
22.2200 198.0000 1.0000
22.2400 218.0000 1.0000
22.2600 204.0000 1.0000
22.2800 214.0000 1.0000
22.3000 187.0000 1.0000
22.3200 198.0000 1.0000
22.3400 193.0000 1.0000
22.3600 195.0000 1.0000
22.3800 178.0000 1.0000
22.4000 199.0000 1.0000
22.4200 203.0000 1.0000
22.4400 218.0000 1.0000
22.4600 190.0000 1.0000
22.4800 189.0000 1.0000
22.5000 182.0000 1.0000
22.5200 183.0000 1.0000
22.5400 189.0000 1.0000
22.5600 211.0000 1.0000
22.5800 207.0000 1.0000
22.6000 243.0000 1.0000
22.6200 222.0000 1.0000
22.6400 197.0000 1.0000
22.6600 217.0000 1.0000
22.6800 241.0000 1.0000
22.7000 258.0000 1.0000
22.7200 246.0000 1.0000
22.7400 261.0000 1.0000
22.7600 314.0000 1.0000
22.7800 330.0000 1.0000
22.8000 336.0000 1.0000
22.8200 351.0000 1.0000
22.8400 347.0000 1.0000
22.8600 362.0000 1.0000
22.8800 352.0000 1.0000
22.9000 332.0000 1.0000
22.9200 325.0000 1.0000
22.9400 293.0000 1.0000
22.9600 301.0000 1.0000
22.9800 288.0000 1.0000
23.0000 237.0000 1.0000
23.0200 244.0000 1.0000
23.0400 206.0000 1.0000
23.0600 194.0000 1.0000
23.0800 239.0000 1.0000
23.1000 225.0000 1.0000
23.1200 199.0000 1.0000
23.1400 217.0000 1.0000
23.1600 215.0000 1.0000
23.1800 252.0000 1.0000
23.2000 253.0000 1.0000
23.2200 265.0000 1.0000
23.2400 266.0000 1.0000
23.2600 239.0000 1.0000
23.2800 251.0000 1.0000
23.3000 245.0000 1.0000
23.3200 271.0000 1.0000
23.3400 303.0000 1.0000
23.3600 353.0000 1.0000
23.3800 364.0000 1.0000
23.4000 396.0000 1.0000
23.4200 449.0000 1.0000
23.4400 505.0000 1.0000
23.4600 607.0000 1.0000
23.4800 657.0000 1.0000
23.5000 683.0000 1.0000
23.5200 718.0000 1.0000
23.5400 737.0000 1.0000
23.5600 774.0000 1.0000
23.5800 690.0000 1.0000
23.6000 623.0000 1.0000
23.6200 544.0000 1.0000
23.6400 489.0000 1.0000
23.6600 411.0000 1.0000
23.6800 447.0000 1.0000
23.7000 418.0000 1.0000
23.7200 379.0000 1.0000
23.7400 411.0000 1.0000
23.7600 443.0000 1.0000
23.7800 475.0000 1.0000
23.8000 516.0000 1.0000
23.8200 526.0000 1.0000
23.8400 529.0000 1.0000
23.8600 507.0000 1.0000
23.8800 510.0000 1.0000
23.9000 476.0000 1.0000
23.9200 440.0000 1.0000
23.9400 450.0000 1.0000
23.9600 461.0000 1.0000
23.9800 453.0000 1.0000
24.0000 465.0000 1.0000
24.0200 483.0000 1.0000
24.0400 465.0000 1.0000
24.0600 505.0000 1.0000
24.0800 546.0000 1.0000
24.1000 566.0000 1.0000
24.1200 574.0000 1.0000
24.1400 581.0000 1.0000
24.1600 582.0000 1.0000
24.1800 641.0000 1.0000
24.2000 688.0000 1.0000
24.2200 688.0000 1.0000
24.2400 675.0000 1.0000
24.2600 610.0000 1.0000
24.2800 596.0000 1.0000
24.3000 536.0000 1.0000
24.3200 473.0000 1.0000
24.3400 449.0000 1.0000
24.3600 373.0000 1.0000
24.3800 320.0000 1.0000
24.4000 313.0000 1.0000
24.4200 299.0000 1.0000
24.4400 262.0000 1.0000
24.4600 266.0000 1.0000
24.4800 231.0000 1.0000
24.5000 215.0000 1.0000
24.5200 211.0000 1.0000
24.5400 208.0000 1.0000
24.5600 201.0000 1.0000
24.5800 195.0000 1.0000
24.6000 195.0000 1.0000
24.6200 198.0000 1.0000
24.6400 182.0000 1.0000
24.6600 171.0000 1.0000
24.6800 171.0000 1.0000
24.7000 169.0000 1.0000
24.7200 178.0000 1.0000
24.7400 184.0000 1.0000
24.7600 180.0000 1.0000
24.7800 179.0000 1.0000
24.8000 177.0000 1.0000
24.8200 181.0000 1.0000
24.8400 187.0000 1.0000
24.8600 172.0000 1.0000
24.8800 164.0000 1.0000
24.9000 180.0000 1.0000
24.9200 170.0000 1.0000
24.9400 204.0000 1.0000
24.9600 208.0000 1.0000
24.9800 207.0000 1.0000
25.0000 207.0000 1.0000
25.0200 216.0000 1.0000
25.0400 224.0000 1.0000
25.0600 210.0000 1.0000
25.0800 215.0000 1.0000
25.1000 228.0000 1.0000
25.1200 239.0000 1.0000
25.1400 259.0000 1.0000
25.1600 276.0000 1.0000
25.1800 288.0000 1.0000
25.2000 322.0000 1.0000
25.2200 310.0000 1.0000
25.2400 331.0000 1.0000
25.2600 367.0000 1.0000
25.2800 396.0000 1.0000
25.3000 469.0000 1.0000
25.3200 538.0000 1.0000
25.3400 603.0000 1.0000
25.3600 700.0000 1.0000
25.3800 819.0000 1.0000
25.4000 992.0000 1.0000
25.4200 1108.0000 1.0000
25.4400 1237.0000 1.0000
25.4600 1330.0000 1.0000
25.4800 1426.0000 1.0000
25.5000 1438.0000 1.0000
25.5200 1342.0000 1.0000
25.5400 1202.0000 1.0000
25.5600 1023.0000 1.0000
25.5800 838.0000 1.0000
25.6000 703.0000 1.0000
25.6200 603.0000 1.0000
25.6400 492.0000 1.0000
25.6600 394.0000 1.0000
25.6800 341.0000 1.0000
25.7000 339.0000 1.0000
25.7200 330.0000 1.0000
25.7400 309.0000 1.0000
25.7600 306.0000 1.0000
25.7800 304.0000 1.0000
25.8000 307.0000 1.0000
25.8200 301.0000 1.0000
25.8400 280.0000 1.0000
25.8600 283.0000 1.0000
25.8800 284.0000 1.0000
25.9000 306.0000 1.0000
25.9200 297.0000 1.0000
25.9400 303.0000 1.0000
25.9600 322.0000 1.0000
25.9800 326.0000 1.0000
26.0000 353.0000 1.0000
26.0200 399.0000 1.0000
26.0400 410.0000 1.0000
26.0600 434.0000 1.0000
26.0800 470.0000 1.0000
26.1000 514.0000 1.0000
26.1200 541.0000 1.0000
26.1400 566.0000 1.0000
26.1600 609.0000 1.0000
26.1800 626.0000 1.0000
26.2000 669.0000 1.0000
26.2200 743.0000 1.0000
26.2400 835.0000 1.0000
26.2600 982.0000 1.0000
26.2800 1060.0000 1.0000
26.3000 1150.0000 1.0000
26.3200 1287.0000 1.0000
26.3400 1442.0000 1.0000
26.3600 1711.0000 1.0000
26.3800 2030.0000 1.0000
26.4000 2404.0000 1.0000
26.4200 2919.0000 1.0000
26.4400 3630.0000 1.0000
26.4600 4619.0000 1.0000
26.4800 5619.0000 1.0000
26.5000 6743.0000 1.0000
26.5200 7830.0000 1.0000
26.5400 8427.0000 1.0000
26.5600 8618.0000 1.0000
26.5800 8287.0000 1.0000
26.6000 7311.0000 1.0000
26.6200 5878.0000 1.0000
26.6400 4414.0000 1.0000
26.6600 3235.0000 1.0000
26.6800 2339.0000 1.0000
26.7000 1642.0000 1.0000
26.7200 1148.0000 1.0000
26.7400 898.0000 1.0000
26.7600 789.0000 1.0000
26.7800 708.0000 1.0000
26.8000 657.0000 1.0000
26.8200 609.0000 1.0000
26.8400 597.0000 1.0000
26.8600 590.0000 1.0000
26.8800 588.0000 1.0000
26.9000 594.0000 1.0000
26.9200 578.0000 1.0000
26.9400 580.0000 1.0000
26.9600 579.0000 1.0000
26.9800 574.0000 1.0000
27.0000 580.0000 1.0000
27.0200 547.0000 1.0000
27.0400 509.0000 1.0000
27.0600 487.0000 1.0000
27.0800 457.0000 1.0000
27.1000 457.0000 1.0000
27.1200 428.0000 1.0000
27.1400 433.0000 1.0000
27.1600 421.0000 1.0000
27.1800 379.0000 1.0000
27.2000 377.0000 1.0000
27.2200 380.0000 1.0000
27.2400 405.0000 1.0000
27.2600 450.0000 1.0000
27.2800 471.0000 1.0000
27.3000 487.0000 1.0000
27.3200 527.0000 1.0000
27.3400 551.0000 1.0000
27.3600 604.0000 1.0000
27.3800 667.0000 1.0000
27.4000 711.0000 1.0000
27.4200 733.0000 1.0000
27.4400 739.0000 1.0000
27.4600 757.0000 1.0000
27.4800 779.0000 1.0000
27.5000 784.0000 1.0000
27.5200 808.0000 1.0000
27.5400 873.0000 1.0000
27.5600 959.0000 1.0000
27.5800 1075.0000 1.0000
27.6000 1221.0000 1.0000
27.6200 1429.0000 1.0000
27.6400 1639.0000 1.0000
27.6600 1863.0000 1.0000
27.6800 2112.0000 1.0000
27.7000 2252.0000 1.0000
27.7200 2373.0000 1.0000
27.7400 2426.0000 1.0000
27.7600 2467.0000 1.0000
27.7800 2473.0000 1.0000
27.8000 2464.0000 1.0000
27.8200 2487.0000 1.0000
27.8400 2456.0000 1.0000
27.8600 2489.0000 1.0000
27.8800 2462.0000 1.0000
27.9000 2444.0000 1.0000
27.9200 2384.0000 1.0000
27.9400 2243.0000 1.0000
27.9600 2035.0000 1.0000
27.9800 1783.0000 1.0000
28.0000 1507.0000 1.0000
28.0200 1227.0000 1.0000
28.0400 1047.0000 1.0000
28.0600 938.0000 1.0000
28.0800 873.0000 1.0000
28.1000 762.0000 1.0000
28.1200 674.0000 1.0000
28.1400 699.0000 1.0000
28.1600 740.0000 1.0000
28.1800 754.0000 1.0000
28.2000 751.0000 1.0000
28.2200 764.0000 1.0000
28.2400 749.0000 1.0000
28.2600 748.0000 1.0000
28.2800 746.0000 1.0000
28.3000 708.0000 1.0000
28.3200 670.0000 1.0000
28.3400 638.0000 1.0000
28.3600 649.0000 1.0000
28.3800 613.0000 1.0000
28.4000 541.0000 1.0000
28.4200 497.0000 1.0000
28.4400 460.0000 1.0000
28.4600 430.0000 1.0000
28.4800 397.0000 1.0000
28.5000 334.0000 1.0000
28.5200 294.0000 1.0000
28.5400 295.0000 1.0000
28.5600 259.0000 1.0000
28.5800 208.0000 1.0000
28.6000 202.0000 1.0000
28.6200 207.0000 1.0000
28.6400 210.0000 1.0000
28.6600 209.0000 1.0000
28.6800 193.0000 1.0000
28.7000 169.0000 1.0000
28.7200 179.0000 1.0000
28.7400 177.0000 1.0000
28.7600 167.0000 1.0000
28.7800 171.0000 1.0000
28.8000 156.0000 1.0000
28.8200 161.0000 1.0000
28.8400 176.0000 1.0000
28.8600 182.0000 1.0000
28.8800 176.0000 1.0000
28.9000 175.0000 1.0000
28.9200 176.0000 1.0000
28.9400 172.0000 1.0000
28.9600 167.0000 1.0000
28.9800 168.0000 1.0000
29.0000 173.0000 1.0000
29.0200 174.0000 1.0000
29.0400 171.0000 1.0000
29.0600 173.0000 1.0000
29.0800 175.0000 1.0000
29.1000 169.0000 1.0000
29.1200 175.0000 1.0000
29.1400 176.0000 1.0000
29.1600 173.0000 1.0000
29.1800 173.0000 1.0000
29.2000 178.0000 1.0000
29.2200 194.0000 1.0000
29.2400 192.0000 1.0000
29.2600 203.0000 1.0000
29.2800 207.0000 1.0000
29.3000 205.0000 1.0000
29.3200 210.0000 1.0000
29.3400 212.0000 1.0000
29.3600 237.0000 1.0000
29.3800 268.0000 1.0000
29.4000 269.0000 1.0000
29.4200 254.0000 1.0000
29.4400 239.0000 1.0000
29.4600 243.0000 1.0000
29.4800 264.0000 1.0000
29.5000 297.0000 1.0000
29.5200 295.0000 1.0000
29.5400 301.0000 1.0000
29.5600 319.0000 1.0000
29.5800 337.0000 1.0000
29.6000 356.0000 1.0000
29.6200 399.0000 1.0000
29.6400 407.0000 1.0000
29.6600 443.0000 1.0000
29.6800 482.0000 1.0000
29.7000 511.0000 1.0000
29.7200 501.0000 1.0000
29.7400 479.0000 1.0000
29.7600 477.0000 1.0000
29.7800 474.0000 1.0000
29.8000 447.0000 1.0000
29.8200 410.0000 1.0000
29.8400 406.0000 1.0000
29.8600 409.0000 1.0000
29.8800 403.0000 1.0000
29.9000 376.0000 1.0000
29.9200 369.0000 1.0000
29.9400 348.0000 1.0000
29.9600 356.0000 1.0000
29.9800 373.0000 1.0000
30.0000 382.0000 1.0000
30.0200 384.0000 1.0000
30.0400 404.0000 1.0000
30.0600 386.0000 1.0000
30.0800 398.0000 1.0000
30.1000 438.0000 1.0000
30.1200 470.0000 1.0000
30.1400 463.0000 1.0000
30.1600 469.0000 1.0000
30.1800 495.0000 1.0000
30.2000 527.0000 1.0000
30.2200 564.0000 1.0000
30.2400 601.0000 1.0000
30.2600 645.0000 1.0000
30.2800 628.0000 1.0000
30.3000 631.0000 1.0000
30.3200 650.0000 1.0000
30.3400 644.0000 1.0000
30.3600 655.0000 1.0000
30.3800 629.0000 1.0000
30.4000 655.0000 1.0000
30.4200 573.0000 1.0000
30.4400 536.0000 1.0000
30.4600 471.0000 1.0000
30.4800 389.0000 1.0000
30.5000 346.0000 1.0000
30.5200 320.0000 1.0000
30.5400 318.0000 1.0000
30.5600 280.0000 1.0000
30.5800 263.0000 1.0000
30.6000 249.0000 1.0000
30.6200 277.0000 1.0000
30.6400 273.0000 1.0000
30.6600 293.0000 1.0000
30.6800 300.0000 1.0000
30.7000 288.0000 1.0000
30.7200 261.0000 1.0000
30.7400 286.0000 1.0000
30.7600 292.0000 1.0000
30.7800 268.0000 1.0000
30.8000 234.0000 1.0000
30.8200 256.0000 1.0000
30.8400 234.0000 1.0000
30.8600 212.0000 1.0000
30.8800 210.0000 1.0000
30.9000 214.0000 1.0000
30.9200 199.0000 1.0000
30.9400 182.0000 1.0000
30.9600 178.0000 1.0000
30.9800 189.0000 1.0000
31.0000 188.0000 1.0000
31.0200 175.0000 1.0000
31.0400 185.0000 1.0000
31.0600 191.0000 1.0000
31.0800 193.0000 1.0000
31.1000 195.0000 1.0000
31.1200 200.0000 1.0000
31.1400 200.0000 1.0000
31.1600 220.0000 1.0000
31.1800 260.0000 1.0000
31.2000 250.0000 1.0000
31.2200 281.0000 1.0000
31.2400 281.0000 1.0000
31.2600 297.0000 1.0000
31.2800 303.0000 1.0000
31.3000 314.0000 1.0000
31.3200 346.0000 1.0000
31.3400 338.0000 1.0000
31.3600 329.0000 1.0000
31.3800 316.0000 1.0000
31.4000 273.0000 1.0000
31.4200 276.0000 1.0000
31.4400 276.0000 1.0000
31.4600 244.0000 1.0000
31.4800 243.0000 1.0000
31.5000 264.0000 1.0000
31.5200 228.0000 1.0000
31.5400 194.0000 1.0000
31.5600 206.0000 1.0000
31.5800 207.0000 1.0000
31.6000 216.0000 1.0000
31.6200 223.0000 1.0000
31.6400 199.0000 1.0000
31.6600 207.0000 1.0000
31.6800 224.0000 1.0000
31.7000 196.0000 1.0000
31.7200 185.0000 1.0000
31.7400 186.0000 1.0000
31.7600 167.0000 1.0000
31.7800 174.0000 1.0000
31.8000 184.0000 1.0000
31.8200 165.0000 1.0000
31.8400 158.0000 1.0000
31.8600 149.0000 1.0000
31.8800 159.0000 1.0000
31.9000 174.0000 1.0000
31.9200 164.0000 1.0000
31.9400 170.0000 1.0000
31.9600 151.0000 1.0000
31.9800 136.0000 1.0000
32.0000 140.0000 1.0000
32.0200 164.0000 1.0000
32.0400 177.0000 1.0000
32.0600 167.0000 1.0000
32.0800 138.0000 1.0000
32.1000 160.0000 1.0000
32.1200 180.0000 1.0000
32.1400 158.0000 1.0000
32.1600 184.0000 1.0000
32.1800 174.0000 1.0000
32.2000 179.0000 1.0000
32.2200 172.0000 1.0000
32.2400 194.0000 1.0000
32.2600 182.0000 1.0000
32.2800 181.0000 1.0000
32.3000 169.0000 1.0000
32.3200 193.0000 1.0000
32.3400 189.0000 1.0000
32.3600 190.0000 1.0000
32.3800 192.0000 1.0000
32.4000 215.0000 1.0000
32.4200 225.0000 1.0000
32.4400 260.0000 1.0000
32.4600 257.0000 1.0000
32.4800 255.0000 1.0000
32.5000 249.0000 1.0000
32.5200 249.0000 1.0000
32.5400 231.0000 1.0000
32.5600 197.0000 1.0000
32.5800 233.0000 1.0000
32.6000 236.0000 1.0000
32.6200 216.0000 1.0000
32.6400 221.0000 1.0000
32.6600 226.0000 1.0000
32.6800 230.0000 1.0000
32.7000 275.0000 1.0000
32.7200 293.0000 1.0000
32.7400 330.0000 1.0000
32.7600 338.0000 1.0000
32.7800 373.0000 1.0000
32.8000 371.0000 1.0000
32.8200 397.0000 1.0000
32.8400 374.0000 1.0000
32.8600 367.0000 1.0000
32.8800 373.0000 1.0000
32.9000 329.0000 1.0000
32.9200 308.0000 1.0000
32.9400 285.0000 1.0000
32.9600 268.0000 1.0000
32.9800 213.0000 1.0000
33.0000 210.0000 1.0000
33.0200 208.0000 1.0000
33.0400 199.0000 1.0000
33.0600 159.0000 1.0000
33.0800 169.0000 1.0000
33.1000 151.0000 1.0000
33.1200 164.0000 1.0000
33.1400 152.0000 1.0000
33.1600 147.0000 1.0000
33.1800 144.0000 1.0000
33.2000 146.0000 1.0000
33.2200 130.0000 1.0000
33.2400 149.0000 1.0000
33.2600 138.0000 1.0000
33.2800 141.0000 1.0000
33.3000 138.0000 1.0000
33.3200 136.0000 1.0000
33.3400 138.0000 1.0000
33.3600 121.0000 1.0000
33.3800 137.0000 1.0000
33.4000 119.0000 1.0000
33.4200 124.0000 1.0000
33.4400 116.0000 1.0000
33.4600 135.0000 1.0000
33.4800 145.0000 1.0000
33.5000 143.0000 1.0000
33.5200 152.0000 1.0000
33.5400 164.0000 1.0000
33.5600 179.0000 1.0000
33.5800 156.0000 1.0000
33.6000 198.0000 1.0000
33.6200 176.0000 1.0000
33.6400 190.0000 1.0000
33.6600 218.0000 1.0000
33.6800 221.0000 1.0000
33.7000 226.0000 1.0000
33.7200 288.0000 1.0000
33.7400 264.0000 1.0000
33.7600 268.0000 1.0000
33.7800 240.0000 1.0000
33.8000 275.0000 1.0000
33.8200 251.0000 1.0000
33.8400 301.0000 1.0000
33.8600 262.0000 1.0000
33.8800 257.0000 1.0000
33.9000 222.0000 1.0000
33.9200 213.0000 1.0000
33.9400 206.0000 1.0000
33.9600 204.0000 1.0000
33.9800 220.0000 1.0000
34.0000 201.0000 1.0000
34.0200 200.0000 1.0000
34.0400 211.0000 1.0000
34.0600 200.0000 1.0000
34.0800 217.0000 1.0000
34.1000 209.0000 1.0000
34.1200 215.0000 1.0000
34.1400 248.0000 1.0000
34.1600 274.0000 1.0000
34.1800 297.0000 1.0000
34.2000 273.0000 1.0000
34.2200 276.0000 1.0000
34.2400 329.0000 1.0000
34.2600 335.0000 1.0000
34.2800 309.0000 1.0000
34.3000 348.0000 1.0000
34.3200 335.0000 1.0000
34.3400 325.0000 1.0000
34.3600 338.0000 1.0000
34.3800 300.0000 1.0000
34.4000 327.0000 1.0000
34.4200 297.0000 1.0000
34.4400 271.0000 1.0000
34.4600 319.0000 1.0000
34.4800 258.0000 1.0000
34.5000 272.0000 1.0000
34.5200 276.0000 1.0000
34.5400 245.0000 1.0000
34.5600 255.0000 1.0000
34.5800 266.0000 1.0000
34.6000 267.0000 1.0000
34.6200 314.0000 1.0000
34.6400 299.0000 1.0000
34.6600 327.0000 1.0000
34.6800 301.0000 1.0000
34.7000 317.0000 1.0000
34.7200 345.0000 1.0000
34.7400 369.0000 1.0000
34.7600 423.0000 1.0000
34.7800 400.0000 1.0000
34.8000 429.0000 1.0000
34.8200 456.0000 1.0000
34.8400 462.0000 1.0000
34.8600 519.0000 1.0000
34.8800 580.0000 1.0000
34.9000 686.0000 1.0000
34.9200 748.0000 1.0000
34.9400 874.0000 1.0000
34.9600 987.0000 1.0000
34.9800 1191.0000 1.0000
35.0000 1371.0000 1.0000
35.0200 1571.0000 1.0000
35.0400 1780.0000 1.0000
35.0600 1927.0000 1.0000
35.0800 1882.0000 1.0000
35.1000 1787.0000 1.0000
35.1200 1717.0000 1.0000
35.1400 1520.0000 1.0000
35.1600 1317.0000 1.0000
35.1800 1159.0000 1.0000
35.2000 970.0000 1.0000
35.2200 854.0000 1.0000
35.2400 698.0000 1.0000
35.2600 617.0000 1.0000
35.2800 607.0000 1.0000
35.3000 562.0000 1.0000
35.3200 572.0000 1.0000
35.3400 509.0000 1.0000
35.3600 511.0000 1.0000
35.3800 496.0000 1.0000
35.4000 482.0000 1.0000
35.4200 447.0000 1.0000
35.4400 417.0000 1.0000
35.4600 433.0000 1.0000
35.4800 412.0000 1.0000
35.5000 395.0000 1.0000
35.5200 364.0000 1.0000
35.5400 378.0000 1.0000
35.5600 361.0000 1.0000
35.5800 340.0000 1.0000
35.6000 345.0000 1.0000
35.6200 323.0000 1.0000
35.6400 284.0000 1.0000
35.6600 305.0000 1.0000
35.6800 282.0000 1.0000
35.7000 306.0000 1.0000
35.7200 268.0000 1.0000
35.7400 234.0000 1.0000
35.7600 242.0000 1.0000
35.7800 255.0000 1.0000
35.8000 232.0000 1.0000
35.8200 238.0000 1.0000
35.8400 237.0000 1.0000
35.8600 254.0000 1.0000
35.8800 209.0000 1.0000
35.9000 217.0000 1.0000
35.9200 243.0000 1.0000
35.9400 236.0000 1.0000
35.9600 223.0000 1.0000
35.9800 253.0000 1.0000
36.0000 261.0000 1.0000
36.0200 283.0000 1.0000
36.0400 255.0000 1.0000
36.0600 269.0000 1.0000
36.0800 284.0000 1.0000
36.1000 266.0000 1.0000
36.1200 247.0000 1.0000
36.1400 275.0000 1.0000
36.1600 272.0000 1.0000
36.1800 280.0000 1.0000
36.2000 262.0000 1.0000
36.2200 283.0000 1.0000
36.2400 276.0000 1.0000
36.2600 266.0000 1.0000
36.2800 278.0000 1.0000
36.3000 300.0000 1.0000
36.3200 327.0000 1.0000
36.3400 347.0000 1.0000
36.3600 422.0000 1.0000
36.3800 528.0000 1.0000
36.4000 597.0000 1.0000
36.4200 706.0000 1.0000
36.4400 748.0000 1.0000
36.4600 699.0000 1.0000
36.4800 741.0000 1.0000
36.5000 730.0000 1.0000
36.5200 672.0000 1.0000
36.5400 613.0000 1.0000
36.5600 558.0000 1.0000
36.5800 498.0000 1.0000
36.6000 418.0000 1.0000
36.6200 384.0000 1.0000
36.6400 324.0000 1.0000
36.6600 305.0000 1.0000
36.6800 260.0000 1.0000
36.7000 254.0000 1.0000
36.7200 235.0000 1.0000
36.7400 208.0000 1.0000
36.7600 253.0000 1.0000
36.7800 256.0000 1.0000
36.8000 237.0000 1.0000
36.8200 226.0000 1.0000
36.8400 250.0000 1.0000
36.8600 232.0000 1.0000
36.8800 246.0000 1.0000
36.9000 262.0000 1.0000
36.9200 263.0000 1.0000
36.9400 247.0000 1.0000
36.9600 258.0000 1.0000
36.9800 266.0000 1.0000
37.0000 241.0000 1.0000
37.0200 236.0000 1.0000
37.0400 230.0000 1.0000
37.0600 214.0000 1.0000
37.0800 222.0000 1.0000
37.1000 247.0000 1.0000
37.1200 230.0000 1.0000
37.1400 230.0000 1.0000
37.1600 206.0000 1.0000
37.1800 198.0000 1.0000
37.2000 206.0000 1.0000
37.2200 210.0000 1.0000
37.2400 204.0000 1.0000
37.2600 230.0000 1.0000
37.2800 226.0000 1.0000
37.3000 228.0000 1.0000
37.3200 239.0000 1.0000
37.3400 264.0000 1.0000
37.3600 258.0000 1.0000
37.3800 248.0000 1.0000
37.4000 245.0000 1.0000
37.4200 278.0000 1.0000
37.4400 283.0000 1.0000
37.4600 273.0000 1.0000
37.4800 297.0000 1.0000
37.5000 315.0000 1.0000
37.5200 358.0000 1.0000
37.5400 375.0000 1.0000
37.5600 415.0000 1.0000
37.5800 462.0000 1.0000
37.6000 528.0000 1.0000
37.6200 610.0000 1.0000
37.6400 669.0000 1.0000
37.6600 775.0000 1.0000
37.6800 786.0000 1.0000
37.7000 789.0000 1.0000
37.7200 765.0000 1.0000
37.7400 745.0000 1.0000
37.7600 623.0000 1.0000
37.7800 551.0000 1.0000
37.8000 453.0000 1.0000
37.8200 389.0000 1.0000
37.8400 335.0000 1.0000
37.8600 279.0000 1.0000
37.8800 241.0000 1.0000
37.9000 214.0000 1.0000
37.9200 197.0000 1.0000
37.9400 200.0000 1.0000
37.9600 185.0000 1.0000
37.9800 188.0000 1.0000
38.0000 172.0000 1.0000
38.0200 174.0000 1.0000
38.0400 192.0000 1.0000
38.0600 188.0000 1.0000
38.0800 215.0000 1.0000
38.1000 229.0000 1.0000
38.1200 213.0000 1.0000
38.1400 190.0000 1.0000
38.1600 194.0000 1.0000
38.1800 219.0000 1.0000
38.2000 228.0000 1.0000
38.2200 217.0000 1.0000
38.2400 225.0000 1.0000
38.2600 217.0000 1.0000
38.2800 182.0000 1.0000
38.3000 183.0000 1.0000
38.3200 195.0000 1.0000
38.3400 196.0000 1.0000
38.3600 179.0000 1.0000
38.3800 174.0000 1.0000
38.4000 183.0000 1.0000
38.4200 185.0000 1.0000
38.4400 189.0000 1.0000
38.4600 179.0000 1.0000
38.4800 184.0000 1.0000
38.5000 178.0000 1.0000
38.5200 176.0000 1.0000
38.5400 179.0000 1.0000
38.5600 176.0000 1.0000
38.5800 151.0000 1.0000
38.6000 154.0000 1.0000
38.6200 169.0000 1.0000
38.6400 153.0000 1.0000
38.6600 154.0000 1.0000
38.6800 164.0000 1.0000
38.7000 164.0000 1.0000
38.7200 164.0000 1.0000
38.7400 174.0000 1.0000
38.7600 167.0000 1.0000
38.7800 173.0000 1.0000
38.8000 178.0000 1.0000
38.8200 186.0000 1.0000
38.8400 183.0000 1.0000
38.8600 196.0000 1.0000
38.8800 190.0000 1.0000
38.9000 207.0000 1.0000
38.9200 226.0000 1.0000
38.9400 211.0000 1.0000
38.9600 206.0000 1.0000
38.9800 222.0000 1.0000
39.0000 234.0000 1.0000
39.0200 217.0000 1.0000
39.0400 237.0000 1.0000
39.0600 236.0000 1.0000
39.0800 249.0000 1.0000
39.1000 264.0000 1.0000
39.1200 258.0000 1.0000
39.1400 267.0000 1.0000
39.1600 267.0000 1.0000
39.1800 276.0000 1.0000
39.2000 291.0000 1.0000
39.2200 280.0000 1.0000
39.2400 312.0000 1.0000
39.2600 339.0000 1.0000
39.2800 370.0000 1.0000
39.3000 437.0000 1.0000
39.3200 493.0000 1.0000
39.3400 577.0000 1.0000
39.3600 610.0000 1.0000
39.3800 641.0000 1.0000
39.4000 671.0000 1.0000
39.4200 648.0000 1.0000
39.4400 587.0000 1.0000
39.4600 530.0000 1.0000
39.4800 469.0000 1.0000
39.5000 412.0000 1.0000
39.5200 368.0000 1.0000
39.5400 318.0000 1.0000
39.5600 296.0000 1.0000
39.5800 269.0000 1.0000
39.6000 246.0000 1.0000
39.6200 234.0000 1.0000
39.6400 200.0000 1.0000
39.6600 181.0000 1.0000
39.6800 186.0000 1.0000
39.7000 172.0000 1.0000
39.7200 157.0000 1.0000
39.7400 164.0000 1.0000
39.7600 163.0000 1.0000
39.7800 147.0000 1.0000
39.8000 141.0000 1.0000
39.8200 142.0000 1.0000
39.8400 138.0000 1.0000
39.8600 148.0000 1.0000
39.8800 146.0000 1.0000
39.9000 133.0000 1.0000
39.9200 141.0000 1.0000
39.9400 151.0000 1.0000
39.9600 152.0000 1.0000
39.9800 156.0000 1.0000
40.0000 169.0000 1.0000
40.0200 167.0000 1.0000
40.0400 172.0000 1.0000
40.0600 198.0000 1.0000
40.0800 213.0000 1.0000
40.1000 229.0000 1.0000
40.1200 265.0000 1.0000
40.1400 299.0000 1.0000
40.1600 318.0000 1.0000
40.1800 340.0000 1.0000
40.2000 351.0000 1.0000
40.2200 358.0000 1.0000
40.2400 377.0000 1.0000
40.2600 365.0000 1.0000
40.2800 334.0000 1.0000
40.3000 307.0000 1.0000
40.3200 273.0000 1.0000
40.3400 267.0000 1.0000
40.3600 251.0000 1.0000
40.3800 217.0000 1.0000
40.4000 188.0000 1.0000
40.4200 163.0000 1.0000
40.4400 159.0000 1.0000
40.4600 153.0000 1.0000
40.4800 164.0000 1.0000
40.5000 182.0000 1.0000
40.5200 173.0000 1.0000
40.5400 161.0000 1.0000
40.5600 165.0000 1.0000
40.5800 174.0000 1.0000
40.6000 172.0000 1.0000
40.6200 173.0000 1.0000
40.6400 170.0000 1.0000
40.6600 180.0000 1.0000
40.6800 180.0000 1.0000
40.7000 170.0000 1.0000
40.7200 181.0000 1.0000
40.7400 174.0000 1.0000
40.7600 169.0000 1.0000
40.7800 162.0000 1.0000
40.8000 169.0000 1.0000
40.8200 181.0000 1.0000
40.8400 167.0000 1.0000
40.8600 157.0000 1.0000
40.8800 164.0000 1.0000
40.9000 166.0000 1.0000
40.9200 143.0000 1.0000
40.9400 154.0000 1.0000
40.9600 157.0000 1.0000
40.9800 148.0000 1.0000
41.0000 170.0000 1.0000
41.0200 170.0000 1.0000
41.0400 158.0000 1.0000
41.0600 164.0000 1.0000
41.0800 166.0000 1.0000
41.1000 163.0000 1.0000
41.1200 168.0000 1.0000
41.1400 184.0000 1.0000
41.1600 183.0000 1.0000
41.1800 176.0000 1.0000
41.2000 173.0000 1.0000
41.2200 183.0000 1.0000
41.2400 183.0000 1.0000
41.2600 172.0000 1.0000
41.2800 173.0000 1.0000
41.3000 178.0000 1.0000
41.3200 174.0000 1.0000
41.3400 189.0000 1.0000
41.3600 208.0000 1.0000
41.3800 199.0000 1.0000
41.4000 196.0000 1.0000
41.4200 201.0000 1.0000
41.4400 197.0000 1.0000
41.4600 211.0000 1.0000
41.4800 232.0000 1.0000
41.5000 248.0000 1.0000
41.5200 235.0000 1.0000
41.5400 252.0000 1.0000
41.5600 257.0000 1.0000
41.5800 242.0000 1.0000
41.6000 242.0000 1.0000
41.6200 243.0000 1.0000
41.6400 239.0000 1.0000
41.6600 241.0000 1.0000
41.6800 235.0000 1.0000
41.7000 265.0000 1.0000
41.7200 250.0000 1.0000
41.7400 239.0000 1.0000
41.7600 248.0000 1.0000
41.7800 242.0000 1.0000
41.8000 218.0000 1.0000
41.8200 227.0000 1.0000
41.8400 233.0000 1.0000
41.8600 212.0000 1.0000
41.8800 193.0000 1.0000
41.9000 194.0000 1.0000
41.9200 193.0000 1.0000
41.9400 185.0000 1.0000
41.9600 177.0000 1.0000
41.9800 173.0000 1.0000
42.0000 194.0000 1.0000
42.0200 194.0000 1.0000
42.0400 192.0000 1.0000
42.0600 207.0000 1.0000
42.0800 224.0000 1.0000
42.1000 220.0000 1.0000
42.1200 224.0000 1.0000
42.1400 249.0000 1.0000
42.1600 265.0000 1.0000
42.1800 286.0000 1.0000
42.2000 310.0000 1.0000
42.2200 340.0000 1.0000
42.2400 377.0000 1.0000
42.2600 413.0000 1.0000
42.2800 442.0000 1.0000
42.3000 518.0000 1.0000
42.3200 563.0000 1.0000
42.3400 578.0000 1.0000
42.3600 575.0000 1.0000
42.3800 579.0000 1.0000
42.4000 578.0000 1.0000
42.4200 518.0000 1.0000
42.4400 499.0000 1.0000
42.4600 441.0000 1.0000
42.4800 418.0000 1.0000
42.5000 380.0000 1.0000
42.5200 331.0000 1.0000
42.5400 304.0000 1.0000
42.5600 247.0000 1.0000
42.5800 249.0000 1.0000
42.6000 244.0000 1.0000
42.6200 227.0000 1.0000
42.6400 231.0000 1.0000
42.6600 232.0000 1.0000
42.6800 252.0000 1.0000
42.7000 250.0000 1.0000
42.7200 263.0000 1.0000
42.7400 275.0000 1.0000
42.7600 256.0000 1.0000
42.7800 269.0000 1.0000
42.8000 284.0000 1.0000
42.8200 282.0000 1.0000
42.8400 246.0000 1.0000
42.8600 263.0000 1.0000
42.8800 262.0000 1.0000
42.9000 280.0000 1.0000
42.9200 285.0000 1.0000
42.9400 278.0000 1.0000
42.9600 276.0000 1.0000
42.9800 258.0000 1.0000
43.0000 274.0000 1.0000
43.0200 289.0000 1.0000
43.0400 321.0000 1.0000
43.0600 329.0000 1.0000
43.0800 364.0000 1.0000
43.1000 415.0000 1.0000
43.1200 493.0000 1.0000
43.1400 592.0000 1.0000
43.1600 697.0000 1.0000
43.1800 903.0000 1.0000
43.2000 1108.0000 1.0000
43.2200 1254.0000 1.0000
43.2400 1465.0000 1.0000
43.2600 1535.0000 1.0000
43.2800 1533.0000 1.0000
43.3000 1607.0000 1.0000
43.3200 1496.0000 1.0000
43.3400 1389.0000 1.0000
43.3600 1229.0000 1.0000
43.3800 1042.0000 1.0000
43.4000 909.0000 1.0000
43.4200 817.0000 1.0000
43.4400 670.0000 1.0000
43.4600 521.0000 1.0000
43.4800 388.0000 1.0000
43.5000 321.0000 1.0000
43.5200 253.0000 1.0000
43.5400 226.0000 1.0000
43.5600 220.0000 1.0000
43.5800 199.0000 1.0000
43.6000 188.0000 1.0000
43.6200 172.0000 1.0000
43.6400 177.0000 1.0000
43.6600 170.0000 1.0000
43.6800 172.0000 1.0000
43.7000 171.0000 1.0000
43.7200 159.0000 1.0000
43.7400 156.0000 1.0000
43.7600 155.0000 1.0000
43.7800 159.0000 1.0000
43.8000 153.0000 1.0000
43.8200 158.0000 1.0000
43.8400 166.0000 1.0000
43.8600 165.0000 1.0000
43.8800 152.0000 1.0000
43.9000 168.0000 1.0000
43.9200 189.0000 1.0000
43.9400 183.0000 1.0000
43.9600 190.0000 1.0000
43.9800 186.0000 1.0000
44.0000 187.0000 1.0000
44.0200 182.0000 1.0000
44.0400 189.0000 1.0000
44.0600 159.0000 1.0000
44.0800 174.0000 1.0000
44.1000 162.0000 1.0000
44.1200 165.0000 1.0000
44.1400 162.0000 1.0000
44.1600 151.0000 1.0000
44.1800 149.0000 1.0000
44.2000 151.0000 1.0000
44.2200 163.0000 1.0000
44.2400 133.0000 1.0000
44.2600 121.0000 1.0000
44.2800 135.0000 1.0000
44.3000 168.0000 1.0000
44.3200 128.0000 1.0000
44.3400 120.0000 1.0000
44.3600 158.0000 1.0000
44.3800 156.0000 1.0000
44.4000 149.0000 1.0000
44.4200 146.0000 1.0000
44.4400 177.0000 1.0000
44.4600 164.0000 1.0000
44.4800 159.0000 1.0000
44.5000 169.0000 1.0000
44.5200 152.0000 1.0000
44.5400 192.0000 1.0000
44.5600 153.0000 1.0000
44.5800 170.0000 1.0000
44.6000 178.0000 1.0000
44.6200 187.0000 1.0000
44.6400 206.0000 1.0000
44.6600 209.0000 1.0000
44.6800 218.0000 1.0000
44.7000 196.0000 1.0000
44.7200 209.0000 1.0000
44.7400 184.0000 1.0000
44.7600 218.0000 1.0000
44.7800 198.0000 1.0000
44.8000 208.0000 1.0000
44.8200 169.0000 1.0000
44.8400 215.0000 1.0000
44.8600 183.0000 1.0000
44.8800 186.0000 1.0000
44.9000 189.0000 1.0000
44.9200 182.0000 1.0000
44.9400 187.0000 1.0000
44.9600 194.0000 1.0000
44.9800 188.0000 1.0000
45.0000 174.0000 1.0000
45.0200 150.0000 1.0000
45.0400 191.0000 1.0000
45.0600 173.0000 1.0000
45.0800 180.0000 1.0000
45.1000 174.0000 1.0000
45.1200 181.0000 1.0000
45.1400 174.0000 1.0000
45.1600 187.0000 1.0000
45.1800 206.0000 1.0000
45.2000 161.0000 1.0000
45.2200 171.0000 1.0000
45.2400 170.0000 1.0000
45.2600 172.0000 1.0000
45.2800 157.0000 1.0000
45.3000 177.0000 1.0000
45.3200 179.0000 1.0000
45.3400 156.0000 1.0000
45.3600 151.0000 1.0000
45.3800 170.0000 1.0000
45.4000 205.0000 1.0000
45.4200 166.0000 1.0000
45.4400 196.0000 1.0000
45.4600 170.0000 1.0000
45.4800 179.0000 1.0000
45.5000 180.0000 1.0000
45.5200 201.0000 1.0000
45.5400 202.0000 1.0000
45.5600 219.0000 1.0000
45.5800 243.0000 1.0000
45.6000 264.0000 1.0000
45.6200 287.0000 1.0000
45.6400 297.0000 1.0000
45.6600 355.0000 1.0000
45.6800 400.0000 1.0000
45.7000 359.0000 1.0000
45.7200 397.0000 1.0000
45.7400 401.0000 1.0000
45.7600 371.0000 1.0000
45.7800 321.0000 1.0000
45.8000 332.0000 1.0000
45.8200 268.0000 1.0000
45.8400 235.0000 1.0000
45.8600 262.0000 1.0000
45.8800 242.0000 1.0000
45.9000 206.0000 1.0000
45.9200 156.0000 1.0000
45.9400 155.0000 1.0000
45.9600 163.0000 1.0000
45.9800 170.0000 1.0000
46.0000 141.0000 1.0000
46.0200 146.0000 1.0000
46.0400 169.0000 1.0000
46.0600 168.0000 1.0000
46.0800 165.0000 1.0000
46.1000 157.0000 1.0000
46.1200 167.0000 1.0000
46.1400 159.0000 1.0000
46.1600 153.0000 1.0000
46.1800 148.0000 1.0000
46.2000 166.0000 1.0000
46.2200 144.0000 1.0000
46.2400 144.0000 1.0000
46.2600 136.0000 1.0000
46.2800 115.0000 1.0000
46.3000 126.0000 1.0000
46.3200 143.0000 1.0000
46.3400 127.0000 1.0000
46.3600 131.0000 1.0000
46.3800 132.0000 1.0000
46.4000 120.0000 1.0000
46.4200 123.0000 1.0000
46.4400 120.0000 1.0000
46.4600 109.0000 1.0000
46.4800 132.0000 1.0000
46.5000 122.0000 1.0000
46.5200 129.0000 1.0000
46.5400 117.0000 1.0000
46.5600 120.0000 1.0000
46.5800 133.0000 1.0000
46.6000 105.0000 1.0000
46.6200 150.0000 1.0000
46.6400 134.0000 1.0000
46.6600 136.0000 1.0000
46.6800 121.0000 1.0000
46.7000 115.0000 1.0000
46.7200 131.0000 1.0000
46.7400 120.0000 1.0000
46.7600 137.0000 1.0000
46.7800 124.0000 1.0000
46.8000 140.0000 1.0000
46.8200 142.0000 1.0000
46.8400 147.0000 1.0000
46.8600 144.0000 1.0000
46.8800 146.0000 1.0000
46.9000 147.0000 1.0000
46.9200 140.0000 1.0000
46.9400 127.0000 1.0000
46.9600 131.0000 1.0000
46.9800 129.0000 1.0000
47.0000 141.0000 1.0000
47.0200 143.0000 1.0000
47.0400 150.0000 1.0000
47.0600 142.0000 1.0000
47.0800 126.0000 1.0000
47.1000 128.0000 1.0000
47.1200 152.0000 1.0000
47.1400 143.0000 1.0000
47.1600 125.0000 1.0000
47.1800 119.0000 1.0000
47.2000 135.0000 1.0000
47.2200 134.0000 1.0000
47.2400 125.0000 1.0000
47.2600 138.0000 1.0000
47.2800 134.0000 1.0000
47.3000 141.0000 1.0000
47.3200 144.0000 1.0000
47.3400 165.0000 1.0000
47.3600 169.0000 1.0000
47.3800 138.0000 1.0000
47.4000 149.0000 1.0000
47.4200 162.0000 1.0000
47.4400 172.0000 1.0000
47.4600 156.0000 1.0000
47.4800 164.0000 1.0000
47.5000 169.0000 1.0000
47.5200 148.0000 1.0000
47.5400 165.0000 1.0000
47.5600 158.0000 1.0000
47.5800 146.0000 1.0000
47.6000 156.0000 1.0000
47.6200 143.0000 1.0000
47.6400 129.0000 1.0000
47.6600 143.0000 1.0000
47.6800 136.0000 1.0000
47.7000 144.0000 1.0000
47.7200 140.0000 1.0000
47.7400 143.0000 1.0000
47.7600 131.0000 1.0000
47.7800 124.0000 1.0000
47.8000 121.0000 1.0000
47.8200 114.0000 1.0000
47.8400 120.0000 1.0000
47.8600 130.0000 1.0000
47.8800 130.0000 1.0000
47.9000 135.0000 1.0000
47.9200 126.0000 1.0000
47.9400 127.0000 1.0000
47.9600 135.0000 1.0000
47.9800 133.0000 1.0000
48.0000 131.0000 1.0000
48.0200 133.0000 1.0000
48.0400 127.0000 1.0000
48.0600 144.0000 1.0000
48.0800 160.0000 1.0000
48.1000 148.0000 1.0000
48.1200 140.0000 1.0000
48.1400 161.0000 1.0000
48.1600 165.0000 1.0000
48.1800 181.0000 1.0000
48.2000 180.0000 1.0000
48.2200 180.0000 1.0000
48.2400 185.0000 1.0000
48.2600 185.0000 1.0000
48.2800 193.0000 1.0000
48.3000 164.0000 1.0000
48.3200 167.0000 1.0000
48.3400 204.0000 1.0000
48.3600 187.0000 1.0000
48.3800 166.0000 1.0000
48.4000 175.0000 1.0000
48.4200 177.0000 1.0000
48.4400 165.0000 1.0000
48.4600 151.0000 1.0000
48.4800 168.0000 1.0000
48.5000 172.0000 1.0000
48.5200 158.0000 1.0000
48.5400 152.0000 1.0000
48.5600 155.0000 1.0000
48.5800 163.0000 1.0000
48.6000 156.0000 1.0000
48.6200 158.0000 1.0000
48.6400 158.0000 1.0000
48.6600 147.0000 1.0000
48.6800 152.0000 1.0000
48.7000 163.0000 1.0000
48.7200 159.0000 1.0000
48.7400 164.0000 1.0000
48.7600 157.0000 1.0000
48.7800 137.0000 1.0000
48.8000 146.0000 1.0000
48.8200 157.0000 1.0000
48.8400 157.0000 1.0000
48.8600 157.0000 1.0000
48.8800 155.0000 1.0000
48.9000 160.0000 1.0000
48.9200 165.0000 1.0000
48.9400 164.0000 1.0000
48.9600 180.0000 1.0000
48.9800 191.0000 1.0000
49.0000 199.0000 1.0000
49.0200 198.0000 1.0000
49.0400 194.0000 1.0000
49.0600 209.0000 1.0000
49.0800 226.0000 1.0000
49.1000 239.0000 1.0000
49.1200 248.0000 1.0000
49.1400 257.0000 1.0000
49.1600 271.0000 1.0000
49.1800 249.0000 1.0000
49.2000 237.0000 1.0000
49.2200 235.0000 1.0000
49.2400 211.0000 1.0000
49.2600 216.0000 1.0000
49.2800 203.0000 1.0000
49.3000 198.0000 1.0000
49.3200 203.0000 1.0000
49.3400 194.0000 1.0000
49.3600 178.0000 1.0000
49.3800 165.0000 1.0000
49.4000 157.0000 1.0000
49.4200 174.0000 1.0000
49.4400 178.0000 1.0000
49.4600 191.0000 1.0000
49.4800 209.0000 1.0000
49.5000 203.0000 1.0000
49.5200 198.0000 1.0000
49.5400 213.0000 1.0000
49.5600 217.0000 1.0000
49.5800 209.0000 1.0000
49.6000 219.0000 1.0000
49.6200 241.0000 1.0000
49.6400 263.0000 1.0000
49.6600 277.0000 1.0000
49.6800 291.0000 1.0000
49.7000 295.0000 1.0000
49.7200 316.0000 1.0000
49.7400 313.0000 1.0000
49.7600 350.0000 1.0000
49.7800 393.0000 1.0000
49.8000 393.0000 1.0000
49.8200 398.0000 1.0000
49.8400 421.0000 1.0000
49.8600 432.0000 1.0000
49.8800 442.0000 1.0000
49.9000 432.0000 1.0000
49.9200 458.0000 1.0000
49.9400 527.0000 1.0000
49.9600 577.0000 1.0000
49.9800 668.0000 1.0000
50.0000 811.0000 1.0000
50.0200 952.0000 1.0000
50.0400 1044.0000 1.0000
50.0600 1078.0000 1.0000
50.0800 1091.0000 1.0000
50.1000 1053.0000 1.0000
50.1200 1003.0000 1.0000
50.1400 859.0000 1.0000
50.1600 784.0000 1.0000
50.1800 707.0000 1.0000
50.2000 648.0000 1.0000
50.2200 618.0000 1.0000
50.2400 540.0000 1.0000
50.2600 460.0000 1.0000
50.2800 357.0000 1.0000
50.3000 296.0000 1.0000
50.3200 238.0000 1.0000
50.3400 190.0000 1.0000
50.3600 210.0000 1.0000
50.3800 207.0000 1.0000
50.4000 202.0000 1.0000
50.4200 217.0000 1.0000
50.4400 231.0000 1.0000
50.4600 232.0000 1.0000
50.4800 230.0000 1.0000
50.5000 234.0000 1.0000
50.5200 245.0000 1.0000
50.5400 236.0000 1.0000
50.5600 254.0000 1.0000
50.5800 252.0000 1.0000
50.6000 244.0000 1.0000
50.6200 279.0000 1.0000
50.6400 271.0000 1.0000
50.6600 267.0000 1.0000
50.6800 265.0000 1.0000
50.7000 243.0000 1.0000
50.7200 217.0000 1.0000
50.7400 235.0000 1.0000
50.7600 198.0000 1.0000
50.7800 228.0000 1.0000
50.8000 221.0000 1.0000
50.8200 215.0000 1.0000
50.8400 223.0000 1.0000
50.8600 180.0000 1.0000
50.8800 175.0000 1.0000
50.9000 145.0000 1.0000
50.9200 165.0000 1.0000
50.9400 152.0000 1.0000
50.9600 157.0000 1.0000
50.9800 164.0000 1.0000
51.0000 171.0000 1.0000
51.0200 199.0000 1.0000
51.0400 189.0000 1.0000
51.0600 186.0000 1.0000
51.0800 219.0000 1.0000
51.1000 213.0000 1.0000
51.1200 217.0000 1.0000
51.1400 218.0000 1.0000
51.1600 225.0000 1.0000
51.1800 228.0000 1.0000
51.2000 239.0000 1.0000
51.2200 281.0000 1.0000
51.2400 266.0000 1.0000
51.2600 302.0000 1.0000
51.2800 287.0000 1.0000
51.3000 303.0000 1.0000
51.3200 283.0000 1.0000
51.3400 258.0000 1.0000
51.3600 257.0000 1.0000
51.3800 259.0000 1.0000
51.4000 232.0000 1.0000
51.4200 201.0000 1.0000
51.4400 217.0000 1.0000
51.4600 211.0000 1.0000
51.4800 208.0000 1.0000
51.5000 178.0000 1.0000
51.5200 176.0000 1.0000
51.5400 153.0000 1.0000
51.5600 147.0000 1.0000
51.5800 147.0000 1.0000
51.6000 139.0000 1.0000
51.6200 108.0000 1.0000
51.6400 163.0000 1.0000
51.6600 118.0000 1.0000
51.6800 144.0000 1.0000
51.7000 130.0000 1.0000
51.7200 131.0000 1.0000
51.7400 134.0000 1.0000
51.7600 143.0000 1.0000
51.7800 128.0000 1.0000
51.8000 126.0000 1.0000
51.8200 138.0000 1.0000
51.8400 146.0000 1.0000
51.8600 136.0000 1.0000
51.8800 160.0000 1.0000
51.9000 120.0000 1.0000
51.9200 152.0000 1.0000
51.9400 148.0000 1.0000
51.9600 139.0000 1.0000
51.9800 142.0000 1.0000
52.0000 148.0000 1.0000
52.0200 147.0000 1.0000
52.0400 165.0000 1.0000
52.0600 152.0000 1.0000
52.0800 146.0000 1.0000
52.1000 144.0000 1.0000
52.1200 173.0000 1.0000
52.1400 167.0000 1.0000
52.1600 194.0000 1.0000
52.1800 194.0000 1.0000
52.2000 188.0000 1.0000
52.2200 186.0000 1.0000
52.2400 212.0000 1.0000
52.2600 223.0000 1.0000
52.2800 241.0000 1.0000
52.3000 259.0000 1.0000
52.3200 283.0000 1.0000
52.3400 331.0000 1.0000
52.3600 378.0000 1.0000
52.3800 428.0000 1.0000
52.4000 514.0000 1.0000
52.4200 615.0000 1.0000
52.4400 625.0000 1.0000
52.4600 721.0000 1.0000
52.4800 743.0000 1.0000
52.5000 798.0000 1.0000
52.5200 738.0000 1.0000
52.5400 713.0000 1.0000
52.5600 649.0000 1.0000
52.5800 579.0000 1.0000
52.6000 571.0000 1.0000
52.6200 513.0000 1.0000
52.6400 506.0000 1.0000
52.6600 480.0000 1.0000
52.6800 402.0000 1.0000
52.7000 350.0000 1.0000
52.7200 314.0000 1.0000
52.7400 258.0000 1.0000
52.7600 244.0000 1.0000
52.7800 204.0000 1.0000
52.8000 203.0000 1.0000
52.8200 211.0000 1.0000
52.8400 209.0000 1.0000
52.8600 204.0000 1.0000
52.8800 200.0000 1.0000
52.9000 194.0000 1.0000
52.9200 197.0000 1.0000
52.9400 210.0000 1.0000
52.9600 193.0000 1.0000
52.9800 211.0000 1.0000
53.0000 199.0000 1.0000
53.0200 205.0000 1.0000
53.0400 196.0000 1.0000
53.0600 182.0000 1.0000
53.0800 211.0000 1.0000
53.1000 206.0000 1.0000
53.1200 207.0000 1.0000
53.1400 191.0000 1.0000
53.1600 202.0000 1.0000
53.1800 186.0000 1.0000
53.2000 166.0000 1.0000
53.2200 156.0000 1.0000
53.2400 166.0000 1.0000
53.2600 168.0000 1.0000
53.2800 183.0000 1.0000
53.3000 168.0000 1.0000
53.3200 168.0000 1.0000
53.3400 161.0000 1.0000
53.3600 163.0000 1.0000
53.3800 157.0000 1.0000
53.4000 139.0000 1.0000
53.4200 124.0000 1.0000
53.4400 147.0000 1.0000
53.4600 147.0000 1.0000
53.4800 144.0000 1.0000
53.5000 137.0000 1.0000
53.5200 143.0000 1.0000
53.5400 143.0000 1.0000
53.5600 149.0000 1.0000
53.5800 131.0000 1.0000
53.6000 144.0000 1.0000
53.6200 152.0000 1.0000
53.6400 151.0000 1.0000
53.6600 144.0000 1.0000
53.6800 127.0000 1.0000
53.7000 147.0000 1.0000
53.7200 161.0000 1.0000
53.7400 161.0000 1.0000
53.7600 153.0000 1.0000
53.7800 152.0000 1.0000
53.8000 144.0000 1.0000
53.8200 161.0000 1.0000
53.8400 154.0000 1.0000
53.8600 168.0000 1.0000
53.8800 150.0000 1.0000
53.9000 167.0000 1.0000
53.9200 176.0000 1.0000
53.9400 169.0000 1.0000
53.9600 168.0000 1.0000
53.9800 165.0000 1.0000
54.0000 171.0000 1.0000
54.0200 174.0000 1.0000
54.0400 179.0000 1.0000
54.0600 173.0000 1.0000
54.0800 191.0000 1.0000
54.1000 181.0000 1.0000
54.1200 165.0000 1.0000
54.1400 179.0000 1.0000
54.1600 187.0000 1.0000
54.1800 169.0000 1.0000
54.2000 166.0000 1.0000
54.2200 177.0000 1.0000
54.2400 170.0000 1.0000
54.2600 176.0000 1.0000
54.2800 196.0000 1.0000
54.3000 174.0000 1.0000
54.3200 182.0000 1.0000
54.3400 177.0000 1.0000
54.3600 194.0000 1.0000
54.3800 185.0000 1.0000
54.4000 184.0000 1.0000
54.4200 177.0000 1.0000
54.4400 166.0000 1.0000
54.4600 178.0000 1.0000
54.4800 186.0000 1.0000
54.5000 167.0000 1.0000
54.5200 159.0000 1.0000
54.5400 148.0000 1.0000
54.5600 171.0000 1.0000
54.5800 175.0000 1.0000
54.6000 183.0000 1.0000
54.6200 186.0000 1.0000
54.6400 179.0000 1.0000
54.6600 193.0000 1.0000
54.6800 220.0000 1.0000
54.7000 256.0000 1.0000
54.7200 271.0000 1.0000
54.7400 317.0000 1.0000
54.7600 346.0000 1.0000
54.7800 352.0000 1.0000
54.8000 386.0000 1.0000
54.8200 398.0000 1.0000
54.8400 389.0000 1.0000
54.8600 358.0000 1.0000
54.8800 316.0000 1.0000
54.9000 309.0000 1.0000
54.9200 298.0000 1.0000
54.9400 283.0000 1.0000
54.9600 284.0000 1.0000
54.9800 288.0000 1.0000
55.0000 274.0000 1.0000
55.0200 244.0000 1.0000
55.0400 228.0000 1.0000
55.0600 207.0000 1.0000
55.0800 189.0000 1.0000
55.1000 192.0000 1.0000
55.1200 183.0000 1.0000
55.1400 182.0000 1.0000
55.1600 202.0000 1.0000
55.1800 210.0000 1.0000
55.2000 253.0000 1.0000
55.2200 278.0000 1.0000
55.2400 278.0000 1.0000
55.2600 280.0000 1.0000
55.2800 291.0000 1.0000
55.3000 297.0000 1.0000
55.3200 285.0000 1.0000
55.3400 273.0000 1.0000
55.3600 267.0000 1.0000
55.3800 249.0000 1.0000
55.4000 244.0000 1.0000
55.4200 248.0000 1.0000
55.4400 253.0000 1.0000
55.4600 235.0000 1.0000
55.4800 205.0000 1.0000
55.5000 194.0000 1.0000
55.5200 177.0000 1.0000
55.5400 155.0000 1.0000
55.5600 152.0000 1.0000
55.5800 162.0000 1.0000
55.6000 170.0000 1.0000
55.6200 158.0000 1.0000
55.6400 150.0000 1.0000
55.6600 141.0000 1.0000
55.6800 139.0000 1.0000
55.7000 140.0000 1.0000
55.7200 141.0000 1.0000
55.7400 138.0000 1.0000
55.7600 140.0000 1.0000
55.7800 148.0000 1.0000
55.8000 136.0000 1.0000
55.8200 141.0000 1.0000
55.8400 156.0000 1.0000
55.8600 141.0000 1.0000
55.8800 136.0000 1.0000
55.9000 148.0000 1.0000
55.9200 150.0000 1.0000
55.9400 152.0000 1.0000
55.9600 147.0000 1.0000
55.9800 145.0000 1.0000
56.0000 142.0000 1.0000
56.0200 130.0000 1.0000
56.0400 131.0000 1.0000
56.0600 136.0000 1.0000
56.0800 138.0000 1.0000
56.1000 148.0000 1.0000
56.1200 152.0000 1.0000
56.1400 143.0000 1.0000
56.1600 131.0000 1.0000
56.1800 140.0000 1.0000
56.2000 146.0000 1.0000
56.2200 138.0000 1.0000
56.2400 140.0000 1.0000
56.2600 139.0000 1.0000
56.2800 157.0000 1.0000
56.3000 152.0000 1.0000
56.3200 143.0000 1.0000
56.3400 156.0000 1.0000
56.3600 168.0000 1.0000
56.3800 175.0000 1.0000
56.4000 165.0000 1.0000
56.4200 164.0000 1.0000
56.4400 170.0000 1.0000
56.4600 159.0000 1.0000
56.4800 158.0000 1.0000
56.5000 174.0000 1.0000
56.5200 174.0000 1.0000
56.5400 172.0000 1.0000
56.5600 170.0000 1.0000
56.5800 172.0000 1.0000
56.6000 175.0000 1.0000
56.6200 191.0000 1.0000
56.6400 175.0000 1.0000
56.6600 163.0000 1.0000
56.6800 165.0000 1.0000
56.7000 155.0000 1.0000
56.7200 152.0000 1.0000
56.7400 161.0000 1.0000
56.7600 155.0000 1.0000
56.7800 149.0000 1.0000
56.8000 155.0000 1.0000
56.8200 145.0000 1.0000
56.8400 156.0000 1.0000
56.8600 148.0000 1.0000
56.8800 136.0000 1.0000
56.9000 143.0000 1.0000
56.9200 147.0000 1.0000
56.9400 142.0000 1.0000
56.9600 150.0000 1.0000
56.9800 156.0000 1.0000
57.0000 158.0000 1.0000
57.0200 161.0000 1.0000
57.0400 174.0000 1.0000
57.0600 168.0000 1.0000
57.0800 178.0000 1.0000
57.1000 186.0000 1.0000
57.1200 181.0000 1.0000
57.1400 199.0000 1.0000
57.1600 220.0000 1.0000
57.1800 262.0000 1.0000
57.2000 275.0000 1.0000
57.2200 284.0000 1.0000
57.2400 326.0000 1.0000
57.2600 326.0000 1.0000
57.2800 386.0000 1.0000
57.3000 474.0000 1.0000
57.3200 598.0000 1.0000
57.3400 740.0000 1.0000
57.3600 887.0000 1.0000
57.3800 1094.0000 1.0000
57.4000 1262.0000 1.0000
57.4200 1305.0000 1.0000
57.4400 1355.0000 1.0000
57.4600 1293.0000 1.0000
57.4800 1170.0000 1.0000
57.5000 1087.0000 1.0000
57.5200 1016.0000 1.0000
57.5400 914.0000 1.0000
57.5600 869.0000 1.0000
57.5800 851.0000 1.0000
57.6000 796.0000 1.0000
57.6200 750.0000 1.0000
57.6400 647.0000 1.0000
57.6600 545.0000 1.0000
57.6800 442.0000 1.0000
57.7000 353.0000 1.0000
57.7200 295.0000 1.0000
57.7400 282.0000 1.0000
57.7600 257.0000 1.0000
57.7800 250.0000 1.0000
57.8000 222.0000 1.0000
57.8200 210.0000 1.0000
57.8400 206.0000 1.0000
57.8600 219.0000 1.0000
57.8800 201.0000 1.0000
57.9000 179.0000 1.0000
57.9200 171.0000 1.0000
57.9400 176.0000 1.0000
57.9600 171.0000 1.0000
57.9800 182.0000 1.0000
58.0000 179.0000 1.0000
58.0200 166.0000 1.0000
58.0400 171.0000 1.0000
58.0600 166.0000 1.0000
58.0800 171.0000 1.0000
58.1000 176.0000 1.0000
58.1200 153.0000 1.0000
58.1400 143.0000 1.0000
58.1600 141.0000 1.0000
58.1800 141.0000 1.0000
58.2000 143.0000 1.0000
58.2200 140.0000 1.0000
58.2400 140.0000 1.0000
58.2600 144.0000 1.0000
58.2800 158.0000 1.0000
58.3000 151.0000 1.0000
58.3200 158.0000 1.0000
58.3400 156.0000 1.0000
58.3600 162.0000 1.0000
58.3800 143.0000 1.0000
58.4000 134.0000 1.0000
58.4200 145.0000 1.0000
58.4400 163.0000 1.0000
58.4600 173.0000 1.0000
58.4800 168.0000 1.0000
58.5000 162.0000 1.0000
58.5200 170.0000 1.0000
58.5400 173.0000 1.0000
58.5600 174.0000 1.0000
58.5800 157.0000 1.0000
58.6000 160.0000 1.0000
58.6200 172.0000 1.0000
58.6400 181.0000 1.0000
58.6600 171.0000 1.0000
58.6800 172.0000 1.0000
58.7000 161.0000 1.0000
58.7200 174.0000 1.0000
58.7400 149.0000 1.0000
58.7600 156.0000 1.0000
58.7800 135.0000 1.0000
58.8000 129.0000 1.0000
58.8200 161.0000 1.0000
58.8400 148.0000 1.0000
58.8600 138.0000 1.0000
58.8800 137.0000 1.0000
58.9000 129.0000 1.0000
58.9200 144.0000 1.0000
58.9400 148.0000 1.0000
58.9600 153.0000 1.0000
58.9800 138.0000 1.0000
59.0000 122.0000 1.0000
59.0200 130.0000 1.0000
59.0400 148.0000 1.0000
59.0600 128.0000 1.0000
59.0800 136.0000 1.0000
59.1000 144.0000 1.0000
59.1200 135.0000 1.0000
59.1400 130.0000 1.0000
59.1600 129.0000 1.0000
59.1800 141.0000 1.0000
59.2000 154.0000 1.0000
59.2200 150.0000 1.0000
59.2400 150.0000 1.0000
59.2600 155.0000 1.0000
59.2800 161.0000 1.0000
59.3000 154.0000 1.0000
59.3200 179.0000 1.0000
59.3400 171.0000 1.0000
59.3600 156.0000 1.0000
59.3800 151.0000 1.0000
59.4000 144.0000 1.0000
59.4200 151.0000 1.0000
59.4400 170.0000 1.0000
59.4600 177.0000 1.0000
59.4800 168.0000 1.0000
59.5000 168.0000 1.0000
59.5200 173.0000 1.0000
59.5400 191.0000 1.0000
59.5600 205.0000 1.0000
59.5800 185.0000 1.0000
59.6000 215.0000 1.0000
59.6200 236.0000 1.0000
59.6400 228.0000 1.0000
59.6600 230.0000 1.0000
59.6800 272.0000 1.0000
59.7000 284.0000 1.0000
59.7200 302.0000 1.0000
59.7400 327.0000 1.0000
59.7600 352.0000 1.0000
59.7800 377.0000 1.0000
59.8000 470.0000 1.0000
59.8200 525.0000 1.0000
59.8400 592.0000 1.0000
59.8600 711.0000 1.0000
59.8800 744.0000 1.0000
59.9000 736.0000 1.0000
59.9200 707.0000 1.0000
59.9400 642.0000 1.0000
59.9600 591.0000 1.0000
59.9800 513.0000 1.0000
60.0000 475.0000 1.0000
60.0200 517.0000 1.0000
60.0400 491.0000 1.0000
60.0600 467.0000 1.0000
60.0800 489.0000 1.0000
60.1000 428.0000 1.0000
60.1200 362.0000 1.0000
60.1400 320.0000 1.0000
60.1600 281.0000 1.0000
60.1800 260.0000 1.0000
60.2000 216.0000 1.0000
60.2200 220.0000 1.0000
60.2400 210.0000 1.0000
60.2600 180.0000 1.0000
60.2800 199.0000 1.0000
60.3000 214.0000 1.0000
60.3200 219.0000 1.0000
60.3400 183.0000 1.0000
60.3600 185.0000 1.0000
60.3800 158.0000 1.0000
60.4000 193.0000 1.0000
60.4200 198.0000 1.0000
60.4400 173.0000 1.0000
60.4600 181.0000 1.0000
60.4800 164.0000 1.0000
60.5000 165.0000 1.0000
60.5200 162.0000 1.0000
60.5400 192.0000 1.0000
60.5600 178.0000 1.0000
60.5800 156.0000 1.0000
60.6000 185.0000 1.0000
60.6200 179.0000 1.0000
60.6400 187.0000 1.0000
60.6600 213.0000 1.0000
60.6800 196.0000 1.0000
60.7000 185.0000 1.0000
60.7200 194.0000 1.0000
60.7400 195.0000 1.0000
60.7600 191.0000 1.0000
60.7800 186.0000 1.0000
60.8000 187.0000 1.0000
60.8200 211.0000 1.0000
60.8400 197.0000 1.0000
60.8600 198.0000 1.0000
60.8800 191.0000 1.0000
60.9000 176.0000 1.0000
60.9200 177.0000 1.0000
60.9400 165.0000 1.0000
60.9600 173.0000 1.0000
60.9800 195.0000 1.0000
61.0000 184.0000 1.0000
61.0200 189.0000 1.0000
61.0400 194.0000 1.0000
61.0600 206.0000 1.0000
61.0800 191.0000 1.0000
61.1000 244.0000 1.0000
61.1200 237.0000 1.0000
61.1400 255.0000 1.0000
61.1600 221.0000 1.0000
61.1800 261.0000 1.0000
61.2000 284.0000 1.0000
61.2200 261.0000 1.0000
61.2400 304.0000 1.0000
61.2600 280.0000 1.0000
61.2800 270.0000 1.0000
61.3000 260.0000 1.0000
61.3200 241.0000 1.0000
61.3400 247.0000 1.0000
61.3600 226.0000 1.0000
61.3800 242.0000 1.0000
61.4000 218.0000 1.0000
61.4200 245.0000 1.0000
61.4400 205.0000 1.0000
61.4600 202.0000 1.0000
61.4800 220.0000 1.0000
61.5000 213.0000 1.0000
61.5200 210.0000 1.0000
61.5400 190.0000 1.0000
61.5600 206.0000 1.0000
61.5800 191.0000 1.0000
61.6000 215.0000 1.0000
61.6200 214.0000 1.0000
61.6400 198.0000 1.0000
61.6600 185.0000 1.0000
61.6800 212.0000 1.0000
61.7000 202.0000 1.0000
61.7200 216.0000 1.0000
61.7400 214.0000 1.0000
61.7600 199.0000 1.0000
61.7800 194.0000 1.0000
61.8000 224.0000 1.0000
61.8200 206.0000 1.0000
61.8400 214.0000 1.0000
61.8600 201.0000 1.0000
61.8800 193.0000 1.0000
61.9000 210.0000 1.0000
61.9200 163.0000 1.0000
61.9400 198.0000 1.0000
61.9600 216.0000 1.0000
61.9800 196.0000 1.0000
62.0000 194.0000 1.0000
62.0200 203.0000 1.0000
62.0400 189.0000 1.0000
62.0600 198.0000 1.0000
62.0800 182.0000 1.0000
62.1000 200.0000 1.0000
62.1200 183.0000 1.0000
62.1400 173.0000 1.0000
62.1600 195.0000 1.0000
62.1800 193.0000 1.0000
62.2000 182.0000 1.0000
62.2200 180.0000 1.0000
62.2400 193.0000 1.0000
62.2600 156.0000 1.0000
62.2800 184.0000 1.0000
62.3000 172.0000 1.0000
62.3200 189.0000 1.0000
62.3400 152.0000 1.0000
62.3600 156.0000 1.0000
62.3800 152.0000 1.0000
62.4000 189.0000 1.0000
62.4200 169.0000 1.0000
62.4400 149.0000 1.0000
62.4600 156.0000 1.0000
62.4800 169.0000 1.0000
62.5000 164.0000 1.0000
62.5200 157.0000 1.0000
62.5400 179.0000 1.0000
62.5600 173.0000 1.0000
62.5800 157.0000 1.0000
62.6000 148.0000 1.0000
62.6200 175.0000 1.0000
62.6400 175.0000 1.0000
62.6600 176.0000 1.0000
62.6800 144.0000 1.0000
62.7000 179.0000 1.0000
62.7200 166.0000 1.0000
62.7400 155.0000 1.0000
62.7600 150.0000 1.0000
62.7800 163.0000 1.0000
62.8000 170.0000 1.0000
62.8200 161.0000 1.0000
62.8400 165.0000 1.0000
62.8600 161.0000 1.0000
62.8800 174.0000 1.0000
62.9000 155.0000 1.0000
62.9200 171.0000 1.0000
62.9400 167.0000 1.0000
62.9600 126.0000 1.0000
62.9800 161.0000 1.0000
63.0000 143.0000 1.0000
63.0200 158.0000 1.0000
63.0400 163.0000 1.0000
63.0600 142.0000 1.0000
63.0800 158.0000 1.0000
63.1000 154.0000 1.0000
63.1200 157.0000 1.0000
63.1400 155.0000 1.0000
63.1600 164.0000 1.0000
63.1800 157.0000 1.0000
63.2000 158.0000 1.0000
63.2200 175.0000 1.0000
63.2400 177.0000 1.0000
63.2600 186.0000 1.0000
63.2800 183.0000 1.0000
63.3000 153.0000 1.0000
63.3200 185.0000 1.0000
63.3400 178.0000 1.0000
63.3600 172.0000 1.0000
63.3800 180.0000 1.0000
63.4000 174.0000 1.0000
63.4200 194.0000 1.0000
63.4400 196.0000 1.0000
63.4600 172.0000 1.0000
63.4800 197.0000 1.0000
63.5000 183.0000 1.0000
63.5200 197.0000 1.0000
63.5400 195.0000 1.0000
63.5600 185.0000 1.0000
63.5800 208.0000 1.0000
63.6000 196.0000 1.0000
63.6200 182.0000 1.0000
63.6400 207.0000 1.0000
63.6600 209.0000 1.0000
63.6800 219.0000 1.0000
63.7000 207.0000 1.0000
63.7200 224.0000 1.0000
63.7400 243.0000 1.0000
63.7600 217.0000 1.0000
63.7800 220.0000 1.0000
63.8000 249.0000 1.0000
63.8200 234.0000 1.0000
63.8400 239.0000 1.0000
63.8600 248.0000 1.0000
63.8800 254.0000 1.0000
63.9000 257.0000 1.0000
63.9200 278.0000 1.0000
63.9400 290.0000 1.0000
63.9600 295.0000 1.0000
63.9800 274.0000 1.0000
64.0000 262.0000 1.0000
64.0200 252.0000 1.0000
64.0400 238.0000 1.0000
64.0600 222.0000 1.0000
64.0800 199.0000 1.0000
64.1000 222.0000 1.0000
64.1200 205.0000 1.0000
64.1400 202.0000 1.0000
64.1600 212.0000 1.0000
64.1800 204.0000 1.0000
64.2000 206.0000 1.0000
64.2200 188.0000 1.0000
64.2400 180.0000 1.0000
64.2600 193.0000 1.0000
64.2800 175.0000 1.0000
64.3000 161.0000 1.0000
64.3200 173.0000 1.0000
64.3400 178.0000 1.0000
64.3600 169.0000 1.0000
64.3800 179.0000 1.0000
64.4000 185.0000 1.0000
64.4200 190.0000 1.0000
64.4400 202.0000 1.0000
64.4600 208.0000 1.0000
64.4800 199.0000 1.0000
64.5000 216.0000 1.0000
64.5200 179.0000 1.0000
64.5400 172.0000 1.0000
64.5600 170.0000 1.0000
64.5800 181.0000 1.0000
64.6000 164.0000 1.0000
64.6200 163.0000 1.0000
64.6400 203.0000 1.0000
64.6600 182.0000 1.0000
64.6800 177.0000 1.0000
64.7000 185.0000 1.0000
64.7200 165.0000 1.0000
64.7400 152.0000 1.0000
64.7600 155.0000 1.0000
64.7800 157.0000 1.0000
64.8000 142.0000 1.0000
64.8200 166.0000 1.0000
64.8400 148.0000 1.0000
64.8600 136.0000 1.0000
64.8800 144.0000 1.0000
64.9000 136.0000 1.0000
64.9200 139.0000 1.0000
64.9400 165.0000 1.0000
64.9600 174.0000 1.0000
64.9800 174.0000 1.0000
65.0000 174.0000 1.0000
*RAS_INT_END
*RAS_DATA_END
