*RAS_DATA_START
*RAS_HEADER_START
*CORR_POS_DB_NAME "Angle Correction ASC6 SC WITH Mono_04082019"
*CORR_POS_GONIO_RADIUS ""
*CORR_POS_NODE_INDEX01 ""
*CORR_POS_NODE_INDEX02 ""
*CORR_POS_NODE_INDEX03 ""
*CORR_POS_NODE_INDEX04 ""
*CORR_POS_NODE_INDEX05 ""
*CORR_POS_NODE_INDEX06 ""
*CORR_POS_NODE_INDEX07 ""
*CORR_POS_NODE_INDEX08 ""
*CORR_POS_NODE_INDEX09 ""
*CORR_POS_NODE_INDEX10 ""
*CORR_POS_NODE_INDEX11 ""
*CORR_POS_NODE_LABEL01 "Si(111)"
*CORR_POS_NODE_LABEL02 "Si(220)"
*CORR_POS_NODE_LABEL03 "Si(311)"
*CORR_POS_NODE_LABEL04 "Si(400)"
*CORR_POS_NODE_LABEL05 "Si(331)"
*CORR_POS_NODE_LABEL06 "Si(422)"
*CORR_POS_NODE_LABEL07 "Si(511)"
*CORR_POS_NODE_LABEL08 "Si(440)"
*CORR_POS_NODE_LABEL09 "Si(531)"
*CORR_POS_NODE_LABEL10 "Si(620)"
*CORR_POS_NODE_LABEL11 "Si(533)"
*CORR_POS_NODE_POS_CALC01 "28.377"
*CORR_POS_NODE_POS_CALC02 "47.2506"
*CORR_POS_NODE_POS_CALC03 "56.0725"
*CORR_POS_NODE_POS_CALC04 "69.0822"
*CORR_POS_NODE_POS_CALC05 "76.3294"
*CORR_POS_NODE_POS_CALC06 "87.9853"
*CORR_POS_NODE_POS_CALC07 "94.9091"
*CORR_POS_NODE_POS_CALC08 "106.668"
*CORR_POS_NODE_POS_CALC09 "114.054"
*CORR_POS_NODE_POS_CALC10 "127.511"
*CORR_POS_NODE_POS_CALC11 "136.864"
*CORR_POS_NODE_POS_MEAS01 "28.5058"
*CORR_POS_NODE_POS_MEAS02 "47.345"
*CORR_POS_NODE_POS_MEAS03 "56.1421"
*CORR_POS_NODE_POS_MEAS04 "69.1304"
*CORR_POS_NODE_POS_MEAS05 "76.366"
*CORR_POS_NODE_POS_MEAS06 "88.0213"
*CORR_POS_NODE_POS_MEAS07 "94.9406"
*CORR_POS_NODE_POS_MEAS08 "106.689"
*CORR_POS_NODE_POS_MEAS09 "114.065"
*CORR_POS_NODE_POS_MEAS10 "127.518"
*CORR_POS_NODE_POS_MEAS11 "136.869"
*CORR_POS_OPT_ATTR "集中法"
*CORR_POS_PARAM_MU ""
*CORR_POS_PARAM_PL ""
*CORR_POS_SEMODEL_TYPE "0"
*CORR_POS_STANDARD_TYPE ""
*CORR_POS_VALUE_ANALYZER "None"
*CORR_POS_VALUE_CMONO "None"
*CORR_POS_VALUE_IMONO "None"
*CORR_POS_VALUE_IS "1.250deg"
*CORR_POS_VALUE_ISL "10.0mm"
*CORR_POS_VALUE_ISOLLER "5.0deg"
*CORR_POS_VALUE_RS1 "1.250deg"
*CORR_POS_VALUE_RS2 "0.3mm"
*CORR_POS_VALUE_RSOLLER "5.0deg"
*CORR_POS_XG_FOCUS_L ""
*CORR_POS_XG_WAVE_TYPE ""
*CORR_POS_XG_WAVE_VALUE ""
*DISP_FMT_X "%.2f"
*DISP_FMT_Y "%.0f"
*DISP_FULLSCALE "7285.2000000000"
*DISP_LINE_COLOR "255.0000000000"
*DISP_LINE_STYLE "0.0000000000"
*DISP_LINE_WIDTH "0.2500000000"
*DISP_NOTE "Collected Data-21"
*DISP_OFFSET_Y "0.0000000000"
*DISP_PEAKSEARCH_UNIT_Y "CPS"
*DISP_RANGE_BOTTOM "0.0000000000"
*DISP_RANGE_LEFT "5.0000000000"
*DISP_RANGE_LOGCUTOFF "0.0100000000"
*DISP_RANGE_RIGHT "65.0000000000"
*DISP_RANGE_TOP "7285.2000000000"
*DISP_SCALE_MODE_Y "0.0000000000"
*DISP_TAB_NAME "Theta/2-Theta"
*DISP_TITLE_Y "Intensity"
*DISP_UNIT_Y "CPS"
*DISP_WINDOW_NAME "MSG_MACROENGINE"
*FILE_COMMENT " "
*FILE_MD5 ""
*FILE_MEMO " "
*FILE_OPERATOR "administrator"
*FILE_PART_ID "MEAS_PBEA_00223"
*FILE_SAMPLE " "
*FILE_TYPE "RAS_RAW"
*FILE_USERGROUP "System Manager"
*FILE_VERSION "1.0000000000"
*HW_ATTACHMENT_ID "ATT1031"
*HW_ATTACHMENT_NAME "6サンプルチェンジャ|ASC-6"
*HW_COUNTER_ID-0 "CUT0021"
*HW_COUNTER_ID-1 "CUT0020"
*HW_COUNTER_ID-2 "CUT0020"
*HW_COUNTER_ID-3 "CMC0021"
*HW_COUNTER_NAME-0 "SC-70|SC-70"
*HW_COUNTER_NAME-1 "None|None"
*HW_COUNTER_NAME-2 "None|None"
*HW_COUNTER_NAME-3 "検出器モノクロメータ|Detector monochromator"
*HW_COUNTER_SELECT_NAME "SC-70|SC-70"
*HW_ECP_HV "671.5000000000"
*HW_ECP_HV_UNIT "V"
*HW_GONIOMETER_ID "GON0070"
*HW_GONIOMETER_NAME "MiniFlex 300/600|MiniFlex 300/600"
*HW_GONIOMETER_RADIUS-0 "79.0"
*HW_GONIOMETER_RADIUS-1 "91.5"
*HW_GONIOMETER_RADIUS-2 "150.0"
*HW_GONIOMETER_RADIUS-3 "0"
*HW_GONIOMETER_RADIUS-4 "103.4"
*HW_GONIOMETER_RADIUS-5 "150.0"
*HW_GONIOMETER_RADIUS-6 "46.6"
*HW_GONIOMETER_RADIUS-7 "160.0"
*HW_I_OPT_ID-0 "ISL0021"
*HW_I_OPT_ID-1 "ISO0021"
*HW_I_OPT_NAME-0 "発散スリット|Divergence slit"
*HW_I_OPT_NAME-1 "入射平行スリット|Incident parallel slit"
*HW_R_ATTENUATER_AUTOMODE "0"
*HW_R_OPT_ID-0 "RSS0021"
*HW_R_OPT_ID-1 "RSO0021"
*HW_R_OPT_ID-2 "RRS0021"
*HW_R_OPT_NAME-0 "散乱スリット|Scattering slit"
*HW_R_OPT_NAME-1 "受光平行スリット|Receiving soller slit"
*HW_R_OPT_NAME-2 "受光スリット|Receiving slit"
*HW_SAMPLE_HOLDER_ID "SMP0000"
*HW_SAMPLE_HOLDER_NAME "無し|None"
*HW_XG_CURRENT_MAX "15"
*HW_XG_CURRENT_MIN "2"
*HW_XG_CURRENT_RESOLUTION "1"
*HW_XG_CURRENT_UNIT "mA"
*HW_XG_FOCUS "1mm x 10mm"
*HW_XG_FOCUS_TYPE "Normal"
*HW_XG_ID "1060"
*HW_XG_NAME "300W/600W 封入管-B|300W/600W Sealed tube-B"
*HW_XG_TARGET_ATOMIC_NUMBER "29.0000000000"
*HW_XG_TARGET_NAME "Cu"
*HW_XG_TYPE "Hermetic"
*HW_XG_VOLTAGE_MAX "40"
*HW_XG_VOLTAGE_MIN "20"
*HW_XG_VOLTAGE_RESOLUTION "1"
*HW_XG_VOLTAGE_UNIT "kV"
*HW_XG_WATT_MAX "0.600"
*HW_XG_WATT_UNIT "kW"
*HW_XG_WAVE_LENGTH_ALPHA1 "1.540593"
*HW_XG_WAVE_LENGTH_ALPHA2 "1.544414"
*HW_XG_WAVE_LENGTH_BETA "1.392250"
*MEAS_COND_AXIS_NAME-0 "Theta/2-Theta"
*MEAS_COND_AXIS_NAME-1 "Spin"
*MEAS_COND_AXIS_NAME-2 "Change"
*MEAS_COND_AXIS_NAME-3 "Soller(inc.)"
*MEAS_COND_AXIS_NAME-4 "IHS"
*MEAS_COND_AXIS_NAME-5 "DS"
*MEAS_COND_AXIS_NAME-6 "SS"
*MEAS_COND_AXIS_NAME-7 "Soller(rec.)"
*MEAS_COND_AXIS_NAME-8 "RS"
*MEAS_COND_AXIS_NAME-9 "Filter"
*MEAS_COND_AXIS_NAME-10 "Monochromator"
*MEAS_COND_AXIS_NAME-11 "HV"
*MEAS_COND_AXIS_NAME-12 "PHA"
*MEAS_COND_AXIS_NAME_INTERNAL-0 "TwoThetaTheta"
*MEAS_COND_AXIS_NAME_INTERNAL-1 "Spin"
*MEAS_COND_AXIS_NAME_INTERNAL-2 "Change"
*MEAS_COND_AXIS_NAME_INTERNAL-3 "IncidentSollerSlit"
*MEAS_COND_AXIS_NAME_INTERNAL-4 "IncidentAxdSlit"
*MEAS_COND_AXIS_NAME_INTERNAL-5 "IncidentSlitBox"
*MEAS_COND_AXIS_NAME_INTERNAL-6 "ReceivingSlitBox1"
*MEAS_COND_AXIS_NAME_INTERNAL-7 "ReceivingSollerSlit"
*MEAS_COND_AXIS_NAME_INTERNAL-8 "ReceivingSlitBox2"
*MEAS_COND_AXIS_NAME_INTERNAL-9 "Filter"
*MEAS_COND_AXIS_NAME_INTERNAL-10 "CounterMonochromator"
*MEAS_COND_AXIS_NAME_INTERNAL-11 "HV"
*MEAS_COND_AXIS_NAME_INTERNAL-12 "PHA"
*MEAS_COND_AXIS_NAME_MAGICNO-0 "268632064.0000000000"
*MEAS_COND_AXIS_NAME_MAGICNO-1 "16842752.0000000000"
*MEAS_COND_AXIS_NAME_MAGICNO-2 "16842752.0000000000"
*MEAS_COND_AXIS_NAME_MAGICNO-3 "20971521.0000000000"
*MEAS_COND_AXIS_NAME_MAGICNO-4 "22020097.0000000000"
*MEAS_COND_AXIS_NAME_MAGICNO-5 "22020097.0000000000"
*MEAS_COND_AXIS_NAME_MAGICNO-6 "23068673.0000000000"
*MEAS_COND_AXIS_NAME_MAGICNO-7 "20971521.0000000000"
*MEAS_COND_AXIS_NAME_MAGICNO-8 "23068673.0000000000"
*MEAS_COND_AXIS_NAME_MAGICNO-9 "20971521.0000000000"
*MEAS_COND_AXIS_NAME_MAGICNO-10 "20971521.0000000000"
*MEAS_COND_AXIS_NAME_MAGICNO-11 "0.0000000000"
*MEAS_COND_AXIS_NAME_MAGICNO-12 "0.0000000000"
*MEAS_COND_AXIS_OFFSET-0 "0.0000000000"
*MEAS_COND_AXIS_OFFSET-1 "-"
*MEAS_COND_AXIS_OFFSET-2 "-"
*MEAS_COND_AXIS_OFFSET-3 "-"
*MEAS_COND_AXIS_OFFSET-4 "-"
*MEAS_COND_AXIS_OFFSET-5 "-"
*MEAS_COND_AXIS_OFFSET-6 "-"
*MEAS_COND_AXIS_OFFSET-7 "-"
*MEAS_COND_AXIS_OFFSET-8 "-"
*MEAS_COND_AXIS_OFFSET-9 "-"
*MEAS_COND_AXIS_OFFSET-10 "-"
*MEAS_COND_AXIS_OFFSET-11 "-"
*MEAS_COND_AXIS_OFFSET-12 "-"
*MEAS_COND_AXIS_POSITION-0 "65.0000000000"
*MEAS_COND_AXIS_POSITION-1 "0.0000000000"
*MEAS_COND_AXIS_POSITION-2 "5.0000000000"
*MEAS_COND_AXIS_POSITION-3 "5.0deg"
*MEAS_COND_AXIS_POSITION-4 "10.0mm"
*MEAS_COND_AXIS_POSITION-5 "1.250deg"
*MEAS_COND_AXIS_POSITION-6 "1.250deg"
*MEAS_COND_AXIS_POSITION-7 "5.0deg"
*MEAS_COND_AXIS_POSITION-8 "0.3mm"
*MEAS_COND_AXIS_POSITION-9 "None"
*MEAS_COND_AXIS_POSITION-10 "Bent"
*MEAS_COND_AXIS_POSITION-11 "671.5000000000"
*MEAS_COND_AXIS_POSITION-12 "551.2500000000"
*MEAS_COND_AXIS_UNIT-0 "deg"
*MEAS_COND_AXIS_UNIT-1 ""
*MEAS_COND_AXIS_UNIT-2 ""
*MEAS_COND_AXIS_UNIT-3 ""
*MEAS_COND_AXIS_UNIT-4 ""
*MEAS_COND_AXIS_UNIT-5 ""
*MEAS_COND_AXIS_UNIT-6 ""
*MEAS_COND_AXIS_UNIT-7 ""
*MEAS_COND_AXIS_UNIT-8 ""
*MEAS_COND_AXIS_UNIT-9 ""
*MEAS_COND_AXIS_UNIT-10 ""
*MEAS_COND_AXIS_UNIT-11 "V"
*MEAS_COND_AXIS_UNIT-12 "mV"
*MEAS_COND_CORRECTION_SLIT_COUNTERMONO "None"
*MEAS_COND_CORRECTION_SLIT_DS "1.250deg"
*MEAS_COND_CORRECTION_SLIT_FILTER "None"
*MEAS_COND_CORRECTION_SLIT_IHS "10.0mm"
*MEAS_COND_CORRECTION_SLIT_RS "0.3mm"
*MEAS_COND_CORRECTION_SLIT_SOLLER_INC "5.0deg"
*MEAS_COND_CORRECTION_SLIT_SOLLER_REC "5.0deg"
*MEAS_COND_CORRECTION_SLIT_SS "1.250deg"
*MEAS_COND_COUNTER_CNTLOSS_CORR "0.0000000000"
*MEAS_COND_COUNTER_PHABASE "551.2500000000"
*MEAS_COND_COUNTER_PHAWINDOW "926.2500000000"
*MEAS_COND_COUNTER_PHA_UNIT "mV"
*MEAS_COND_COUNTER_TAUDIFF "0.2500000000"
*MEAS_COND_COUNTER_TAUINT "0.7500000000"
*MEAS_COND_IRRADIATION_MODE "OFF"
*MEAS_COND_IRRADIATION_WIDTH ""
*MEAS_COND_OPT_ATTR " "
*MEAS_COND_OPT_NAME ""
*MEAS_COND_UNSYMMETRIC_MODE "OFF"
*MEAS_COND_XG_CURRENT "15.0000000000"
*MEAS_COND_XG_VOLTAGE "40.0000000000"
*MEAS_COND_XG_WAVE_TYPE "Ka"
*MEAS_DATA_COUNT "3001.0000000000"
*MEAS_SCAN_AXIS_X "Theta/2-Theta"
*MEAS_SCAN_AXIS_X_INTERNAL "TwoThetaTheta"
*MEAS_SCAN_END_TIME "06/10/25 20:53:31"
*MEAS_SCAN_MODE "STEP"
*MEAS_SCAN_MONITOR "0"
*MEAS_SCAN_RESOLUTION_X "0.0025"
*MEAS_SCAN_SPEED "2.00"
*MEAS_SCAN_SPEED_UNIT "sec."
*MEAS_SCAN_SPEED_USER "2.00"
*MEAS_SCAN_START "5.0000000000"
*MEAS_SCAN_START_TIME "06/10/25 19:08:15"
*MEAS_SCAN_STEP "0.0200000000"
*MEAS_SCAN_STOP "65.0000000000"
*MEAS_SCAN_UNIT_X "deg"
*MEAS_SCAN_UNIT_Y "counts"
*SLIT_SYSTEM "0"
*RAS_HEADER_END
*RAS_INT_START
5.0000 978.0000 1.0000
5.0200 859.0000 1.0000
5.0400 867.0000 1.0000
5.0600 845.0000 1.0000
5.0800 860.0000 1.0000
5.1000 849.0000 1.0000
5.1200 817.0000 1.0000
5.1400 919.0000 1.0000
5.1600 890.0000 1.0000
5.1800 779.0000 1.0000
5.2000 747.0000 1.0000
5.2200 862.0000 1.0000
5.2400 827.0000 1.0000
5.2600 845.0000 1.0000
5.2800 863.0000 1.0000
5.3000 839.0000 1.0000
5.3200 849.0000 1.0000
5.3400 797.0000 1.0000
5.3600 780.0000 1.0000
5.3800 732.0000 1.0000
5.4000 747.0000 1.0000
5.4200 806.0000 1.0000
5.4400 882.0000 1.0000
5.4600 804.0000 1.0000
5.4800 729.0000 1.0000
5.5000 744.0000 1.0000
5.5200 809.0000 1.0000
5.5400 701.0000 1.0000
5.5600 719.0000 1.0000
5.5800 703.0000 1.0000
5.6000 714.0000 1.0000
5.6200 704.0000 1.0000
5.6400 699.0000 1.0000
5.6600 673.0000 1.0000
5.6800 677.0000 1.0000
5.7000 672.0000 1.0000
5.7200 669.0000 1.0000
5.7400 686.0000 1.0000
5.7600 733.0000 1.0000
5.7800 737.0000 1.0000
5.8000 757.0000 1.0000
5.8200 722.0000 1.0000
5.8400 620.0000 1.0000
5.8600 612.0000 1.0000
5.8800 654.0000 1.0000
5.9000 677.0000 1.0000
5.9200 697.0000 1.0000
5.9400 651.0000 1.0000
5.9600 680.0000 1.0000
5.9800 675.0000 1.0000
6.0000 644.0000 1.0000
6.0200 707.0000 1.0000
6.0400 652.0000 1.0000
6.0600 666.0000 1.0000
6.0800 673.0000 1.0000
6.1000 661.0000 1.0000
6.1200 616.0000 1.0000
6.1400 663.0000 1.0000
6.1600 649.0000 1.0000
6.1800 635.0000 1.0000
6.2000 593.0000 1.0000
6.2200 625.0000 1.0000
6.2400 626.0000 1.0000
6.2600 564.0000 1.0000
6.2800 607.0000 1.0000
6.3000 640.0000 1.0000
6.3200 564.0000 1.0000
6.3400 557.0000 1.0000
6.3600 579.0000 1.0000
6.3800 530.0000 1.0000
6.4000 525.0000 1.0000
6.4200 556.0000 1.0000
6.4400 577.0000 1.0000
6.4600 546.0000 1.0000
6.4800 522.0000 1.0000
6.5000 514.0000 1.0000
6.5200 521.0000 1.0000
6.5400 540.0000 1.0000
6.5600 598.0000 1.0000
6.5800 605.0000 1.0000
6.6000 557.0000 1.0000
6.6200 595.0000 1.0000
6.6400 565.0000 1.0000
6.6600 505.0000 1.0000
6.6800 531.0000 1.0000
6.7000 510.0000 1.0000
6.7200 495.0000 1.0000
6.7400 493.0000 1.0000
6.7600 522.0000 1.0000
6.7800 529.0000 1.0000
6.8000 459.0000 1.0000
6.8200 471.0000 1.0000
6.8400 486.0000 1.0000
6.8600 517.0000 1.0000
6.8800 538.0000 1.0000
6.9000 525.0000 1.0000
6.9200 518.0000 1.0000
6.9400 525.0000 1.0000
6.9600 526.0000 1.0000
6.9800 460.0000 1.0000
7.0000 424.0000 1.0000
7.0200 439.0000 1.0000
7.0400 454.0000 1.0000
7.0600 431.0000 1.0000
7.0800 433.0000 1.0000
7.1000 476.0000 1.0000
7.1200 493.0000 1.0000
7.1400 463.0000 1.0000
7.1600 470.0000 1.0000
7.1800 489.0000 1.0000
7.2000 462.0000 1.0000
7.2200 453.0000 1.0000
7.2400 444.0000 1.0000
7.2600 445.0000 1.0000
7.2800 464.0000 1.0000
7.3000 496.0000 1.0000
7.3200 477.0000 1.0000
7.3400 461.0000 1.0000
7.3600 495.0000 1.0000
7.3800 481.0000 1.0000
7.4000 472.0000 1.0000
7.4200 466.0000 1.0000
7.4400 444.0000 1.0000
7.4600 446.0000 1.0000
7.4800 440.0000 1.0000
7.5000 441.0000 1.0000
7.5200 437.0000 1.0000
7.5400 436.0000 1.0000
7.5600 452.0000 1.0000
7.5800 384.0000 1.0000
7.6000 396.0000 1.0000
7.6200 436.0000 1.0000
7.6400 389.0000 1.0000
7.6600 405.0000 1.0000
7.6800 467.0000 1.0000
7.7000 444.0000 1.0000
7.7200 404.0000 1.0000
7.7400 451.0000 1.0000
7.7600 448.0000 1.0000
7.7800 411.0000 1.0000
7.8000 443.0000 1.0000
7.8200 485.0000 1.0000
7.8400 462.0000 1.0000
7.8600 449.0000 1.0000
7.8800 434.0000 1.0000
7.9000 409.0000 1.0000
7.9200 413.0000 1.0000
7.9400 426.0000 1.0000
7.9600 418.0000 1.0000
7.9800 454.0000 1.0000
8.0000 444.0000 1.0000
8.0200 433.0000 1.0000
8.0400 430.0000 1.0000
8.0600 452.0000 1.0000
8.0800 453.0000 1.0000
8.1000 457.0000 1.0000
8.1200 446.0000 1.0000
8.1400 454.0000 1.0000
8.1600 497.0000 1.0000
8.1800 505.0000 1.0000
8.2000 524.0000 1.0000
8.2200 557.0000 1.0000
8.2400 553.0000 1.0000
8.2600 575.0000 1.0000
8.2800 584.0000 1.0000
8.3000 576.0000 1.0000
8.3200 575.0000 1.0000
8.3400 591.0000 1.0000
8.3600 621.0000 1.0000
8.3800 696.0000 1.0000
8.4000 698.0000 1.0000
8.4200 710.0000 1.0000
8.4400 766.0000 1.0000
8.4600 830.0000 1.0000
8.4800 912.0000 1.0000
8.5000 991.0000 1.0000
8.5200 1039.0000 1.0000
8.5400 1125.0000 1.0000
8.5600 1170.0000 1.0000
8.5800 1185.0000 1.0000
8.6000 1191.0000 1.0000
8.6200 1175.0000 1.0000
8.6400 1120.0000 1.0000
8.6600 1167.0000 1.0000
8.6800 1106.0000 1.0000
8.7000 1055.0000 1.0000
8.7200 921.0000 1.0000
8.7400 727.0000 1.0000
8.7600 663.0000 1.0000
8.7800 555.0000 1.0000
8.8000 465.0000 1.0000
8.8200 419.0000 1.0000
8.8400 406.0000 1.0000
8.8600 386.0000 1.0000
8.8800 356.0000 1.0000
8.9000 370.0000 1.0000
8.9200 367.0000 1.0000
8.9400 311.0000 1.0000
8.9600 342.0000 1.0000
8.9800 329.0000 1.0000
9.0000 316.0000 1.0000
9.0200 307.0000 1.0000
9.0400 314.0000 1.0000
9.0600 270.0000 1.0000
9.0800 288.0000 1.0000
9.1000 302.0000 1.0000
9.1200 322.0000 1.0000
9.1400 282.0000 1.0000
9.1600 294.0000 1.0000
9.1800 295.0000 1.0000
9.2000 295.0000 1.0000
9.2200 298.0000 1.0000
9.2400 265.0000 1.0000
9.2600 285.0000 1.0000
9.2800 286.0000 1.0000
9.3000 275.0000 1.0000
9.3200 249.0000 1.0000
9.3400 260.0000 1.0000
9.3600 297.0000 1.0000
9.3800 277.0000 1.0000
9.4000 296.0000 1.0000
9.4200 288.0000 1.0000
9.4400 261.0000 1.0000
9.4600 253.0000 1.0000
9.4800 290.0000 1.0000
9.5000 246.0000 1.0000
9.5200 240.0000 1.0000
9.5400 241.0000 1.0000
9.5600 268.0000 1.0000
9.5800 242.0000 1.0000
9.6000 226.0000 1.0000
9.6200 247.0000 1.0000
9.6400 258.0000 1.0000
9.6600 226.0000 1.0000
9.6800 243.0000 1.0000
9.7000 208.0000 1.0000
9.7200 244.0000 1.0000
9.7400 238.0000 1.0000
9.7600 234.0000 1.0000
9.7800 241.0000 1.0000
9.8000 246.0000 1.0000
9.8200 202.0000 1.0000
9.8400 230.0000 1.0000
9.8600 184.0000 1.0000
9.8800 229.0000 1.0000
9.9000 242.0000 1.0000
9.9200 260.0000 1.0000
9.9400 239.0000 1.0000
9.9600 206.0000 1.0000
9.9800 238.0000 1.0000
10.0000 236.0000 1.0000
10.0200 241.0000 1.0000
10.0400 201.0000 1.0000
10.0600 260.0000 1.0000
10.0800 235.0000 1.0000
10.1000 218.0000 1.0000
10.1200 205.0000 1.0000
10.1400 229.0000 1.0000
10.1600 234.0000 1.0000
10.1800 248.0000 1.0000
10.2000 227.0000 1.0000
10.2200 243.0000 1.0000
10.2400 294.0000 1.0000
10.2600 240.0000 1.0000
10.2800 249.0000 1.0000
10.3000 261.0000 1.0000
10.3200 235.0000 1.0000
10.3400 244.0000 1.0000
10.3600 235.0000 1.0000
10.3800 241.0000 1.0000
10.4000 250.0000 1.0000
10.4200 255.0000 1.0000
10.4400 197.0000 1.0000
10.4600 213.0000 1.0000
10.4800 207.0000 1.0000
10.5000 224.0000 1.0000
10.5200 226.0000 1.0000
10.5400 225.0000 1.0000
10.5600 163.0000 1.0000
10.5800 196.0000 1.0000
10.6000 224.0000 1.0000
10.6200 222.0000 1.0000
10.6400 202.0000 1.0000
10.6600 188.0000 1.0000
10.6800 186.0000 1.0000
10.7000 215.0000 1.0000
10.7200 216.0000 1.0000
10.7400 235.0000 1.0000
10.7600 205.0000 1.0000
10.7800 177.0000 1.0000
10.8000 242.0000 1.0000
10.8200 238.0000 1.0000
10.8400 198.0000 1.0000
10.8600 198.0000 1.0000
10.8800 194.0000 1.0000
10.9000 225.0000 1.0000
10.9200 178.0000 1.0000
10.9400 181.0000 1.0000
10.9600 212.0000 1.0000
10.9800 223.0000 1.0000
11.0000 212.0000 1.0000
11.0200 193.0000 1.0000
11.0400 195.0000 1.0000
11.0600 171.0000 1.0000
11.0800 211.0000 1.0000
11.1000 194.0000 1.0000
11.1200 212.0000 1.0000
11.1400 180.0000 1.0000
11.1600 174.0000 1.0000
11.1800 199.0000 1.0000
11.2000 190.0000 1.0000
11.2200 190.0000 1.0000
11.2400 155.0000 1.0000
11.2600 178.0000 1.0000
11.2800 189.0000 1.0000
11.3000 207.0000 1.0000
11.3200 180.0000 1.0000
11.3400 171.0000 1.0000
11.3600 178.0000 1.0000
11.3800 202.0000 1.0000
11.4000 189.0000 1.0000
11.4200 175.0000 1.0000
11.4400 198.0000 1.0000
11.4600 176.0000 1.0000
11.4800 182.0000 1.0000
11.5000 161.0000 1.0000
11.5200 201.0000 1.0000
11.5400 180.0000 1.0000
11.5600 162.0000 1.0000
11.5800 166.0000 1.0000
11.6000 195.0000 1.0000
11.6200 182.0000 1.0000
11.6400 185.0000 1.0000
11.6600 191.0000 1.0000
11.6800 183.0000 1.0000
11.7000 189.0000 1.0000
11.7200 182.0000 1.0000
11.7400 162.0000 1.0000
11.7600 169.0000 1.0000
11.7800 171.0000 1.0000
11.8000 166.0000 1.0000
11.8200 177.0000 1.0000
11.8400 155.0000 1.0000
11.8600 167.0000 1.0000
11.8800 161.0000 1.0000
11.9000 148.0000 1.0000
11.9200 171.0000 1.0000
11.9400 147.0000 1.0000
11.9600 169.0000 1.0000
11.9800 172.0000 1.0000
12.0000 182.0000 1.0000
12.0200 163.0000 1.0000
12.0400 171.0000 1.0000
12.0600 186.0000 1.0000
12.0800 163.0000 1.0000
12.1000 159.0000 1.0000
12.1200 170.0000 1.0000
12.1400 182.0000 1.0000
12.1600 174.0000 1.0000
12.1800 180.0000 1.0000
12.2000 178.0000 1.0000
12.2200 201.0000 1.0000
12.2400 193.0000 1.0000
12.2600 200.0000 1.0000
12.2800 189.0000 1.0000
12.3000 182.0000 1.0000
12.3200 219.0000 1.0000
12.3400 203.0000 1.0000
12.3600 192.0000 1.0000
12.3800 162.0000 1.0000
12.4000 186.0000 1.0000
12.4200 181.0000 1.0000
12.4400 180.0000 1.0000
12.4600 195.0000 1.0000
12.4800 171.0000 1.0000
12.5000 187.0000 1.0000
12.5200 163.0000 1.0000
12.5400 160.0000 1.0000
12.5600 147.0000 1.0000
12.5800 164.0000 1.0000
12.6000 190.0000 1.0000
12.6200 178.0000 1.0000
12.6400 145.0000 1.0000
12.6600 137.0000 1.0000
12.6800 140.0000 1.0000
12.7000 152.0000 1.0000
12.7200 153.0000 1.0000
12.7400 141.0000 1.0000
12.7600 133.0000 1.0000
12.7800 154.0000 1.0000
12.8000 159.0000 1.0000
12.8200 178.0000 1.0000
12.8400 185.0000 1.0000
12.8600 176.0000 1.0000
12.8800 170.0000 1.0000
12.9000 181.0000 1.0000
12.9200 184.0000 1.0000
12.9400 201.0000 1.0000
12.9600 204.0000 1.0000
12.9800 192.0000 1.0000
13.0000 167.0000 1.0000
13.0200 200.0000 1.0000
13.0400 176.0000 1.0000
13.0600 162.0000 1.0000
13.0800 166.0000 1.0000
13.1000 163.0000 1.0000
13.1200 160.0000 1.0000
13.1400 165.0000 1.0000
13.1600 155.0000 1.0000
13.1800 156.0000 1.0000
13.2000 169.0000 1.0000
13.2200 198.0000 1.0000
13.2400 182.0000 1.0000
13.2600 182.0000 1.0000
13.2800 176.0000 1.0000
13.3000 181.0000 1.0000
13.3200 180.0000 1.0000
13.3400 196.0000 1.0000
13.3600 206.0000 1.0000
13.3800 208.0000 1.0000
13.4000 237.0000 1.0000
13.4200 248.0000 1.0000
13.4400 266.0000 1.0000
13.4600 291.0000 1.0000
13.4800 276.0000 1.0000
13.5000 288.0000 1.0000
13.5200 292.0000 1.0000
13.5400 297.0000 1.0000
13.5600 309.0000 1.0000
13.5800 331.0000 1.0000
13.6000 314.0000 1.0000
13.6200 310.0000 1.0000
13.6400 344.0000 1.0000
13.6600 386.0000 1.0000
13.6800 386.0000 1.0000
13.7000 403.0000 1.0000
13.7200 417.0000 1.0000
13.7400 383.0000 1.0000
13.7600 384.0000 1.0000
13.7800 354.0000 1.0000
13.8000 317.0000 1.0000
13.8200 287.0000 1.0000
13.8400 257.0000 1.0000
13.8600 207.0000 1.0000
13.8800 213.0000 1.0000
13.9000 206.0000 1.0000
13.9200 161.0000 1.0000
13.9400 170.0000 1.0000
13.9600 170.0000 1.0000
13.9800 151.0000 1.0000
14.0000 127.0000 1.0000
14.0200 123.0000 1.0000
14.0400 131.0000 1.0000
14.0600 144.0000 1.0000
14.0800 137.0000 1.0000
14.1000 138.0000 1.0000
14.1200 152.0000 1.0000
14.1400 134.0000 1.0000
14.1600 132.0000 1.0000
14.1800 140.0000 1.0000
14.2000 124.0000 1.0000
14.2200 120.0000 1.0000
14.2400 135.0000 1.0000
14.2600 126.0000 1.0000
14.2800 115.0000 1.0000
14.3000 126.0000 1.0000
14.3200 139.0000 1.0000
14.3400 119.0000 1.0000
14.3600 115.0000 1.0000
14.3800 133.0000 1.0000
14.4000 133.0000 1.0000
14.4200 144.0000 1.0000
14.4400 143.0000 1.0000
14.4600 126.0000 1.0000
14.4800 131.0000 1.0000
14.5000 137.0000 1.0000
14.5200 148.0000 1.0000
14.5400 148.0000 1.0000
14.5600 149.0000 1.0000
14.5800 151.0000 1.0000
14.6000 150.0000 1.0000
14.6200 154.0000 1.0000
14.6400 173.0000 1.0000
14.6600 169.0000 1.0000
14.6800 163.0000 1.0000
14.7000 172.0000 1.0000
14.7200 182.0000 1.0000
14.7400 185.0000 1.0000
14.7600 200.0000 1.0000
14.7800 204.0000 1.0000
14.8000 205.0000 1.0000
14.8200 220.0000 1.0000
14.8400 221.0000 1.0000
14.8600 214.0000 1.0000
14.8800 204.0000 1.0000
14.9000 181.0000 1.0000
14.9200 177.0000 1.0000
14.9400 192.0000 1.0000
14.9600 168.0000 1.0000
14.9800 155.0000 1.0000
15.0000 162.0000 1.0000
15.0200 163.0000 1.0000
15.0400 153.0000 1.0000
15.0600 133.0000 1.0000
15.0800 134.0000 1.0000
15.1000 143.0000 1.0000
15.1200 146.0000 1.0000
15.1400 153.0000 1.0000
15.1600 144.0000 1.0000
15.1800 125.0000 1.0000
15.2000 115.0000 1.0000
15.2200 121.0000 1.0000
15.2400 140.0000 1.0000
15.2600 137.0000 1.0000
15.2800 126.0000 1.0000
15.3000 116.0000 1.0000
15.3200 115.0000 1.0000
15.3400 121.0000 1.0000
15.3600 124.0000 1.0000
15.3800 125.0000 1.0000
15.4000 112.0000 1.0000
15.4200 120.0000 1.0000
15.4400 130.0000 1.0000
15.4600 115.0000 1.0000
15.4800 117.0000 1.0000
15.5000 126.0000 1.0000
15.5200 139.0000 1.0000
15.5400 146.0000 1.0000
15.5600 142.0000 1.0000
15.5800 133.0000 1.0000
15.6000 134.0000 1.0000
15.6200 134.0000 1.0000
15.6400 140.0000 1.0000
15.6600 145.0000 1.0000
15.6800 148.0000 1.0000
15.7000 154.0000 1.0000
15.7200 141.0000 1.0000
15.7400 133.0000 1.0000
15.7600 131.0000 1.0000
15.7800 120.0000 1.0000
15.8000 128.0000 1.0000
15.8200 120.0000 1.0000
15.8400 114.0000 1.0000
15.8600 128.0000 1.0000
15.8800 123.0000 1.0000
15.9000 107.0000 1.0000
15.9200 111.0000 1.0000
15.9400 123.0000 1.0000
15.9600 126.0000 1.0000
15.9800 123.0000 1.0000
16.0000 121.0000 1.0000
16.0200 124.0000 1.0000
16.0400 123.0000 1.0000
16.0600 122.0000 1.0000
16.0800 125.0000 1.0000
16.1000 124.0000 1.0000
16.1200 130.0000 1.0000
16.1400 110.0000 1.0000
16.1600 108.0000 1.0000
16.1800 117.0000 1.0000
16.2000 116.0000 1.0000
16.2200 112.0000 1.0000
16.2400 107.0000 1.0000
16.2600 113.0000 1.0000
16.2800 115.0000 1.0000
16.3000 120.0000 1.0000
16.3200 115.0000 1.0000
16.3400 120.0000 1.0000
16.3600 119.0000 1.0000
16.3800 116.0000 1.0000
16.4000 118.0000 1.0000
16.4200 111.0000 1.0000
16.4400 112.0000 1.0000
16.4600 126.0000 1.0000
16.4800 115.0000 1.0000
16.5000 111.0000 1.0000
16.5200 112.0000 1.0000
16.5400 94.0000 1.0000
16.5600 109.0000 1.0000
16.5800 108.0000 1.0000
16.6000 100.0000 1.0000
16.6200 106.0000 1.0000
16.6400 108.0000 1.0000
16.6600 123.0000 1.0000
16.6800 124.0000 1.0000
16.7000 122.0000 1.0000
16.7200 111.0000 1.0000
16.7400 123.0000 1.0000
16.7600 127.0000 1.0000
16.7800 117.0000 1.0000
16.8000 107.0000 1.0000
16.8200 101.0000 1.0000
16.8400 115.0000 1.0000
16.8600 106.0000 1.0000
16.8800 114.0000 1.0000
16.9000 122.0000 1.0000
16.9200 111.0000 1.0000
16.9400 126.0000 1.0000
16.9600 125.0000 1.0000
16.9800 122.0000 1.0000
17.0000 122.0000 1.0000
17.0200 111.0000 1.0000
17.0400 102.0000 1.0000
17.0600 113.0000 1.0000
17.0800 113.0000 1.0000
17.1000 123.0000 1.0000
17.1200 125.0000 1.0000
17.1400 118.0000 1.0000
17.1600 117.0000 1.0000
17.1800 122.0000 1.0000
17.2000 106.0000 1.0000
17.2200 127.0000 1.0000
17.2400 142.0000 1.0000
17.2600 114.0000 1.0000
17.2800 107.0000 1.0000
17.3000 114.0000 1.0000
17.3200 134.0000 1.0000
17.3400 115.0000 1.0000
17.3600 126.0000 1.0000
17.3800 129.0000 1.0000
17.4000 123.0000 1.0000
17.4200 117.0000 1.0000
17.4400 123.0000 1.0000
17.4600 120.0000 1.0000
17.4800 130.0000 1.0000
17.5000 126.0000 1.0000
17.5200 123.0000 1.0000
17.5400 134.0000 1.0000
17.5600 140.0000 1.0000
17.5800 145.0000 1.0000
17.6000 147.0000 1.0000
17.6200 122.0000 1.0000
17.6400 127.0000 1.0000
17.6600 123.0000 1.0000
17.6800 130.0000 1.0000
17.7000 124.0000 1.0000
17.7200 117.0000 1.0000
17.7400 106.0000 1.0000
17.7600 111.0000 1.0000
17.7800 124.0000 1.0000
17.8000 117.0000 1.0000
17.8200 121.0000 1.0000
17.8400 111.0000 1.0000
17.8600 111.0000 1.0000
17.8800 131.0000 1.0000
17.9000 116.0000 1.0000
17.9200 120.0000 1.0000
17.9400 106.0000 1.0000
17.9600 119.0000 1.0000
17.9800 121.0000 1.0000
18.0000 122.0000 1.0000
18.0200 124.0000 1.0000
18.0400 113.0000 1.0000
18.0600 117.0000 1.0000
18.0800 126.0000 1.0000
18.1000 110.0000 1.0000
18.1200 106.0000 1.0000
18.1400 123.0000 1.0000
18.1600 136.0000 1.0000
18.1800 115.0000 1.0000
18.2000 113.0000 1.0000
18.2200 125.0000 1.0000
18.2400 115.0000 1.0000
18.2600 118.0000 1.0000
18.2800 115.0000 1.0000
18.3000 101.0000 1.0000
18.3200 118.0000 1.0000
18.3400 121.0000 1.0000
18.3600 103.0000 1.0000
18.3800 114.0000 1.0000
18.4000 121.0000 1.0000
18.4200 104.0000 1.0000
18.4400 121.0000 1.0000
18.4600 109.0000 1.0000
18.4800 109.0000 1.0000
18.5000 114.0000 1.0000
18.5200 141.0000 1.0000
18.5400 116.0000 1.0000
18.5600 125.0000 1.0000
18.5800 125.0000 1.0000
18.6000 114.0000 1.0000
18.6200 108.0000 1.0000
18.6400 130.0000 1.0000
18.6600 134.0000 1.0000
18.6800 136.0000 1.0000
18.7000 130.0000 1.0000
18.7200 135.0000 1.0000
18.7400 141.0000 1.0000
18.7600 135.0000 1.0000
18.7800 138.0000 1.0000
18.8000 140.0000 1.0000
18.8200 146.0000 1.0000
18.8400 131.0000 1.0000
18.8600 111.0000 1.0000
18.8800 121.0000 1.0000
18.9000 136.0000 1.0000
18.9200 123.0000 1.0000
18.9400 126.0000 1.0000
18.9600 129.0000 1.0000
18.9800 141.0000 1.0000
19.0000 161.0000 1.0000
19.0200 141.0000 1.0000
19.0400 147.0000 1.0000
19.0600 166.0000 1.0000
19.0800 163.0000 1.0000
19.1000 152.0000 1.0000
19.1200 156.0000 1.0000
19.1400 140.0000 1.0000
19.1600 180.0000 1.0000
19.1800 158.0000 1.0000
19.2000 141.0000 1.0000
19.2200 163.0000 1.0000
19.2400 155.0000 1.0000
19.2600 129.0000 1.0000
19.2800 158.0000 1.0000
19.3000 139.0000 1.0000
19.3200 133.0000 1.0000
19.3400 145.0000 1.0000
19.3600 136.0000 1.0000
19.3800 149.0000 1.0000
19.4000 135.0000 1.0000
19.4200 134.0000 1.0000
19.4400 134.0000 1.0000
19.4600 137.0000 1.0000
19.4800 140.0000 1.0000
19.5000 147.0000 1.0000
19.5200 151.0000 1.0000
19.5400 146.0000 1.0000
19.5600 145.0000 1.0000
19.5800 161.0000 1.0000
19.6000 159.0000 1.0000
19.6200 172.0000 1.0000
19.6400 166.0000 1.0000
19.6600 172.0000 1.0000
19.6800 171.0000 1.0000
19.7000 170.0000 1.0000
19.7200 177.0000 1.0000
19.7400 164.0000 1.0000
19.7600 177.0000 1.0000
19.7800 169.0000 1.0000
19.8000 166.0000 1.0000
19.8200 161.0000 1.0000
19.8400 158.0000 1.0000
19.8600 161.0000 1.0000
19.8800 155.0000 1.0000
19.9000 144.0000 1.0000
19.9200 152.0000 1.0000
19.9400 164.0000 1.0000
19.9600 171.0000 1.0000
19.9800 151.0000 1.0000
20.0000 136.0000 1.0000
20.0200 146.0000 1.0000
20.0400 159.0000 1.0000
20.0600 141.0000 1.0000
20.0800 180.0000 1.0000
20.1000 155.0000 1.0000
20.1200 169.0000 1.0000
20.1400 168.0000 1.0000
20.1600 150.0000 1.0000
20.1800 161.0000 1.0000
20.2000 170.0000 1.0000
20.2200 179.0000 1.0000
20.2400 188.0000 1.0000
20.2600 179.0000 1.0000
20.2800 216.0000 1.0000
20.3000 229.0000 1.0000
20.3200 244.0000 1.0000
20.3400 258.0000 1.0000
20.3600 300.0000 1.0000
20.3800 279.0000 1.0000
20.4000 311.0000 1.0000
20.4200 289.0000 1.0000
20.4400 343.0000 1.0000
20.4600 353.0000 1.0000
20.4800 438.0000 1.0000
20.5000 505.0000 1.0000
20.5200 596.0000 1.0000
20.5400 694.0000 1.0000
20.5600 813.0000 1.0000
20.5800 1015.0000 1.0000
20.6000 1211.0000 1.0000
20.6200 1455.0000 1.0000
20.6400 1781.0000 1.0000
20.6600 2132.0000 1.0000
20.6800 2335.0000 1.0000
20.7000 2572.0000 1.0000
20.7200 2629.0000 1.0000
20.7400 2585.0000 1.0000
20.7600 2335.0000 1.0000
20.7800 2077.0000 1.0000
20.8000 1687.0000 1.0000
20.8200 1311.0000 1.0000
20.8400 1032.0000 1.0000
20.8600 843.0000 1.0000
20.8800 733.0000 1.0000
20.9000 636.0000 1.0000
20.9200 518.0000 1.0000
20.9400 465.0000 1.0000
20.9600 403.0000 1.0000
20.9800 363.0000 1.0000
21.0000 311.0000 1.0000
21.0200 294.0000 1.0000
21.0400 253.0000 1.0000
21.0600 222.0000 1.0000
21.0800 207.0000 1.0000
21.1000 193.0000 1.0000
21.1200 187.0000 1.0000
21.1400 177.0000 1.0000
21.1600 163.0000 1.0000
21.1800 175.0000 1.0000
21.2000 176.0000 1.0000
21.2200 174.0000 1.0000
21.2400 165.0000 1.0000
21.2600 178.0000 1.0000
21.2800 175.0000 1.0000
21.3000 158.0000 1.0000
21.3200 181.0000 1.0000
21.3400 177.0000 1.0000
21.3600 154.0000 1.0000
21.3800 181.0000 1.0000
21.4000 186.0000 1.0000
21.4200 166.0000 1.0000
21.4400 182.0000 1.0000
21.4600 195.0000 1.0000
21.4800 195.0000 1.0000
21.5000 233.0000 1.0000
21.5200 214.0000 1.0000
21.5400 222.0000 1.0000
21.5600 248.0000 1.0000
21.5800 236.0000 1.0000
21.6000 229.0000 1.0000
21.6200 251.0000 1.0000
21.6400 307.0000 1.0000
21.6600 326.0000 1.0000
21.6800 365.0000 1.0000
21.7000 414.0000 1.0000
21.7200 499.0000 1.0000
21.7400 583.0000 1.0000
21.7600 680.0000 1.0000
21.7800 763.0000 1.0000
21.8000 890.0000 1.0000
21.8200 944.0000 1.0000
21.8400 1040.0000 1.0000
21.8600 1075.0000 1.0000
21.8800 1120.0000 1.0000
21.9000 1083.0000 1.0000
21.9200 1038.0000 1.0000
21.9400 899.0000 1.0000
21.9600 749.0000 1.0000
21.9800 554.0000 1.0000
22.0000 454.0000 1.0000
22.0200 385.0000 1.0000
22.0400 361.0000 1.0000
22.0600 318.0000 1.0000
22.0800 292.0000 1.0000
22.1000 310.0000 1.0000
22.1200 308.0000 1.0000
22.1400 283.0000 1.0000
22.1600 296.0000 1.0000
22.1800 258.0000 1.0000
22.2000 250.0000 1.0000
22.2200 257.0000 1.0000
22.2400 219.0000 1.0000
22.2600 206.0000 1.0000
22.2800 181.0000 1.0000
22.3000 188.0000 1.0000
22.3200 182.0000 1.0000
22.3400 158.0000 1.0000
22.3600 170.0000 1.0000
22.3800 195.0000 1.0000
22.4000 200.0000 1.0000
22.4200 188.0000 1.0000
22.4400 179.0000 1.0000
22.4600 202.0000 1.0000
22.4800 205.0000 1.0000
22.5000 191.0000 1.0000
22.5200 202.0000 1.0000
22.5400 230.0000 1.0000
22.5600 210.0000 1.0000
22.5800 186.0000 1.0000
22.6000 198.0000 1.0000
22.6200 194.0000 1.0000
22.6400 207.0000 1.0000
22.6600 230.0000 1.0000
22.6800 247.0000 1.0000
22.7000 250.0000 1.0000
22.7200 268.0000 1.0000
22.7400 288.0000 1.0000
22.7600 317.0000 1.0000
22.7800 351.0000 1.0000
22.8000 375.0000 1.0000
22.8200 395.0000 1.0000
22.8400 400.0000 1.0000
22.8600 413.0000 1.0000
22.8800 417.0000 1.0000
22.9000 416.0000 1.0000
22.9200 399.0000 1.0000
22.9400 413.0000 1.0000
22.9600 415.0000 1.0000
22.9800 395.0000 1.0000
23.0000 397.0000 1.0000
23.0200 379.0000 1.0000
23.0400 412.0000 1.0000
23.0600 404.0000 1.0000
23.0800 376.0000 1.0000
23.1000 386.0000 1.0000
23.1200 347.0000 1.0000
23.1400 312.0000 1.0000
23.1600 297.0000 1.0000
23.1800 281.0000 1.0000
23.2000 270.0000 1.0000
23.2200 263.0000 1.0000
23.2400 271.0000 1.0000
23.2600 319.0000 1.0000
23.2800 324.0000 1.0000
23.3000 363.0000 1.0000
23.3200 402.0000 1.0000
23.3400 455.0000 1.0000
23.3600 539.0000 1.0000
23.3800 540.0000 1.0000
23.4000 615.0000 1.0000
23.4200 643.0000 1.0000
23.4400 696.0000 1.0000
23.4600 669.0000 1.0000
23.4800 668.0000 1.0000
23.5000 637.0000 1.0000
23.5200 555.0000 1.0000
23.5400 497.0000 1.0000
23.5600 434.0000 1.0000
23.5800 372.0000 1.0000
23.6000 341.0000 1.0000
23.6200 315.0000 1.0000
23.6400 295.0000 1.0000
23.6600 284.0000 1.0000
23.6800 303.0000 1.0000
23.7000 330.0000 1.0000
23.7200 370.0000 1.0000
23.7400 413.0000 1.0000
23.7600 457.0000 1.0000
23.7800 549.0000 1.0000
23.8000 573.0000 1.0000
23.8200 608.0000 1.0000
23.8400 674.0000 1.0000
23.8600 684.0000 1.0000
23.8800 711.0000 1.0000
23.9000 734.0000 1.0000
23.9200 713.0000 1.0000
23.9400 714.0000 1.0000
23.9600 710.0000 1.0000
23.9800 705.0000 1.0000
24.0000 723.0000 1.0000
24.0200 769.0000 1.0000
24.0400 816.0000 1.0000
24.0600 789.0000 1.0000
24.0800 795.0000 1.0000
24.1000 809.0000 1.0000
24.1200 792.0000 1.0000
24.1400 760.0000 1.0000
24.1600 734.0000 1.0000
24.1800 711.0000 1.0000
24.2000 666.0000 1.0000
24.2200 578.0000 1.0000
24.2400 533.0000 1.0000
24.2600 454.0000 1.0000
24.2800 397.0000 1.0000
24.3000 339.0000 1.0000
24.3200 289.0000 1.0000
24.3400 261.0000 1.0000
24.3600 242.0000 1.0000
24.3800 215.0000 1.0000
24.4000 237.0000 1.0000
24.4200 208.0000 1.0000
24.4400 229.0000 1.0000
24.4600 248.0000 1.0000
24.4800 234.0000 1.0000
24.5000 232.0000 1.0000
24.5200 215.0000 1.0000
24.5400 232.0000 1.0000
24.5600 225.0000 1.0000
24.5800 217.0000 1.0000
24.6000 213.0000 1.0000
24.6200 204.0000 1.0000
24.6400 204.0000 1.0000
24.6600 193.0000 1.0000
24.6800 195.0000 1.0000
24.7000 193.0000 1.0000
24.7200 181.0000 1.0000
24.7400 173.0000 1.0000
24.7600 180.0000 1.0000
24.7800 189.0000 1.0000
24.8000 177.0000 1.0000
24.8200 180.0000 1.0000
24.8400 186.0000 1.0000
24.8600 162.0000 1.0000
24.8800 174.0000 1.0000
24.9000 200.0000 1.0000
24.9200 198.0000 1.0000
24.9400 196.0000 1.0000
24.9600 186.0000 1.0000
24.9800 186.0000 1.0000
25.0000 200.0000 1.0000
25.0200 221.0000 1.0000
25.0400 225.0000 1.0000
25.0600 232.0000 1.0000
25.0800 243.0000 1.0000
25.1000 270.0000 1.0000
25.1200 290.0000 1.0000
25.1400 306.0000 1.0000
25.1600 324.0000 1.0000
25.1800 365.0000 1.0000
25.2000 398.0000 1.0000
25.2200 480.0000 1.0000
25.2400 564.0000 1.0000
25.2600 665.0000 1.0000
25.2800 805.0000 1.0000
25.3000 921.0000 1.0000
25.3200 1058.0000 1.0000
25.3400 1177.0000 1.0000
25.3600 1340.0000 1.0000
25.3800 1489.0000 1.0000
25.4000 1581.0000 1.0000
25.4200 1655.0000 1.0000
25.4400 1626.0000 1.0000
25.4600 1520.0000 1.0000
25.4800 1395.0000 1.0000
25.5000 1234.0000 1.0000
25.5200 1042.0000 1.0000
25.5400 855.0000 1.0000
25.5600 729.0000 1.0000
25.5800 620.0000 1.0000
25.6000 490.0000 1.0000
25.6200 426.0000 1.0000
25.6400 393.0000 1.0000
25.6600 362.0000 1.0000
25.6800 333.0000 1.0000
25.7000 303.0000 1.0000
25.7200 303.0000 1.0000
25.7400 309.0000 1.0000
25.7600 295.0000 1.0000
25.7800 292.0000 1.0000
25.8000 287.0000 1.0000
25.8200 314.0000 1.0000
25.8400 338.0000 1.0000
25.8600 324.0000 1.0000
25.8800 320.0000 1.0000
25.9000 347.0000 1.0000
25.9200 356.0000 1.0000
25.9400 352.0000 1.0000
25.9600 368.0000 1.0000
25.9800 413.0000 1.0000
26.0000 440.0000 1.0000
26.0200 472.0000 1.0000
26.0400 541.0000 1.0000
26.0600 604.0000 1.0000
26.0800 670.0000 1.0000
26.1000 768.0000 1.0000
26.1200 854.0000 1.0000
26.1400 985.0000 1.0000
26.1600 1103.0000 1.0000
26.1800 1218.0000 1.0000
26.2000 1329.0000 1.0000
26.2200 1506.0000 1.0000
26.2400 1736.0000 1.0000
26.2600 2003.0000 1.0000
26.2800 2297.0000 1.0000
26.3000 2623.0000 1.0000
26.3200 3013.0000 1.0000
26.3400 3730.0000 1.0000
26.3600 4553.0000 1.0000
26.3800 5484.0000 1.0000
26.4000 6755.0000 1.0000
26.4200 8235.0000 1.0000
26.4400 9768.0000 1.0000
26.4600 11042.0000 1.0000
26.4800 11779.0000 1.0000
26.5000 12142.0000 1.0000
26.5200 11752.0000 1.0000
26.5400 10557.0000 1.0000
26.5600 8918.0000 1.0000
26.5800 7024.0000 1.0000
26.6000 5250.0000 1.0000
26.6200 3726.0000 1.0000
26.6400 2557.0000 1.0000
26.6600 1762.0000 1.0000
26.6800 1243.0000 1.0000
26.7000 1026.0000 1.0000
26.7200 922.0000 1.0000
26.7400 861.0000 1.0000
26.7600 819.0000 1.0000
26.7800 776.0000 1.0000
26.8000 740.0000 1.0000
26.8200 761.0000 1.0000
26.8400 801.0000 1.0000
26.8600 785.0000 1.0000
26.8800 802.0000 1.0000
26.9000 794.0000 1.0000
26.9200 768.0000 1.0000
26.9400 730.0000 1.0000
26.9600 684.0000 1.0000
26.9800 638.0000 1.0000
27.0000 586.0000 1.0000
27.0200 546.0000 1.0000
27.0400 528.0000 1.0000
27.0600 519.0000 1.0000
27.0800 535.0000 1.0000
27.1000 566.0000 1.0000
27.1200 596.0000 1.0000
27.1400 621.0000 1.0000
27.1600 664.0000 1.0000
27.1800 774.0000 1.0000
27.2000 895.0000 1.0000
27.2200 1015.0000 1.0000
27.2400 1102.0000 1.0000
27.2600 1187.0000 1.0000
27.2800 1236.0000 1.0000
27.3000 1251.0000 1.0000
27.3200 1333.0000 1.0000
27.3400 1321.0000 1.0000
27.3600 1229.0000 1.0000
27.3800 1153.0000 1.0000
27.4000 1129.0000 1.0000
27.4200 1083.0000 1.0000
27.4400 1003.0000 1.0000
27.4600 984.0000 1.0000
27.4800 990.0000 1.0000
27.5000 1042.0000 1.0000
27.5200 1123.0000 1.0000
27.5400 1230.0000 1.0000
27.5600 1362.0000 1.0000
27.5800 1464.0000 1.0000
27.6000 1582.0000 1.0000
27.6200 1721.0000 1.0000
27.6400 1810.0000 1.0000
27.6600 1957.0000 1.0000
27.6800 2094.0000 1.0000
27.7000 2220.0000 1.0000
27.7200 2361.0000 1.0000
27.7400 2477.0000 1.0000
27.7600 2634.0000 1.0000
27.7800 2714.0000 1.0000
27.8000 2823.0000 1.0000
27.8200 2891.0000 1.0000
27.8400 2730.0000 1.0000
27.8600 2538.0000 1.0000
27.8800 2339.0000 1.0000
27.9000 2101.0000 1.0000
27.9200 1777.0000 1.0000
27.9400 1471.0000 1.0000
27.9600 1258.0000 1.0000
27.9800 1058.0000 1.0000
28.0000 933.0000 1.0000
28.0200 886.0000 1.0000
28.0400 847.0000 1.0000
28.0600 805.0000 1.0000
28.0800 801.0000 1.0000
28.1000 759.0000 1.0000
28.1200 700.0000 1.0000
28.1400 693.0000 1.0000
28.1600 662.0000 1.0000
28.1800 595.0000 1.0000
28.2000 521.0000 1.0000
28.2200 449.0000 1.0000
28.2400 429.0000 1.0000
28.2600 375.0000 1.0000
28.2800 305.0000 1.0000
28.3000 278.0000 1.0000
28.3200 264.0000 1.0000
28.3400 249.0000 1.0000
28.3600 229.0000 1.0000
28.3800 224.0000 1.0000
28.4000 217.0000 1.0000
28.4200 202.0000 1.0000
28.4400 194.0000 1.0000
28.4600 192.0000 1.0000
28.4800 184.0000 1.0000
28.5000 182.0000 1.0000
28.5200 164.0000 1.0000
28.5400 150.0000 1.0000
28.5600 164.0000 1.0000
28.5800 162.0000 1.0000
28.6000 150.0000 1.0000
28.6200 153.0000 1.0000
28.6400 154.0000 1.0000
28.6600 146.0000 1.0000
28.6800 131.0000 1.0000
28.7000 127.0000 1.0000
28.7200 149.0000 1.0000
28.7400 144.0000 1.0000
28.7600 141.0000 1.0000
28.7800 151.0000 1.0000
28.8000 148.0000 1.0000
28.8200 137.0000 1.0000
28.8400 153.0000 1.0000
28.8600 161.0000 1.0000
28.8800 148.0000 1.0000
28.9000 140.0000 1.0000
28.9200 167.0000 1.0000
28.9400 165.0000 1.0000
28.9600 146.0000 1.0000
28.9800 144.0000 1.0000
29.0000 146.0000 1.0000
29.0200 156.0000 1.0000
29.0400 156.0000 1.0000
29.0600 160.0000 1.0000
29.0800 164.0000 1.0000
29.1000 180.0000 1.0000
29.1200 173.0000 1.0000
29.1400 174.0000 1.0000
29.1600 185.0000 1.0000
29.1800 214.0000 1.0000
29.2000 246.0000 1.0000
29.2200 267.0000 1.0000
29.2400 295.0000 1.0000
29.2600 298.0000 1.0000
29.2800 297.0000 1.0000
29.3000 301.0000 1.0000
29.3200 310.0000 1.0000
29.3400 292.0000 1.0000
29.3600 273.0000 1.0000
29.3800 241.0000 1.0000
29.4000 222.0000 1.0000
29.4200 212.0000 1.0000
29.4400 190.0000 1.0000
29.4600 198.0000 1.0000
29.4800 227.0000 1.0000
29.5000 238.0000 1.0000
29.5200 210.0000 1.0000
29.5400 226.0000 1.0000
29.5600 243.0000 1.0000
29.5800 282.0000 1.0000
29.6000 305.0000 1.0000
29.6200 300.0000 1.0000
29.6400 313.0000 1.0000
29.6600 349.0000 1.0000
29.6800 369.0000 1.0000
29.7000 366.0000 1.0000
29.7200 373.0000 1.0000
29.7400 379.0000 1.0000
29.7600 395.0000 1.0000
29.7800 425.0000 1.0000
29.8000 434.0000 1.0000
29.8200 414.0000 1.0000
29.8400 413.0000 1.0000
29.8600 388.0000 1.0000
29.8800 372.0000 1.0000
29.9000 401.0000 1.0000
29.9200 411.0000 1.0000
29.9400 394.0000 1.0000
29.9600 409.0000 1.0000
29.9800 439.0000 1.0000
30.0000 452.0000 1.0000
30.0200 474.0000 1.0000
30.0400 490.0000 1.0000
30.0600 506.0000 1.0000
30.0800 516.0000 1.0000
30.1000 501.0000 1.0000
30.1200 534.0000 1.0000
30.1400 577.0000 1.0000
30.1600 581.0000 1.0000
30.1800 573.0000 1.0000
30.2000 587.0000 1.0000
30.2200 651.0000 1.0000
30.2400 658.0000 1.0000
30.2600 672.0000 1.0000
30.2800 688.0000 1.0000
30.3000 648.0000 1.0000
30.3200 675.0000 1.0000
30.3400 615.0000 1.0000
30.3600 558.0000 1.0000
30.3800 485.0000 1.0000
30.4000 452.0000 1.0000
30.4200 423.0000 1.0000
30.4400 360.0000 1.0000
30.4600 324.0000 1.0000
30.4800 335.0000 1.0000
30.5000 356.0000 1.0000
30.5200 328.0000 1.0000
30.5400 336.0000 1.0000
30.5600 316.0000 1.0000
30.5800 315.0000 1.0000
30.6000 330.0000 1.0000
30.6200 343.0000 1.0000
30.6400 358.0000 1.0000
30.6600 352.0000 1.0000
30.6800 310.0000 1.0000
30.7000 297.0000 1.0000
30.7200 308.0000 1.0000
30.7400 292.0000 1.0000
30.7600 296.0000 1.0000
30.7800 260.0000 1.0000
30.8000 249.0000 1.0000
30.8200 242.0000 1.0000
30.8400 235.0000 1.0000
30.8600 210.0000 1.0000
30.8800 197.0000 1.0000
30.9000 205.0000 1.0000
30.9200 184.0000 1.0000
30.9400 165.0000 1.0000
30.9600 166.0000 1.0000
30.9800 190.0000 1.0000
31.0000 199.0000 1.0000
31.0200 197.0000 1.0000
31.0400 210.0000 1.0000
31.0600 221.0000 1.0000
31.0800 239.0000 1.0000
31.1000 250.0000 1.0000
31.1200 271.0000 1.0000
31.1400 298.0000 1.0000
31.1600 307.0000 1.0000
31.1800 324.0000 1.0000
31.2000 339.0000 1.0000
31.2200 338.0000 1.0000
31.2400 321.0000 1.0000
31.2600 335.0000 1.0000
31.2800 362.0000 1.0000
31.3000 314.0000 1.0000
31.3200 313.0000 1.0000
31.3400 288.0000 1.0000
31.3600 265.0000 1.0000
31.3800 222.0000 1.0000
31.4000 200.0000 1.0000
31.4200 184.0000 1.0000
31.4400 176.0000 1.0000
31.4600 196.0000 1.0000
31.4800 180.0000 1.0000
31.5000 170.0000 1.0000
31.5200 168.0000 1.0000
31.5400 170.0000 1.0000
31.5600 173.0000 1.0000
31.5800 141.0000 1.0000
31.6000 148.0000 1.0000
31.6200 117.0000 1.0000
31.6400 125.0000 1.0000
31.6600 127.0000 1.0000
31.6800 137.0000 1.0000
31.7000 124.0000 1.0000
31.7200 157.0000 1.0000
31.7400 143.0000 1.0000
31.7600 136.0000 1.0000
31.7800 132.0000 1.0000
31.8000 130.0000 1.0000
31.8200 126.0000 1.0000
31.8400 132.0000 1.0000
31.8600 135.0000 1.0000
31.8800 156.0000 1.0000
31.9000 153.0000 1.0000
31.9200 158.0000 1.0000
31.9400 157.0000 1.0000
31.9600 157.0000 1.0000
31.9800 176.0000 1.0000
32.0000 161.0000 1.0000
32.0200 178.0000 1.0000
32.0400 166.0000 1.0000
32.0600 158.0000 1.0000
32.0800 161.0000 1.0000
32.1000 163.0000 1.0000
32.1200 165.0000 1.0000
32.1400 150.0000 1.0000
32.1600 144.0000 1.0000
32.1800 134.0000 1.0000
32.2000 152.0000 1.0000
32.2200 145.0000 1.0000
32.2400 144.0000 1.0000
32.2600 169.0000 1.0000
32.2800 166.0000 1.0000
32.3000 182.0000 1.0000
32.3200 178.0000 1.0000
32.3400 168.0000 1.0000
32.3600 178.0000 1.0000
32.3800 145.0000 1.0000
32.4000 151.0000 1.0000
32.4200 137.0000 1.0000
32.4400 132.0000 1.0000
32.4600 139.0000 1.0000
32.4800 119.0000 1.0000
32.5000 105.0000 1.0000
32.5200 100.0000 1.0000
32.5400 110.0000 1.0000
32.5600 93.0000 1.0000
32.5800 112.0000 1.0000
32.6000 125.0000 1.0000
32.6200 119.0000 1.0000
32.6400 140.0000 1.0000
32.6600 126.0000 1.0000
32.6800 101.0000 1.0000
32.7000 120.0000 1.0000
32.7200 121.0000 1.0000
32.7400 120.0000 1.0000
32.7600 120.0000 1.0000
32.7800 111.0000 1.0000
32.8000 110.0000 1.0000
32.8200 125.0000 1.0000
32.8400 121.0000 1.0000
32.8600 98.0000 1.0000
32.8800 116.0000 1.0000
32.9000 124.0000 1.0000
32.9200 102.0000 1.0000
32.9400 121.0000 1.0000
32.9600 115.0000 1.0000
32.9800 121.0000 1.0000
33.0000 118.0000 1.0000
33.0200 119.0000 1.0000
33.0400 109.0000 1.0000
33.0600 110.0000 1.0000
33.0800 116.0000 1.0000
33.1000 123.0000 1.0000
33.1200 117.0000 1.0000
33.1400 103.0000 1.0000
33.1600 123.0000 1.0000
33.1800 127.0000 1.0000
33.2000 127.0000 1.0000
33.2200 107.0000 1.0000
33.2400 109.0000 1.0000
33.2600 115.0000 1.0000
33.2800 119.0000 1.0000
33.3000 112.0000 1.0000
33.3200 132.0000 1.0000
33.3400 126.0000 1.0000
33.3600 124.0000 1.0000
33.3800 121.0000 1.0000
33.4000 130.0000 1.0000
33.4200 154.0000 1.0000
33.4400 131.0000 1.0000
33.4600 135.0000 1.0000
33.4800 147.0000 1.0000
33.5000 136.0000 1.0000
33.5200 137.0000 1.0000
33.5400 152.0000 1.0000
33.5600 165.0000 1.0000
33.5800 149.0000 1.0000
33.6000 163.0000 1.0000
33.6200 176.0000 1.0000
33.6400 196.0000 1.0000
33.6600 213.0000 1.0000
33.6800 219.0000 1.0000
33.7000 241.0000 1.0000
33.7200 235.0000 1.0000
33.7400 279.0000 1.0000
33.7600 259.0000 1.0000
33.7800 267.0000 1.0000
33.8000 268.0000 1.0000
33.8200 303.0000 1.0000
33.8400 268.0000 1.0000
33.8600 231.0000 1.0000
33.8800 272.0000 1.0000
33.9000 246.0000 1.0000
33.9200 265.0000 1.0000
33.9400 261.0000 1.0000
33.9600 250.0000 1.0000
33.9800 259.0000 1.0000
34.0000 302.0000 1.0000
34.0200 274.0000 1.0000
34.0400 296.0000 1.0000
34.0600 308.0000 1.0000
34.0800 286.0000 1.0000
34.1000 272.0000 1.0000
34.1200 242.0000 1.0000
34.1400 248.0000 1.0000
34.1600 232.0000 1.0000
34.1800 201.0000 1.0000
34.2000 187.0000 1.0000
34.2200 223.0000 1.0000
34.2400 211.0000 1.0000
34.2600 219.0000 1.0000
34.2800 190.0000 1.0000
34.3000 192.0000 1.0000
34.3200 208.0000 1.0000
34.3400 193.0000 1.0000
34.3600 199.0000 1.0000
34.3800 199.0000 1.0000
34.4000 198.0000 1.0000
34.4200 219.0000 1.0000
34.4400 224.0000 1.0000
34.4600 211.0000 1.0000
34.4800 218.0000 1.0000
34.5000 229.0000 1.0000
34.5200 217.0000 1.0000
34.5400 220.0000 1.0000
34.5600 250.0000 1.0000
34.5800 255.0000 1.0000
34.6000 227.0000 1.0000
34.6200 248.0000 1.0000
34.6400 259.0000 1.0000
34.6600 235.0000 1.0000
34.6800 302.0000 1.0000
34.7000 319.0000 1.0000
34.7200 298.0000 1.0000
34.7400 378.0000 1.0000
34.7600 388.0000 1.0000
34.7800 402.0000 1.0000
34.8000 439.0000 1.0000
34.8200 494.0000 1.0000
34.8400 582.0000 1.0000
34.8600 762.0000 1.0000
34.8800 846.0000 1.0000
34.9000 1034.0000 1.0000
34.9200 1217.0000 1.0000
34.9400 1409.0000 1.0000
34.9600 1653.0000 1.0000
34.9800 1795.0000 1.0000
35.0000 1856.0000 1.0000
35.0200 1883.0000 1.0000
35.0400 1888.0000 1.0000
35.0600 1729.0000 1.0000
35.0800 1576.0000 1.0000
35.1000 1413.0000 1.0000
35.1200 1146.0000 1.0000
35.1400 992.0000 1.0000
35.1600 839.0000 1.0000
35.1800 693.0000 1.0000
35.2000 570.0000 1.0000
35.2200 470.0000 1.0000
35.2400 492.0000 1.0000
35.2600 443.0000 1.0000
35.2800 405.0000 1.0000
35.3000 395.0000 1.0000
35.3200 398.0000 1.0000
35.3400 386.0000 1.0000
35.3600 347.0000 1.0000
35.3800 393.0000 1.0000
35.4000 429.0000 1.0000
35.4200 381.0000 1.0000
35.4400 364.0000 1.0000
35.4600 343.0000 1.0000
35.4800 342.0000 1.0000
35.5000 321.0000 1.0000
35.5200 287.0000 1.0000
35.5400 237.0000 1.0000
35.5600 277.0000 1.0000
35.5800 274.0000 1.0000
35.6000 254.0000 1.0000
35.6200 225.0000 1.0000
35.6400 212.0000 1.0000
35.6600 241.0000 1.0000
35.6800 198.0000 1.0000
35.7000 198.0000 1.0000
35.7200 191.0000 1.0000
35.7400 209.0000 1.0000
35.7600 202.0000 1.0000
35.7800 171.0000 1.0000
35.8000 177.0000 1.0000
35.8200 194.0000 1.0000
35.8400 187.0000 1.0000
35.8600 160.0000 1.0000
35.8800 179.0000 1.0000
35.9000 167.0000 1.0000
35.9200 177.0000 1.0000
35.9400 186.0000 1.0000
35.9600 187.0000 1.0000
35.9800 178.0000 1.0000
36.0000 173.0000 1.0000
36.0200 201.0000 1.0000
36.0400 201.0000 1.0000
36.0600 213.0000 1.0000
36.0800 225.0000 1.0000
36.1000 230.0000 1.0000
36.1200 240.0000 1.0000
36.1400 254.0000 1.0000
36.1600 252.0000 1.0000
36.1800 268.0000 1.0000
36.2000 335.0000 1.0000
36.2200 328.0000 1.0000
36.2400 397.0000 1.0000
36.2600 489.0000 1.0000
36.2800 471.0000 1.0000
36.3000 578.0000 1.0000
36.3200 719.0000 1.0000
36.3400 830.0000 1.0000
36.3600 897.0000 1.0000
36.3800 1005.0000 1.0000
36.4000 1047.0000 1.0000
36.4200 1012.0000 1.0000
36.4400 990.0000 1.0000
36.4600 907.0000 1.0000
36.4800 842.0000 1.0000
36.5000 695.0000 1.0000
36.5200 648.0000 1.0000
36.5400 536.0000 1.0000
36.5600 463.0000 1.0000
36.5800 402.0000 1.0000
36.6000 298.0000 1.0000
36.6200 278.0000 1.0000
36.6400 289.0000 1.0000
36.6600 263.0000 1.0000
36.6800 261.0000 1.0000
36.7000 250.0000 1.0000
36.7200 268.0000 1.0000
36.7400 278.0000 1.0000
36.7600 288.0000 1.0000
36.7800 286.0000 1.0000
36.8000 295.0000 1.0000
36.8200 288.0000 1.0000
36.8400 294.0000 1.0000
36.8600 285.0000 1.0000
36.8800 305.0000 1.0000
36.9000 286.0000 1.0000
36.9200 285.0000 1.0000
36.9400 283.0000 1.0000
36.9600 230.0000 1.0000
36.9800 229.0000 1.0000
37.0000 225.0000 1.0000
37.0200 230.0000 1.0000
37.0400 212.0000 1.0000
37.0600 199.0000 1.0000
37.0800 195.0000 1.0000
37.1000 190.0000 1.0000
37.1200 196.0000 1.0000
37.1400 180.0000 1.0000
37.1600 161.0000 1.0000
37.1800 188.0000 1.0000
37.2000 189.0000 1.0000
37.2200 181.0000 1.0000
37.2400 197.0000 1.0000
37.2600 214.0000 1.0000
37.2800 227.0000 1.0000
37.3000 247.0000 1.0000
37.3200 233.0000 1.0000
37.3400 223.0000 1.0000
37.3600 223.0000 1.0000
37.3800 238.0000 1.0000
37.4000 269.0000 1.0000
37.4200 305.0000 1.0000
37.4400 338.0000 1.0000
37.4600 360.0000 1.0000
37.4800 370.0000 1.0000
37.5000 375.0000 1.0000
37.5200 453.0000 1.0000
37.5400 535.0000 1.0000
37.5600 612.0000 1.0000
37.5800 726.0000 1.0000
37.6000 740.0000 1.0000
37.6200 783.0000 1.0000
37.6400 777.0000 1.0000
37.6600 749.0000 1.0000
37.6800 749.0000 1.0000
37.7000 653.0000 1.0000
37.7200 560.0000 1.0000
37.7400 479.0000 1.0000
37.7600 419.0000 1.0000
37.7800 340.0000 1.0000
37.8000 257.0000 1.0000
37.8200 209.0000 1.0000
37.8400 184.0000 1.0000
37.8600 172.0000 1.0000
37.8800 162.0000 1.0000
37.9000 147.0000 1.0000
37.9200 131.0000 1.0000
37.9400 130.0000 1.0000
37.9600 130.0000 1.0000
37.9800 136.0000 1.0000
38.0000 115.0000 1.0000
38.0200 117.0000 1.0000
38.0400 131.0000 1.0000
38.0600 126.0000 1.0000
38.0800 116.0000 1.0000
38.1000 103.0000 1.0000
38.1200 118.0000 1.0000
38.1400 115.0000 1.0000
38.1600 114.0000 1.0000
38.1800 117.0000 1.0000
38.2000 117.0000 1.0000
38.2200 125.0000 1.0000
38.2400 127.0000 1.0000
38.2600 119.0000 1.0000
38.2800 133.0000 1.0000
38.3000 150.0000 1.0000
38.3200 153.0000 1.0000
38.3400 167.0000 1.0000
38.3600 200.0000 1.0000
38.3800 188.0000 1.0000
38.4000 176.0000 1.0000
38.4200 181.0000 1.0000
38.4400 178.0000 1.0000
38.4600 184.0000 1.0000
38.4800 189.0000 1.0000
38.5000 180.0000 1.0000
38.5200 166.0000 1.0000
38.5400 173.0000 1.0000
38.5600 153.0000 1.0000
38.5800 157.0000 1.0000
38.6000 162.0000 1.0000
38.6200 148.0000 1.0000
38.6400 150.0000 1.0000
38.6600 158.0000 1.0000
38.6800 164.0000 1.0000
38.7000 165.0000 1.0000
38.7200 167.0000 1.0000
38.7400 163.0000 1.0000
38.7600 174.0000 1.0000
38.7800 172.0000 1.0000
38.8000 162.0000 1.0000
38.8200 175.0000 1.0000
38.8400 176.0000 1.0000
38.8600 183.0000 1.0000
38.8800 194.0000 1.0000
38.9000 203.0000 1.0000
38.9200 201.0000 1.0000
38.9400 192.0000 1.0000
38.9600 194.0000 1.0000
38.9800 206.0000 1.0000
39.0000 188.0000 1.0000
39.0200 182.0000 1.0000
39.0400 189.0000 1.0000
39.0600 204.0000 1.0000
39.0800 211.0000 1.0000
39.1000 211.0000 1.0000
39.1200 218.0000 1.0000
39.1400 230.0000 1.0000
39.1600 252.0000 1.0000
39.1800 297.0000 1.0000
39.2000 356.0000 1.0000
39.2200 440.0000 1.0000
39.2400 540.0000 1.0000
39.2600 649.0000 1.0000
39.2800 724.0000 1.0000
39.3000 806.0000 1.0000
39.3200 873.0000 1.0000
39.3400 875.0000 1.0000
39.3600 840.0000 1.0000
39.3800 817.0000 1.0000
39.4000 725.0000 1.0000
39.4200 647.0000 1.0000
39.4400 548.0000 1.0000
39.4600 469.0000 1.0000
39.4800 434.0000 1.0000
39.5000 367.0000 1.0000
39.5200 296.0000 1.0000
39.5400 236.0000 1.0000
39.5600 204.0000 1.0000
39.5800 200.0000 1.0000
39.6000 190.0000 1.0000
39.6200 175.0000 1.0000
39.6400 164.0000 1.0000
39.6600 161.0000 1.0000
39.6800 154.0000 1.0000
39.7000 160.0000 1.0000
39.7200 178.0000 1.0000
39.7400 167.0000 1.0000
39.7600 155.0000 1.0000
39.7800 150.0000 1.0000
39.8000 146.0000 1.0000
39.8200 146.0000 1.0000
39.8400 153.0000 1.0000
39.8600 151.0000 1.0000
39.8800 148.0000 1.0000
39.9000 146.0000 1.0000
39.9200 159.0000 1.0000
39.9400 168.0000 1.0000
39.9600 189.0000 1.0000
39.9800 210.0000 1.0000
40.0000 210.0000 1.0000
40.0200 225.0000 1.0000
40.0400 255.0000 1.0000
40.0600 294.0000 1.0000
40.0800 357.0000 1.0000
40.1000 415.0000 1.0000
40.1200 467.0000 1.0000
40.1400 485.0000 1.0000
40.1600 461.0000 1.0000
40.1800 451.0000 1.0000
40.2000 450.0000 1.0000
40.2200 429.0000 1.0000
40.2400 385.0000 1.0000
40.2600 328.0000 1.0000
40.2800 274.0000 1.0000
40.3000 256.0000 1.0000
40.3200 239.0000 1.0000
40.3400 203.0000 1.0000
40.3600 175.0000 1.0000
40.3800 162.0000 1.0000
40.4000 153.0000 1.0000
40.4200 141.0000 1.0000
40.4400 125.0000 1.0000
40.4600 122.0000 1.0000
40.4800 132.0000 1.0000
40.5000 136.0000 1.0000
40.5200 137.0000 1.0000
40.5400 137.0000 1.0000
40.5600 136.0000 1.0000
40.5800 138.0000 1.0000
40.6000 134.0000 1.0000
40.6200 136.0000 1.0000
40.6400 146.0000 1.0000
40.6600 138.0000 1.0000
40.6800 141.0000 1.0000
40.7000 141.0000 1.0000
40.7200 143.0000 1.0000
40.7400 143.0000 1.0000
40.7600 129.0000 1.0000
40.7800 135.0000 1.0000
40.8000 147.0000 1.0000
40.8200 142.0000 1.0000
40.8400 157.0000 1.0000
40.8600 163.0000 1.0000
40.8800 149.0000 1.0000
40.9000 149.0000 1.0000
40.9200 143.0000 1.0000
40.9400 153.0000 1.0000
40.9600 155.0000 1.0000
40.9800 147.0000 1.0000
41.0000 149.0000 1.0000
41.0200 139.0000 1.0000
41.0400 143.0000 1.0000
41.0600 163.0000 1.0000
41.0800 171.0000 1.0000
41.1000 160.0000 1.0000
41.1200 160.0000 1.0000
41.1400 166.0000 1.0000
41.1600 152.0000 1.0000
41.1800 139.0000 1.0000
41.2000 134.0000 1.0000
41.2200 147.0000 1.0000
41.2400 157.0000 1.0000
41.2600 157.0000 1.0000
41.2800 158.0000 1.0000
41.3000 154.0000 1.0000
41.3200 147.0000 1.0000
41.3400 150.0000 1.0000
41.3600 154.0000 1.0000
41.3800 160.0000 1.0000
41.4000 156.0000 1.0000
41.4200 145.0000 1.0000
41.4400 154.0000 1.0000
41.4600 185.0000 1.0000
41.4800 212.0000 1.0000
41.5000 215.0000 1.0000
41.5200 214.0000 1.0000
41.5400 235.0000 1.0000
41.5600 279.0000 1.0000
41.5800 285.0000 1.0000
41.6000 280.0000 1.0000
41.6200 301.0000 1.0000
41.6400 332.0000 1.0000
41.6600 348.0000 1.0000
41.6800 328.0000 1.0000
41.7000 307.0000 1.0000
41.7200 311.0000 1.0000
41.7400 296.0000 1.0000
41.7600 280.0000 1.0000
41.7800 271.0000 1.0000
41.8000 245.0000 1.0000
41.8200 224.0000 1.0000
41.8400 218.0000 1.0000
41.8600 188.0000 1.0000
41.8800 160.0000 1.0000
41.9000 170.0000 1.0000
41.9200 177.0000 1.0000
41.9400 170.0000 1.0000
41.9600 166.0000 1.0000
41.9800 155.0000 1.0000
42.0000 156.0000 1.0000
42.0200 167.0000 1.0000
42.0400 189.0000 1.0000
42.0600 216.0000 1.0000
42.0800 215.0000 1.0000
42.1000 216.0000 1.0000
42.1200 224.0000 1.0000
42.1400 254.0000 1.0000
42.1600 329.0000 1.0000
42.1800 399.0000 1.0000
42.2000 450.0000 1.0000
42.2200 506.0000 1.0000
42.2400 569.0000 1.0000
42.2600 630.0000 1.0000
42.2800 710.0000 1.0000
42.3000 750.0000 1.0000
42.3200 756.0000 1.0000
42.3400 707.0000 1.0000
42.3600 694.0000 1.0000
42.3800 664.0000 1.0000
42.4000 581.0000 1.0000
42.4200 532.0000 1.0000
42.4400 461.0000 1.0000
42.4600 419.0000 1.0000
42.4800 374.0000 1.0000
42.5000 322.0000 1.0000
42.5200 264.0000 1.0000
42.5400 263.0000 1.0000
42.5600 243.0000 1.0000
42.5800 252.0000 1.0000
42.6000 238.0000 1.0000
42.6200 238.0000 1.0000
42.6400 236.0000 1.0000
42.6600 250.0000 1.0000
42.6800 271.0000 1.0000
42.7000 257.0000 1.0000
42.7200 241.0000 1.0000
42.7400 234.0000 1.0000
42.7600 230.0000 1.0000
42.7800 240.0000 1.0000
42.8000 237.0000 1.0000
42.8200 215.0000 1.0000
42.8400 242.0000 1.0000
42.8600 256.0000 1.0000
42.8800 254.0000 1.0000
42.9000 267.0000 1.0000
42.9200 287.0000 1.0000
42.9400 292.0000 1.0000
42.9600 295.0000 1.0000
42.9800 328.0000 1.0000
43.0000 406.0000 1.0000
43.0200 439.0000 1.0000
43.0400 481.0000 1.0000
43.0600 600.0000 1.0000
43.0800 671.0000 1.0000
43.1000 846.0000 1.0000
43.1200 1042.0000 1.0000
43.1400 1237.0000 1.0000
43.1600 1450.0000 1.0000
43.1800 1610.0000 1.0000
43.2000 1762.0000 1.0000
43.2200 1785.0000 1.0000
43.2400 1782.0000 1.0000
43.2600 1710.0000 1.0000
43.2800 1552.0000 1.0000
43.3000 1342.0000 1.0000
43.3200 1198.0000 1.0000
43.3400 1034.0000 1.0000
43.3600 887.0000 1.0000
43.3800 705.0000 1.0000
43.4000 599.0000 1.0000
43.4200 466.0000 1.0000
43.4400 351.0000 1.0000
43.4600 276.0000 1.0000
43.4800 242.0000 1.0000
43.5000 229.0000 1.0000
43.5200 206.0000 1.0000
43.5400 190.0000 1.0000
43.5600 180.0000 1.0000
43.5800 166.0000 1.0000
43.6000 169.0000 1.0000
43.6200 150.0000 1.0000
43.6400 141.0000 1.0000
43.6600 155.0000 1.0000
43.6800 144.0000 1.0000
43.7000 136.0000 1.0000
43.7200 121.0000 1.0000
43.7400 130.0000 1.0000
43.7600 123.0000 1.0000
43.7800 138.0000 1.0000
43.8000 159.0000 1.0000
43.8200 149.0000 1.0000
43.8400 124.0000 1.0000
43.8600 129.0000 1.0000
43.8800 110.0000 1.0000
43.9000 111.0000 1.0000
43.9200 127.0000 1.0000
43.9400 110.0000 1.0000
43.9600 112.0000 1.0000
43.9800 128.0000 1.0000
44.0000 131.0000 1.0000
44.0200 128.0000 1.0000
44.0400 119.0000 1.0000
44.0600 127.0000 1.0000
44.0800 131.0000 1.0000
44.1000 134.0000 1.0000
44.1200 142.0000 1.0000
44.1400 135.0000 1.0000
44.1600 109.0000 1.0000
44.1800 122.0000 1.0000
44.2000 124.0000 1.0000
44.2200 130.0000 1.0000
44.2400 141.0000 1.0000
44.2600 120.0000 1.0000
44.2800 113.0000 1.0000
44.3000 138.0000 1.0000
44.3200 121.0000 1.0000
44.3400 118.0000 1.0000
44.3600 126.0000 1.0000
44.3800 121.0000 1.0000
44.4000 130.0000 1.0000
44.4200 135.0000 1.0000
44.4400 120.0000 1.0000
44.4600 108.0000 1.0000
44.4800 144.0000 1.0000
44.5000 144.0000 1.0000
44.5200 130.0000 1.0000
44.5400 137.0000 1.0000
44.5600 133.0000 1.0000
44.5800 131.0000 1.0000
44.6000 138.0000 1.0000
44.6200 116.0000 1.0000
44.6400 119.0000 1.0000
44.6600 124.0000 1.0000
44.6800 143.0000 1.0000
44.7000 128.0000 1.0000
44.7200 117.0000 1.0000
44.7400 113.0000 1.0000
44.7600 132.0000 1.0000
44.7800 128.0000 1.0000
44.8000 153.0000 1.0000
44.8200 158.0000 1.0000
44.8400 133.0000 1.0000
44.8600 149.0000 1.0000
44.8800 144.0000 1.0000
44.9000 167.0000 1.0000
44.9200 159.0000 1.0000
44.9400 140.0000 1.0000
44.9600 171.0000 1.0000
44.9800 127.0000 1.0000
45.0000 145.0000 1.0000
45.0200 145.0000 1.0000
45.0400 167.0000 1.0000
45.0600 168.0000 1.0000
45.0800 154.0000 1.0000
45.1000 165.0000 1.0000
45.1200 136.0000 1.0000
45.1400 150.0000 1.0000
45.1600 156.0000 1.0000
45.1800 141.0000 1.0000
45.2000 150.0000 1.0000
45.2200 180.0000 1.0000
45.2400 162.0000 1.0000
45.2600 170.0000 1.0000
45.2800 169.0000 1.0000
45.3000 195.0000 1.0000
45.3200 185.0000 1.0000
45.3400 187.0000 1.0000
45.3600 201.0000 1.0000
45.3800 227.0000 1.0000
45.4000 212.0000 1.0000
45.4200 245.0000 1.0000
45.4400 214.0000 1.0000
45.4600 269.0000 1.0000
45.4800 260.0000 1.0000
45.5000 262.0000 1.0000
45.5200 314.0000 1.0000
45.5400 327.0000 1.0000
45.5600 383.0000 1.0000
45.5800 436.0000 1.0000
45.6000 514.0000 1.0000
45.6200 504.0000 1.0000
45.6400 550.0000 1.0000
45.6600 507.0000 1.0000
45.6800 578.0000 1.0000
45.7000 500.0000 1.0000
45.7200 498.0000 1.0000
45.7400 448.0000 1.0000
45.7600 372.0000 1.0000
45.7800 344.0000 1.0000
45.8000 290.0000 1.0000
45.8200 259.0000 1.0000
45.8400 233.0000 1.0000
45.8600 207.0000 1.0000
45.8800 181.0000 1.0000
45.9000 169.0000 1.0000
45.9200 144.0000 1.0000
45.9400 159.0000 1.0000
45.9600 165.0000 1.0000
45.9800 171.0000 1.0000
46.0000 171.0000 1.0000
46.0200 164.0000 1.0000
46.0400 149.0000 1.0000
46.0600 151.0000 1.0000
46.0800 159.0000 1.0000
46.1000 162.0000 1.0000
46.1200 157.0000 1.0000
46.1400 162.0000 1.0000
46.1600 141.0000 1.0000
46.1800 163.0000 1.0000
46.2000 146.0000 1.0000
46.2200 138.0000 1.0000
46.2400 125.0000 1.0000
46.2600 120.0000 1.0000
46.2800 133.0000 1.0000
46.3000 110.0000 1.0000
46.3200 114.0000 1.0000
46.3400 108.0000 1.0000
46.3600 97.0000 1.0000
46.3800 92.0000 1.0000
46.4000 105.0000 1.0000
46.4200 101.0000 1.0000
46.4400 117.0000 1.0000
46.4600 119.0000 1.0000
46.4800 106.0000 1.0000
46.5000 110.0000 1.0000
46.5200 125.0000 1.0000
46.5400 91.0000 1.0000
46.5600 110.0000 1.0000
46.5800 119.0000 1.0000
46.6000 137.0000 1.0000
46.6200 108.0000 1.0000
46.6400 110.0000 1.0000
46.6600 115.0000 1.0000
46.6800 115.0000 1.0000
46.7000 141.0000 1.0000
46.7200 127.0000 1.0000
46.7400 131.0000 1.0000
46.7600 120.0000 1.0000
46.7800 125.0000 1.0000
46.8000 140.0000 1.0000
46.8200 161.0000 1.0000
46.8400 166.0000 1.0000
46.8600 155.0000 1.0000
46.8800 150.0000 1.0000
46.9000 164.0000 1.0000
46.9200 178.0000 1.0000
46.9400 162.0000 1.0000
46.9600 179.0000 1.0000
46.9800 172.0000 1.0000
47.0000 179.0000 1.0000
47.0200 148.0000 1.0000
47.0400 148.0000 1.0000
47.0600 133.0000 1.0000
47.0800 142.0000 1.0000
47.1000 136.0000 1.0000
47.1200 119.0000 1.0000
47.1400 140.0000 1.0000
47.1600 126.0000 1.0000
47.1800 131.0000 1.0000
47.2000 137.0000 1.0000
47.2200 142.0000 1.0000
47.2400 134.0000 1.0000
47.2600 131.0000 1.0000
47.2800 142.0000 1.0000
47.3000 151.0000 1.0000
47.3200 149.0000 1.0000
47.3400 138.0000 1.0000
47.3600 160.0000 1.0000
47.3800 153.0000 1.0000
47.4000 151.0000 1.0000
47.4200 143.0000 1.0000
47.4400 139.0000 1.0000
47.4600 159.0000 1.0000
47.4800 180.0000 1.0000
47.5000 166.0000 1.0000
47.5200 156.0000 1.0000
47.5400 153.0000 1.0000
47.5600 153.0000 1.0000
47.5800 138.0000 1.0000
47.6000 140.0000 1.0000
47.6200 141.0000 1.0000
47.6400 130.0000 1.0000
47.6600 132.0000 1.0000
47.6800 142.0000 1.0000
47.7000 146.0000 1.0000
47.7200 147.0000 1.0000
47.7400 159.0000 1.0000
47.7600 149.0000 1.0000
47.7800 141.0000 1.0000
47.8000 142.0000 1.0000
47.8200 149.0000 1.0000
47.8400 139.0000 1.0000
47.8600 139.0000 1.0000
47.8800 142.0000 1.0000
47.9000 147.0000 1.0000
47.9200 149.0000 1.0000
47.9400 134.0000 1.0000
47.9600 130.0000 1.0000
47.9800 159.0000 1.0000
48.0000 164.0000 1.0000
48.0200 170.0000 1.0000
48.0400 169.0000 1.0000
48.0600 167.0000 1.0000
48.0800 192.0000 1.0000
48.1000 194.0000 1.0000
48.1200 186.0000 1.0000
48.1400 185.0000 1.0000
48.1600 176.0000 1.0000
48.1800 190.0000 1.0000
48.2000 189.0000 1.0000
48.2200 173.0000 1.0000
48.2400 172.0000 1.0000
48.2600 181.0000 1.0000
48.2800 180.0000 1.0000
48.3000 168.0000 1.0000
48.3200 155.0000 1.0000
48.3400 144.0000 1.0000
48.3600 133.0000 1.0000
48.3800 133.0000 1.0000
48.4000 131.0000 1.0000
48.4200 110.0000 1.0000
48.4400 122.0000 1.0000
48.4600 123.0000 1.0000
48.4800 122.0000 1.0000
48.5000 118.0000 1.0000
48.5200 110.0000 1.0000
48.5400 116.0000 1.0000
48.5600 125.0000 1.0000
48.5800 134.0000 1.0000
48.6000 127.0000 1.0000
48.6200 135.0000 1.0000
48.6400 142.0000 1.0000
48.6600 142.0000 1.0000
48.6800 141.0000 1.0000
48.7000 140.0000 1.0000
48.7200 148.0000 1.0000
48.7400 147.0000 1.0000
48.7600 143.0000 1.0000
48.7800 151.0000 1.0000
48.8000 156.0000 1.0000
48.8200 148.0000 1.0000
48.8400 154.0000 1.0000
48.8600 176.0000 1.0000
48.8800 183.0000 1.0000
48.9000 166.0000 1.0000
48.9200 158.0000 1.0000
48.9400 194.0000 1.0000
48.9600 214.0000 1.0000
48.9800 195.0000 1.0000
49.0000 206.0000 1.0000
49.0200 236.0000 1.0000
49.0400 257.0000 1.0000
49.0600 258.0000 1.0000
49.0800 259.0000 1.0000
49.1000 251.0000 1.0000
49.1200 230.0000 1.0000
49.1400 219.0000 1.0000
49.1600 221.0000 1.0000
49.1800 238.0000 1.0000
49.2000 226.0000 1.0000
49.2200 218.0000 1.0000
49.2400 205.0000 1.0000
49.2600 194.0000 1.0000
49.2800 206.0000 1.0000
49.3000 190.0000 1.0000
49.3200 178.0000 1.0000
49.3400 187.0000 1.0000
49.3600 186.0000 1.0000
49.3800 184.0000 1.0000
49.4000 189.0000 1.0000
49.4200 178.0000 1.0000
49.4400 187.0000 1.0000
49.4600 207.0000 1.0000
49.4800 230.0000 1.0000
49.5000 220.0000 1.0000
49.5200 210.0000 1.0000
49.5400 234.0000 1.0000
49.5600 259.0000 1.0000
49.5800 277.0000 1.0000
49.6000 300.0000 1.0000
49.6200 321.0000 1.0000
49.6400 332.0000 1.0000
49.6600 356.0000 1.0000
49.6800 384.0000 1.0000
49.7000 400.0000 1.0000
49.7200 404.0000 1.0000
49.7400 421.0000 1.0000
49.7600 436.0000 1.0000
49.7800 462.0000 1.0000
49.8000 489.0000 1.0000
49.8200 551.0000 1.0000
49.8400 602.0000 1.0000
49.8600 620.0000 1.0000
49.8800 696.0000 1.0000
49.9000 785.0000 1.0000
49.9200 915.0000 1.0000
49.9400 1085.0000 1.0000
49.9600 1254.0000 1.0000
49.9800 1414.0000 1.0000
50.0000 1493.0000 1.0000
50.0200 1499.0000 1.0000
50.0400 1453.0000 1.0000
50.0600 1309.0000 1.0000
50.0800 1176.0000 1.0000
50.1000 1072.0000 1.0000
50.1200 984.0000 1.0000
50.1400 864.0000 1.0000
50.1600 799.0000 1.0000
50.1800 717.0000 1.0000
50.2000 614.0000 1.0000
50.2200 493.0000 1.0000
50.2400 400.0000 1.0000
50.2600 349.0000 1.0000
50.2800 328.0000 1.0000
50.3000 321.0000 1.0000
50.3200 338.0000 1.0000
50.3400 330.0000 1.0000
50.3600 358.0000 1.0000
50.3800 374.0000 1.0000
50.4000 377.0000 1.0000
50.4200 390.0000 1.0000
50.4400 397.0000 1.0000
50.4600 401.0000 1.0000
50.4800 410.0000 1.0000
50.5000 375.0000 1.0000
50.5200 389.0000 1.0000
50.5400 389.0000 1.0000
50.5600 344.0000 1.0000
50.5800 342.0000 1.0000
50.6000 336.0000 1.0000
50.6200 303.0000 1.0000
50.6400 276.0000 1.0000
50.6600 266.0000 1.0000
50.6800 237.0000 1.0000
50.7000 251.0000 1.0000
50.7200 243.0000 1.0000
50.7400 233.0000 1.0000
50.7600 233.0000 1.0000
50.7800 230.0000 1.0000
50.8000 237.0000 1.0000
50.8200 204.0000 1.0000
50.8400 206.0000 1.0000
50.8600 212.0000 1.0000
50.8800 203.0000 1.0000
50.9000 200.0000 1.0000
50.9200 188.0000 1.0000
50.9400 200.0000 1.0000
50.9600 226.0000 1.0000
50.9800 214.0000 1.0000
51.0000 244.0000 1.0000
51.0200 247.0000 1.0000
51.0400 267.0000 1.0000
51.0600 285.0000 1.0000
51.0800 291.0000 1.0000
51.1000 264.0000 1.0000
51.1200 299.0000 1.0000
51.1400 292.0000 1.0000
51.1600 289.0000 1.0000
51.1800 315.0000 1.0000
51.2000 303.0000 1.0000
51.2200 255.0000 1.0000
51.2400 246.0000 1.0000
51.2600 245.0000 1.0000
51.2800 225.0000 1.0000
51.3000 227.0000 1.0000
51.3200 203.0000 1.0000
51.3400 181.0000 1.0000
51.3600 189.0000 1.0000
51.3800 175.0000 1.0000
51.4000 176.0000 1.0000
51.4200 135.0000 1.0000
51.4400 135.0000 1.0000
51.4600 149.0000 1.0000
51.4800 138.0000 1.0000
51.5000 146.0000 1.0000
51.5200 129.0000 1.0000
51.5400 133.0000 1.0000
51.5600 133.0000 1.0000
51.5800 126.0000 1.0000
51.6000 112.0000 1.0000
51.6200 126.0000 1.0000
51.6400 116.0000 1.0000
51.6600 120.0000 1.0000
51.6800 102.0000 1.0000
51.7000 111.0000 1.0000
51.7200 108.0000 1.0000
51.7400 130.0000 1.0000
51.7600 113.0000 1.0000
51.7800 110.0000 1.0000
51.8000 96.0000 1.0000
51.8200 106.0000 1.0000
51.8400 111.0000 1.0000
51.8600 120.0000 1.0000
51.8800 127.0000 1.0000
51.9000 119.0000 1.0000
51.9200 155.0000 1.0000
51.9400 135.0000 1.0000
51.9600 152.0000 1.0000
51.9800 135.0000 1.0000
52.0000 155.0000 1.0000
52.0200 165.0000 1.0000
52.0400 168.0000 1.0000
52.0600 165.0000 1.0000
52.0800 185.0000 1.0000
52.1000 180.0000 1.0000
52.1200 171.0000 1.0000
52.1400 197.0000 1.0000
52.1600 207.0000 1.0000
52.1800 236.0000 1.0000
52.2000 235.0000 1.0000
52.2200 266.0000 1.0000
52.2400 282.0000 1.0000
52.2600 353.0000 1.0000
52.2800 367.0000 1.0000
52.3000 386.0000 1.0000
52.3200 506.0000 1.0000
52.3400 563.0000 1.0000
52.3600 666.0000 1.0000
52.3800 747.0000 1.0000
52.4000 806.0000 1.0000
52.4200 857.0000 1.0000
52.4400 866.0000 1.0000
52.4600 812.0000 1.0000
52.4800 814.0000 1.0000
52.5000 716.0000 1.0000
52.5200 646.0000 1.0000
52.5400 626.0000 1.0000
52.5600 582.0000 1.0000
52.5800 554.0000 1.0000
52.6000 527.0000 1.0000
52.6200 467.0000 1.0000
52.6400 424.0000 1.0000
52.6600 337.0000 1.0000
52.6800 276.0000 1.0000
52.7000 270.0000 1.0000
52.7200 253.0000 1.0000
52.7400 223.0000 1.0000
52.7600 228.0000 1.0000
52.7800 191.0000 1.0000
52.8000 215.0000 1.0000
52.8200 208.0000 1.0000
52.8400 173.0000 1.0000
52.8600 192.0000 1.0000
52.8800 180.0000 1.0000
52.9000 176.0000 1.0000
52.9200 200.0000 1.0000
52.9400 182.0000 1.0000
52.9600 186.0000 1.0000
52.9800 174.0000 1.0000
53.0000 195.0000 1.0000
53.0200 165.0000 1.0000
53.0400 201.0000 1.0000
53.0600 174.0000 1.0000
53.0800 167.0000 1.0000
53.1000 170.0000 1.0000
53.1200 183.0000 1.0000
53.1400 178.0000 1.0000
53.1600 181.0000 1.0000
53.1800 154.0000 1.0000
53.2000 161.0000 1.0000
53.2200 158.0000 1.0000
53.2400 166.0000 1.0000
53.2600 164.0000 1.0000
53.2800 149.0000 1.0000
53.3000 131.0000 1.0000
53.3200 139.0000 1.0000
53.3400 142.0000 1.0000
53.3600 145.0000 1.0000
53.3800 131.0000 1.0000
53.4000 117.0000 1.0000
53.4200 120.0000 1.0000
53.4400 121.0000 1.0000
53.4600 118.0000 1.0000
53.4800 117.0000 1.0000
53.5000 120.0000 1.0000
53.5200 118.0000 1.0000
53.5400 119.0000 1.0000
53.5600 115.0000 1.0000
53.5800 123.0000 1.0000
53.6000 106.0000 1.0000
53.6200 127.0000 1.0000
53.6400 116.0000 1.0000
53.6600 113.0000 1.0000
53.6800 122.0000 1.0000
53.7000 112.0000 1.0000
53.7200 117.0000 1.0000
53.7400 127.0000 1.0000
53.7600 132.0000 1.0000
53.7800 115.0000 1.0000
53.8000 133.0000 1.0000
53.8200 121.0000 1.0000
53.8400 128.0000 1.0000
53.8600 149.0000 1.0000
53.8800 148.0000 1.0000
53.9000 149.0000 1.0000
53.9200 135.0000 1.0000
53.9400 127.0000 1.0000
53.9600 135.0000 1.0000
53.9800 149.0000 1.0000
54.0000 135.0000 1.0000
54.0200 136.0000 1.0000
54.0400 138.0000 1.0000
54.0600 121.0000 1.0000
54.0800 137.0000 1.0000
54.1000 137.0000 1.0000
54.1200 152.0000 1.0000
54.1400 150.0000 1.0000
54.1600 137.0000 1.0000
54.1800 147.0000 1.0000
54.2000 166.0000 1.0000
54.2200 156.0000 1.0000
54.2400 146.0000 1.0000
54.2600 156.0000 1.0000
54.2800 164.0000 1.0000
54.3000 167.0000 1.0000
54.3200 164.0000 1.0000
54.3400 150.0000 1.0000
54.3600 160.0000 1.0000
54.3800 172.0000 1.0000
54.4000 166.0000 1.0000
54.4200 175.0000 1.0000
54.4400 163.0000 1.0000
54.4600 181.0000 1.0000
54.4800 187.0000 1.0000
54.5000 168.0000 1.0000
54.5200 171.0000 1.0000
54.5400 188.0000 1.0000
54.5600 187.0000 1.0000
54.5800 210.0000 1.0000
54.6000 236.0000 1.0000
54.6200 257.0000 1.0000
54.6400 286.0000 1.0000
54.6600 331.0000 1.0000
54.6800 406.0000 1.0000
54.7000 444.0000 1.0000
54.7200 455.0000 1.0000
54.7400 487.0000 1.0000
54.7600 489.0000 1.0000
54.7800 473.0000 1.0000
54.8000 456.0000 1.0000
54.8200 381.0000 1.0000
54.8400 347.0000 1.0000
54.8600 344.0000 1.0000
54.8800 336.0000 1.0000
54.9000 316.0000 1.0000
54.9200 319.0000 1.0000
54.9400 282.0000 1.0000
54.9600 258.0000 1.0000
54.9800 235.0000 1.0000
55.0000 207.0000 1.0000
55.0200 202.0000 1.0000
55.0400 211.0000 1.0000
55.0600 218.0000 1.0000
55.0800 212.0000 1.0000
55.1000 218.0000 1.0000
55.1200 267.0000 1.0000
55.1400 288.0000 1.0000
55.1600 291.0000 1.0000
55.1800 306.0000 1.0000
55.2000 292.0000 1.0000
55.2200 303.0000 1.0000
55.2400 295.0000 1.0000
55.2600 267.0000 1.0000
55.2800 264.0000 1.0000
55.3000 253.0000 1.0000
55.3200 231.0000 1.0000
55.3400 230.0000 1.0000
55.3600 217.0000 1.0000
55.3800 194.0000 1.0000
55.4000 195.0000 1.0000
55.4200 176.0000 1.0000
55.4400 157.0000 1.0000
55.4600 167.0000 1.0000
55.4800 156.0000 1.0000
55.5000 139.0000 1.0000
55.5200 138.0000 1.0000
55.5400 137.0000 1.0000
55.5600 145.0000 1.0000
55.5800 136.0000 1.0000
55.6000 114.0000 1.0000
55.6200 116.0000 1.0000
55.6400 123.0000 1.0000
55.6600 118.0000 1.0000
55.6800 107.0000 1.0000
55.7000 111.0000 1.0000
55.7200 122.0000 1.0000
55.7400 120.0000 1.0000
55.7600 109.0000 1.0000
55.7800 104.0000 1.0000
55.8000 112.0000 1.0000
55.8200 119.0000 1.0000
55.8400 128.0000 1.0000
55.8600 129.0000 1.0000
55.8800 131.0000 1.0000
55.9000 136.0000 1.0000
55.9200 139.0000 1.0000
55.9400 130.0000 1.0000
55.9600 126.0000 1.0000
55.9800 135.0000 1.0000
56.0000 131.0000 1.0000
56.0200 131.0000 1.0000
56.0400 121.0000 1.0000
56.0600 117.0000 1.0000
56.0800 127.0000 1.0000
56.1000 118.0000 1.0000
56.1200 109.0000 1.0000
56.1400 100.0000 1.0000
56.1600 98.0000 1.0000
56.1800 111.0000 1.0000
56.2000 108.0000 1.0000
56.2200 107.0000 1.0000
56.2400 113.0000 1.0000
56.2600 109.0000 1.0000
56.2800 106.0000 1.0000
56.3000 105.0000 1.0000
56.3200 113.0000 1.0000
56.3400 115.0000 1.0000
56.3600 112.0000 1.0000
56.3800 106.0000 1.0000
56.4000 116.0000 1.0000
56.4200 125.0000 1.0000
56.4400 117.0000 1.0000
56.4600 105.0000 1.0000
56.4800 107.0000 1.0000
56.5000 117.0000 1.0000
56.5200 115.0000 1.0000
56.5400 119.0000 1.0000
56.5600 130.0000 1.0000
56.5800 127.0000 1.0000
56.6000 129.0000 1.0000
56.6200 135.0000 1.0000
56.6400 127.0000 1.0000
56.6600 119.0000 1.0000
56.6800 119.0000 1.0000
56.7000 133.0000 1.0000
56.7200 143.0000 1.0000
56.7400 137.0000 1.0000
56.7600 142.0000 1.0000
56.7800 140.0000 1.0000
56.8000 137.0000 1.0000
56.8200 142.0000 1.0000
56.8400 131.0000 1.0000
56.8600 145.0000 1.0000
56.8800 137.0000 1.0000
56.9000 130.0000 1.0000
56.9200 148.0000 1.0000
56.9400 151.0000 1.0000
56.9600 163.0000 1.0000
56.9800 171.0000 1.0000
57.0000 175.0000 1.0000
57.0200 188.0000 1.0000
57.0400 209.0000 1.0000
57.0600 212.0000 1.0000
57.0800 201.0000 1.0000
57.1000 215.0000 1.0000
57.1200 243.0000 1.0000
57.1400 282.0000 1.0000
57.1600 311.0000 1.0000
57.1800 334.0000 1.0000
57.2000 382.0000 1.0000
57.2200 452.0000 1.0000
57.2400 568.0000 1.0000
57.2600 665.0000 1.0000
57.2800 798.0000 1.0000
57.3000 968.0000 1.0000
57.3200 1168.0000 1.0000
57.3400 1333.0000 1.0000
57.3600 1442.0000 1.0000
57.3800 1484.0000 1.0000
57.4000 1443.0000 1.0000
57.4200 1367.0000 1.0000
57.4400 1264.0000 1.0000
57.4600 1138.0000 1.0000
57.4800 1035.0000 1.0000
57.5000 956.0000 1.0000
57.5200 945.0000 1.0000
57.5400 852.0000 1.0000
57.5600 798.0000 1.0000
57.5800 696.0000 1.0000
57.6000 593.0000 1.0000
57.6200 500.0000 1.0000
57.6400 386.0000 1.0000
57.6600 305.0000 1.0000
57.6800 276.0000 1.0000
57.7000 237.0000 1.0000
57.7200 214.0000 1.0000
57.7400 202.0000 1.0000
57.7600 196.0000 1.0000
57.7800 189.0000 1.0000
57.8000 177.0000 1.0000
57.8200 187.0000 1.0000
57.8400 172.0000 1.0000
57.8600 145.0000 1.0000
57.8800 151.0000 1.0000
57.9000 142.0000 1.0000
57.9200 136.0000 1.0000
57.9400 138.0000 1.0000
57.9600 151.0000 1.0000
57.9800 143.0000 1.0000
58.0000 135.0000 1.0000
58.0200 124.0000 1.0000
58.0400 124.0000 1.0000
58.0600 133.0000 1.0000
58.0800 149.0000 1.0000
58.1000 138.0000 1.0000
58.1200 146.0000 1.0000
58.1400 138.0000 1.0000
58.1600 143.0000 1.0000
58.1800 149.0000 1.0000
58.2000 144.0000 1.0000
58.2200 144.0000 1.0000
58.2400 154.0000 1.0000
58.2600 141.0000 1.0000
58.2800 133.0000 1.0000
58.3000 153.0000 1.0000
58.3200 147.0000 1.0000
58.3400 139.0000 1.0000
58.3600 157.0000 1.0000
58.3800 152.0000 1.0000
58.4000 164.0000 1.0000
58.4200 169.0000 1.0000
58.4400 171.0000 1.0000
58.4600 198.0000 1.0000
58.4800 176.0000 1.0000
58.5000 175.0000 1.0000
58.5200 193.0000 1.0000
58.5400 186.0000 1.0000
58.5600 184.0000 1.0000
58.5800 185.0000 1.0000
58.6000 192.0000 1.0000
58.6200 183.0000 1.0000
58.6400 168.0000 1.0000
58.6600 164.0000 1.0000
58.6800 155.0000 1.0000
58.7000 154.0000 1.0000
58.7200 140.0000 1.0000
58.7400 137.0000 1.0000
58.7600 133.0000 1.0000
58.7800 144.0000 1.0000
58.8000 142.0000 1.0000
58.8200 124.0000 1.0000
58.8400 111.0000 1.0000
58.8600 106.0000 1.0000
58.8800 120.0000 1.0000
58.9000 113.0000 1.0000
58.9200 133.0000 1.0000
58.9400 133.0000 1.0000
58.9600 103.0000 1.0000
58.9800 128.0000 1.0000
59.0000 118.0000 1.0000
59.0200 135.0000 1.0000
59.0400 140.0000 1.0000
59.0600 134.0000 1.0000
59.0800 134.0000 1.0000
59.1000 145.0000 1.0000
59.1200 143.0000 1.0000
59.1400 118.0000 1.0000
59.1600 129.0000 1.0000
59.1800 133.0000 1.0000
59.2000 146.0000 1.0000
59.2200 153.0000 1.0000
59.2400 140.0000 1.0000
59.2600 147.0000 1.0000
59.2800 153.0000 1.0000
59.3000 178.0000 1.0000
59.3200 185.0000 1.0000
59.3400 179.0000 1.0000
59.3600 198.0000 1.0000
59.3800 178.0000 1.0000
59.4000 151.0000 1.0000
59.4200 172.0000 1.0000
59.4400 198.0000 1.0000
59.4600 199.0000 1.0000
59.4800 183.0000 1.0000
59.5000 218.0000 1.0000
59.5200 187.0000 1.0000
59.5400 225.0000 1.0000
59.5600 241.0000 1.0000
59.5800 245.0000 1.0000
59.6000 292.0000 1.0000
59.6200 300.0000 1.0000
59.6400 304.0000 1.0000
59.6600 363.0000 1.0000
59.6800 369.0000 1.0000
59.7000 411.0000 1.0000
59.7200 504.0000 1.0000
59.7400 606.0000 1.0000
59.7600 671.0000 1.0000
59.7800 855.0000 1.0000
59.8000 875.0000 1.0000
59.8200 989.0000 1.0000
59.8400 951.0000 1.0000
59.8600 958.0000 1.0000
59.8800 888.0000 1.0000
59.9000 833.0000 1.0000
59.9200 728.0000 1.0000
59.9400 655.0000 1.0000
59.9600 646.0000 1.0000
59.9800 586.0000 1.0000
60.0000 563.0000 1.0000
60.0200 522.0000 1.0000
60.0400 525.0000 1.0000
60.0600 477.0000 1.0000
60.0800 352.0000 1.0000
60.1000 320.0000 1.0000
60.1200 265.0000 1.0000
60.1400 246.0000 1.0000
60.1600 200.0000 1.0000
60.1800 195.0000 1.0000
60.2000 201.0000 1.0000
60.2200 191.0000 1.0000
60.2400 193.0000 1.0000
60.2600 187.0000 1.0000
60.2800 195.0000 1.0000
60.3000 182.0000 1.0000
60.3200 162.0000 1.0000
60.3400 165.0000 1.0000
60.3600 151.0000 1.0000
60.3800 147.0000 1.0000
60.4000 152.0000 1.0000
60.4200 146.0000 1.0000
60.4400 157.0000 1.0000
60.4600 177.0000 1.0000
60.4800 124.0000 1.0000
60.5000 149.0000 1.0000
60.5200 145.0000 1.0000
60.5400 160.0000 1.0000
60.5600 142.0000 1.0000
60.5800 142.0000 1.0000
60.6000 168.0000 1.0000
60.6200 158.0000 1.0000
60.6400 152.0000 1.0000
60.6600 151.0000 1.0000
60.6800 140.0000 1.0000
60.7000 143.0000 1.0000
60.7200 119.0000 1.0000
60.7400 146.0000 1.0000
60.7600 135.0000 1.0000
60.7800 136.0000 1.0000
60.8000 154.0000 1.0000
60.8200 151.0000 1.0000
60.8400 144.0000 1.0000
60.8600 174.0000 1.0000
60.8800 135.0000 1.0000
60.9000 179.0000 1.0000
60.9200 166.0000 1.0000
60.9400 174.0000 1.0000
60.9600 197.0000 1.0000
60.9800 197.0000 1.0000
61.0000 227.0000 1.0000
61.0200 250.0000 1.0000
61.0400 228.0000 1.0000
61.0600 270.0000 1.0000
61.0800 269.0000 1.0000
61.1000 279.0000 1.0000
61.1200 256.0000 1.0000
61.1400 289.0000 1.0000
61.1600 275.0000 1.0000
61.1800 289.0000 1.0000
61.2000 258.0000 1.0000
61.2200 273.0000 1.0000
61.2400 249.0000 1.0000
61.2600 253.0000 1.0000
61.2800 210.0000 1.0000
61.3000 197.0000 1.0000
61.3200 190.0000 1.0000
61.3400 210.0000 1.0000
61.3600 226.0000 1.0000
61.3800 179.0000 1.0000
61.4000 165.0000 1.0000
61.4200 185.0000 1.0000
61.4400 162.0000 1.0000
61.4600 158.0000 1.0000
61.4800 145.0000 1.0000
61.5000 159.0000 1.0000
61.5200 151.0000 1.0000
61.5400 181.0000 1.0000
61.5600 148.0000 1.0000
61.5800 181.0000 1.0000
61.6000 145.0000 1.0000
61.6200 148.0000 1.0000
61.6400 144.0000 1.0000
61.6600 141.0000 1.0000
61.6800 140.0000 1.0000
61.7000 180.0000 1.0000
61.7200 150.0000 1.0000
61.7400 154.0000 1.0000
61.7600 159.0000 1.0000
61.7800 143.0000 1.0000
61.8000 155.0000 1.0000
61.8200 156.0000 1.0000
61.8400 148.0000 1.0000
61.8600 163.0000 1.0000
61.8800 135.0000 1.0000
61.9000 156.0000 1.0000
61.9200 143.0000 1.0000
61.9400 164.0000 1.0000
61.9600 150.0000 1.0000
61.9800 140.0000 1.0000
62.0000 153.0000 1.0000
62.0200 152.0000 1.0000
62.0400 143.0000 1.0000
62.0600 152.0000 1.0000
62.0800 147.0000 1.0000
62.1000 139.0000 1.0000
62.1200 148.0000 1.0000
62.1400 165.0000 1.0000
62.1600 163.0000 1.0000
62.1800 141.0000 1.0000
62.2000 111.0000 1.0000
62.2200 161.0000 1.0000
62.2400 139.0000 1.0000
62.2600 132.0000 1.0000
62.2800 127.0000 1.0000
62.3000 137.0000 1.0000
62.3200 159.0000 1.0000
62.3400 150.0000 1.0000
62.3600 135.0000 1.0000
62.3800 139.0000 1.0000
62.4000 143.0000 1.0000
62.4200 148.0000 1.0000
62.4400 154.0000 1.0000
62.4600 136.0000 1.0000
62.4800 141.0000 1.0000
62.5000 148.0000 1.0000
62.5200 145.0000 1.0000
62.5400 140.0000 1.0000
62.5600 151.0000 1.0000
62.5800 144.0000 1.0000
62.6000 142.0000 1.0000
62.6200 139.0000 1.0000
62.6400 156.0000 1.0000
62.6600 156.0000 1.0000
62.6800 155.0000 1.0000
62.7000 131.0000 1.0000
62.7200 132.0000 1.0000
62.7400 137.0000 1.0000
62.7600 148.0000 1.0000
62.7800 122.0000 1.0000
62.8000 143.0000 1.0000
62.8200 147.0000 1.0000
62.8400 157.0000 1.0000
62.8600 161.0000 1.0000
62.8800 168.0000 1.0000
62.9000 156.0000 1.0000
62.9200 177.0000 1.0000
62.9400 172.0000 1.0000
62.9600 184.0000 1.0000
62.9800 183.0000 1.0000
63.0000 186.0000 1.0000
63.0200 181.0000 1.0000
63.0400 182.0000 1.0000
63.0600 187.0000 1.0000
63.0800 167.0000 1.0000
63.1000 172.0000 1.0000
63.1200 171.0000 1.0000
63.1400 173.0000 1.0000
63.1600 178.0000 1.0000
63.1800 167.0000 1.0000
63.2000 179.0000 1.0000
63.2200 178.0000 1.0000
63.2400 184.0000 1.0000
63.2600 175.0000 1.0000
63.2800 178.0000 1.0000
63.3000 179.0000 1.0000
63.3200 153.0000 1.0000
63.3400 181.0000 1.0000
63.3600 179.0000 1.0000
63.3800 170.0000 1.0000
63.4000 196.0000 1.0000
63.4200 199.0000 1.0000
63.4400 180.0000 1.0000
63.4600 170.0000 1.0000
63.4800 193.0000 1.0000
63.5000 186.0000 1.0000
63.5200 215.0000 1.0000
63.5400 210.0000 1.0000
63.5600 234.0000 1.0000
63.5800 226.0000 1.0000
63.6000 256.0000 1.0000
63.6200 249.0000 1.0000
63.6400 250.0000 1.0000
63.6600 260.0000 1.0000
63.6800 264.0000 1.0000
63.7000 253.0000 1.0000
63.7200 267.0000 1.0000
63.7400 287.0000 1.0000
63.7600 272.0000 1.0000
63.7800 266.0000 1.0000
63.8000 277.0000 1.0000
63.8200 303.0000 1.0000
63.8400 324.0000 1.0000
63.8600 301.0000 1.0000
63.8800 344.0000 1.0000
63.9000 341.0000 1.0000
63.9200 337.0000 1.0000
63.9400 326.0000 1.0000
63.9600 300.0000 1.0000
63.9800 288.0000 1.0000
64.0000 259.0000 1.0000
64.0200 256.0000 1.0000
64.0400 236.0000 1.0000
64.0600 250.0000 1.0000
64.0800 233.0000 1.0000
64.1000 211.0000 1.0000
64.1200 226.0000 1.0000
64.1400 186.0000 1.0000
64.1600 175.0000 1.0000
64.1800 170.0000 1.0000
64.2000 160.0000 1.0000
64.2200 156.0000 1.0000
64.2400 146.0000 1.0000
64.2600 140.0000 1.0000
64.2800 135.0000 1.0000
64.3000 122.0000 1.0000
64.3200 120.0000 1.0000
64.3400 114.0000 1.0000
64.3600 133.0000 1.0000
64.3800 121.0000 1.0000
64.4000 121.0000 1.0000
64.4200 125.0000 1.0000
64.4400 121.0000 1.0000
64.4600 132.0000 1.0000
64.4800 132.0000 1.0000
64.5000 133.0000 1.0000
64.5200 133.0000 1.0000
64.5400 138.0000 1.0000
64.5600 116.0000 1.0000
64.5800 127.0000 1.0000
64.6000 134.0000 1.0000
64.6200 119.0000 1.0000
64.6400 131.0000 1.0000
64.6600 127.0000 1.0000
64.6800 136.0000 1.0000
64.7000 141.0000 1.0000
64.7200 138.0000 1.0000
64.7400 144.0000 1.0000
64.7600 132.0000 1.0000
64.7800 137.0000 1.0000
64.8000 167.0000 1.0000
64.8200 163.0000 1.0000
64.8400 144.0000 1.0000
64.8600 144.0000 1.0000
64.8800 153.0000 1.0000
64.9000 155.0000 1.0000
64.9200 159.0000 1.0000
64.9400 180.0000 1.0000
64.9600 187.0000 1.0000
64.9800 187.0000 1.0000
65.0000 187.0000 1.0000
*RAS_INT_END
*RAS_DATA_END
