*RAS_DATA_START
*RAS_HEADER_START
*CORR_POS_DB_NAME "Angle Correction ASC6 SC WITH Mono_04082019"
*CORR_POS_GONIO_RADIUS ""
*CORR_POS_NODE_INDEX01 ""
*CORR_POS_NODE_INDEX02 ""
*CORR_POS_NODE_INDEX03 ""
*CORR_POS_NODE_INDEX04 ""
*CORR_POS_NODE_INDEX05 ""
*CORR_POS_NODE_INDEX06 ""
*CORR_POS_NODE_INDEX07 ""
*CORR_POS_NODE_INDEX08 ""
*CORR_POS_NODE_INDEX09 ""
*CORR_POS_NODE_INDEX10 ""
*CORR_POS_NODE_INDEX11 ""
*CORR_POS_NODE_LABEL01 "Si(111)"
*CORR_POS_NODE_LABEL02 "Si(220)"
*CORR_POS_NODE_LABEL03 "Si(311)"
*CORR_POS_NODE_LABEL04 "Si(400)"
*CORR_POS_NODE_LABEL05 "Si(331)"
*CORR_POS_NODE_LABEL06 "Si(422)"
*CORR_POS_NODE_LABEL07 "Si(511)"
*CORR_POS_NODE_LABEL08 "Si(440)"
*CORR_POS_NODE_LABEL09 "Si(531)"
*CORR_POS_NODE_LABEL10 "Si(620)"
*CORR_POS_NODE_LABEL11 "Si(533)"
*CORR_POS_NODE_POS_CALC01 "28.377"
*CORR_POS_NODE_POS_CALC02 "47.2506"
*CORR_POS_NODE_POS_CALC03 "56.0725"
*CORR_POS_NODE_POS_CALC04 "69.0822"
*CORR_POS_NODE_POS_CALC05 "76.3294"
*CORR_POS_NODE_POS_CALC06 "87.9853"
*CORR_POS_NODE_POS_CALC07 "94.9091"
*CORR_POS_NODE_POS_CALC08 "106.668"
*CORR_POS_NODE_POS_CALC09 "114.054"
*CORR_POS_NODE_POS_CALC10 "127.511"
*CORR_POS_NODE_POS_CALC11 "136.864"
*CORR_POS_NODE_POS_MEAS01 "28.5058"
*CORR_POS_NODE_POS_MEAS02 "47.345"
*CORR_POS_NODE_POS_MEAS03 "56.1421"
*CORR_POS_NODE_POS_MEAS04 "69.1304"
*CORR_POS_NODE_POS_MEAS05 "76.366"
*CORR_POS_NODE_POS_MEAS06 "88.0213"
*CORR_POS_NODE_POS_MEAS07 "94.9406"
*CORR_POS_NODE_POS_MEAS08 "106.689"
*CORR_POS_NODE_POS_MEAS09 "114.065"
*CORR_POS_NODE_POS_MEAS10 "127.518"
*CORR_POS_NODE_POS_MEAS11 "136.869"
*CORR_POS_OPT_ATTR "集中法"
*CORR_POS_PARAM_MU ""
*CORR_POS_PARAM_PL ""
*CORR_POS_SEMODEL_TYPE "0"
*CORR_POS_STANDARD_TYPE ""
*CORR_POS_VALUE_ANALYZER "None"
*CORR_POS_VALUE_CMONO "None"
*CORR_POS_VALUE_IMONO "None"
*CORR_POS_VALUE_IS "1.250deg"
*CORR_POS_VALUE_ISL "10.0mm"
*CORR_POS_VALUE_ISOLLER "5.0deg"
*CORR_POS_VALUE_RS1 "1.250deg"
*CORR_POS_VALUE_RS2 "0.3mm"
*CORR_POS_VALUE_RSOLLER "5.0deg"
*CORR_POS_XG_FOCUS_L ""
*CORR_POS_XG_WAVE_TYPE ""
*CORR_POS_XG_WAVE_VALUE ""
*DISP_FMT_X "%.2f"
*DISP_FMT_Y "%.0f"
*DISP_FULLSCALE "8200.2000000000"
*DISP_LINE_COLOR "255.0000000000"
*DISP_LINE_STYLE "0.0000000000"
*DISP_LINE_WIDTH "0.2500000000"
*DISP_NOTE "Collected Data-20"
*DISP_OFFSET_Y "0.0000000000"
*DISP_PEAKSEARCH_UNIT_Y "CPS"
*DISP_RANGE_BOTTOM "0.0000000000"
*DISP_RANGE_LEFT "5.0000000000"
*DISP_RANGE_LOGCUTOFF "0.0100000000"
*DISP_RANGE_RIGHT "65.0000000000"
*DISP_RANGE_TOP "8200.2000000000"
*DISP_SCALE_MODE_Y "0.0000000000"
*DISP_TAB_NAME "Theta/2-Theta"
*DISP_TITLE_Y "Intensity"
*DISP_UNIT_Y "CPS"
*DISP_WINDOW_NAME "MSG_MACROENGINE"
*FILE_COMMENT " "
*FILE_MD5 ""
*FILE_MEMO " "
*FILE_OPERATOR "administrator"
*FILE_PART_ID "MEAS_PBEA_00223"
*FILE_SAMPLE " "
*FILE_TYPE "RAS_RAW"
*FILE_USERGROUP "System Manager"
*FILE_VERSION "1.0000000000"
*HW_ATTACHMENT_ID "ATT1031"
*HW_ATTACHMENT_NAME "6サンプルチェンジャ|ASC-6"
*HW_COUNTER_ID-0 "CUT0021"
*HW_COUNTER_ID-1 "CUT0020"
*HW_COUNTER_ID-2 "CUT0020"
*HW_COUNTER_ID-3 "CMC0021"
*HW_COUNTER_NAME-0 "SC-70|SC-70"
*HW_COUNTER_NAME-1 "None|None"
*HW_COUNTER_NAME-2 "None|None"
*HW_COUNTER_NAME-3 "検出器モノクロメータ|Detector monochromator"
*HW_COUNTER_SELECT_NAME "SC-70|SC-70"
*HW_ECP_HV "671.5000000000"
*HW_ECP_HV_UNIT "V"
*HW_GONIOMETER_ID "GON0070"
*HW_GONIOMETER_NAME "MiniFlex 300/600|MiniFlex 300/600"
*HW_GONIOMETER_RADIUS-0 "79.0"
*HW_GONIOMETER_RADIUS-1 "91.5"
*HW_GONIOMETER_RADIUS-2 "150.0"
*HW_GONIOMETER_RADIUS-3 "0"
*HW_GONIOMETER_RADIUS-4 "103.4"
*HW_GONIOMETER_RADIUS-5 "150.0"
*HW_GONIOMETER_RADIUS-6 "46.6"
*HW_GONIOMETER_RADIUS-7 "160.0"
*HW_I_OPT_ID-0 "ISL0021"
*HW_I_OPT_ID-1 "ISO0021"
*HW_I_OPT_NAME-0 "発散スリット|Divergence slit"
*HW_I_OPT_NAME-1 "入射平行スリット|Incident parallel slit"
*HW_R_ATTENUATER_AUTOMODE "0"
*HW_R_OPT_ID-0 "RSS0021"
*HW_R_OPT_ID-1 "RSO0021"
*HW_R_OPT_ID-2 "RRS0021"
*HW_R_OPT_NAME-0 "散乱スリット|Scattering slit"
*HW_R_OPT_NAME-1 "受光平行スリット|Receiving soller slit"
*HW_R_OPT_NAME-2 "受光スリット|Receiving slit"
*HW_SAMPLE_HOLDER_ID "SMP0000"
*HW_SAMPLE_HOLDER_NAME "無し|None"
*HW_XG_CURRENT_MAX "15"
*HW_XG_CURRENT_MIN "2"
*HW_XG_CURRENT_RESOLUTION "1"
*HW_XG_CURRENT_UNIT "mA"
*HW_XG_FOCUS "1mm x 10mm"
*HW_XG_FOCUS_TYPE "Normal"
*HW_XG_ID "1060"
*HW_XG_NAME "300W/600W 封入管-B|300W/600W Sealed tube-B"
*HW_XG_TARGET_ATOMIC_NUMBER "29.0000000000"
*HW_XG_TARGET_NAME "Cu"
*HW_XG_TYPE "Hermetic"
*HW_XG_VOLTAGE_MAX "40"
*HW_XG_VOLTAGE_MIN "20"
*HW_XG_VOLTAGE_RESOLUTION "1"
*HW_XG_VOLTAGE_UNIT "kV"
*HW_XG_WATT_MAX "0.600"
*HW_XG_WATT_UNIT "kW"
*HW_XG_WAVE_LENGTH_ALPHA1 "1.540593"
*HW_XG_WAVE_LENGTH_ALPHA2 "1.544414"
*HW_XG_WAVE_LENGTH_BETA "1.392250"
*MEAS_COND_AXIS_NAME-0 "Theta/2-Theta"
*MEAS_COND_AXIS_NAME-1 "Spin"
*MEAS_COND_AXIS_NAME-2 "Change"
*MEAS_COND_AXIS_NAME-3 "Soller(inc.)"
*MEAS_COND_AXIS_NAME-4 "IHS"
*MEAS_COND_AXIS_NAME-5 "DS"
*MEAS_COND_AXIS_NAME-6 "SS"
*MEAS_COND_AXIS_NAME-7 "Soller(rec.)"
*MEAS_COND_AXIS_NAME-8 "RS"
*MEAS_COND_AXIS_NAME-9 "Filter"
*MEAS_COND_AXIS_NAME-10 "Monochromator"
*MEAS_COND_AXIS_NAME-11 "HV"
*MEAS_COND_AXIS_NAME-12 "PHA"
*MEAS_COND_AXIS_NAME_INTERNAL-0 "TwoThetaTheta"
*MEAS_COND_AXIS_NAME_INTERNAL-1 "Spin"
*MEAS_COND_AXIS_NAME_INTERNAL-2 "Change"
*MEAS_COND_AXIS_NAME_INTERNAL-3 "IncidentSollerSlit"
*MEAS_COND_AXIS_NAME_INTERNAL-4 "IncidentAxdSlit"
*MEAS_COND_AXIS_NAME_INTERNAL-5 "IncidentSlitBox"
*MEAS_COND_AXIS_NAME_INTERNAL-6 "ReceivingSlitBox1"
*MEAS_COND_AXIS_NAME_INTERNAL-7 "ReceivingSollerSlit"
*MEAS_COND_AXIS_NAME_INTERNAL-8 "ReceivingSlitBox2"
*MEAS_COND_AXIS_NAME_INTERNAL-9 "Filter"
*MEAS_COND_AXIS_NAME_INTERNAL-10 "CounterMonochromator"
*MEAS_COND_AXIS_NAME_INTERNAL-11 "HV"
*MEAS_COND_AXIS_NAME_INTERNAL-12 "PHA"
*MEAS_COND_AXIS_NAME_MAGICNO-0 "268632064.0000000000"
*MEAS_COND_AXIS_NAME_MAGICNO-1 "16842752.0000000000"
*MEAS_COND_AXIS_NAME_MAGICNO-2 "16842752.0000000000"
*MEAS_COND_AXIS_NAME_MAGICNO-3 "20971521.0000000000"
*MEAS_COND_AXIS_NAME_MAGICNO-4 "22020097.0000000000"
*MEAS_COND_AXIS_NAME_MAGICNO-5 "22020097.0000000000"
*MEAS_COND_AXIS_NAME_MAGICNO-6 "23068673.0000000000"
*MEAS_COND_AXIS_NAME_MAGICNO-7 "20971521.0000000000"
*MEAS_COND_AXIS_NAME_MAGICNO-8 "23068673.0000000000"
*MEAS_COND_AXIS_NAME_MAGICNO-9 "20971521.0000000000"
*MEAS_COND_AXIS_NAME_MAGICNO-10 "20971521.0000000000"
*MEAS_COND_AXIS_NAME_MAGICNO-11 "0.0000000000"
*MEAS_COND_AXIS_NAME_MAGICNO-12 "0.0000000000"
*MEAS_COND_AXIS_OFFSET-0 "0.0000000000"
*MEAS_COND_AXIS_OFFSET-1 "-"
*MEAS_COND_AXIS_OFFSET-2 "-"
*MEAS_COND_AXIS_OFFSET-3 "-"
*MEAS_COND_AXIS_OFFSET-4 "-"
*MEAS_COND_AXIS_OFFSET-5 "-"
*MEAS_COND_AXIS_OFFSET-6 "-"
*MEAS_COND_AXIS_OFFSET-7 "-"
*MEAS_COND_AXIS_OFFSET-8 "-"
*MEAS_COND_AXIS_OFFSET-9 "-"
*MEAS_COND_AXIS_OFFSET-10 "-"
*MEAS_COND_AXIS_OFFSET-11 "-"
*MEAS_COND_AXIS_OFFSET-12 "-"
*MEAS_COND_AXIS_POSITION-0 "65.0000000000"
*MEAS_COND_AXIS_POSITION-1 "0.0000000000"
*MEAS_COND_AXIS_POSITION-2 "4.0000000000"
*MEAS_COND_AXIS_POSITION-3 "5.0deg"
*MEAS_COND_AXIS_POSITION-4 "10.0mm"
*MEAS_COND_AXIS_POSITION-5 "1.250deg"
*MEAS_COND_AXIS_POSITION-6 "1.250deg"
*MEAS_COND_AXIS_POSITION-7 "5.0deg"
*MEAS_COND_AXIS_POSITION-8 "0.3mm"
*MEAS_COND_AXIS_POSITION-9 "None"
*MEAS_COND_AXIS_POSITION-10 "Bent"
*MEAS_COND_AXIS_POSITION-11 "671.5000000000"
*MEAS_COND_AXIS_POSITION-12 "551.2500000000"
*MEAS_COND_AXIS_UNIT-0 "deg"
*MEAS_COND_AXIS_UNIT-1 ""
*MEAS_COND_AXIS_UNIT-2 ""
*MEAS_COND_AXIS_UNIT-3 ""
*MEAS_COND_AXIS_UNIT-4 ""
*MEAS_COND_AXIS_UNIT-5 ""
*MEAS_COND_AXIS_UNIT-6 ""
*MEAS_COND_AXIS_UNIT-7 ""
*MEAS_COND_AXIS_UNIT-8 ""
*MEAS_COND_AXIS_UNIT-9 ""
*MEAS_COND_AXIS_UNIT-10 ""
*MEAS_COND_AXIS_UNIT-11 "V"
*MEAS_COND_AXIS_UNIT-12 "mV"
*MEAS_COND_CORRECTION_SLIT_COUNTERMONO "None"
*MEAS_COND_CORRECTION_SLIT_DS "1.250deg"
*MEAS_COND_CORRECTION_SLIT_FILTER "None"
*MEAS_COND_CORRECTION_SLIT_IHS "10.0mm"
*MEAS_COND_CORRECTION_SLIT_RS "0.3mm"
*MEAS_COND_CORRECTION_SLIT_SOLLER_INC "5.0deg"
*MEAS_COND_CORRECTION_SLIT_SOLLER_REC "5.0deg"
*MEAS_COND_CORRECTION_SLIT_SS "1.250deg"
*MEAS_COND_COUNTER_CNTLOSS_CORR "0.0000000000"
*MEAS_COND_COUNTER_PHABASE "551.2500000000"
*MEAS_COND_COUNTER_PHAWINDOW "926.2500000000"
*MEAS_COND_COUNTER_PHA_UNIT "mV"
*MEAS_COND_COUNTER_TAUDIFF "0.2500000000"
*MEAS_COND_COUNTER_TAUINT "0.7500000000"
*MEAS_COND_IRRADIATION_MODE "OFF"
*MEAS_COND_IRRADIATION_WIDTH ""
*MEAS_COND_OPT_ATTR " "
*MEAS_COND_OPT_NAME ""
*MEAS_COND_UNSYMMETRIC_MODE "OFF"
*MEAS_COND_XG_CURRENT "15.0000000000"
*MEAS_COND_XG_VOLTAGE "40.0000000000"
*MEAS_COND_XG_WAVE_TYPE "Ka"
*MEAS_DATA_COUNT "3001.0000000000"
*MEAS_SCAN_AXIS_X "Theta/2-Theta"
*MEAS_SCAN_AXIS_X_INTERNAL "TwoThetaTheta"
*MEAS_SCAN_END_TIME "06/10/25 19:08:03"
*MEAS_SCAN_MODE "STEP"
*MEAS_SCAN_MONITOR "0"
*MEAS_SCAN_RESOLUTION_X "0.0025"
*MEAS_SCAN_SPEED "2.00"
*MEAS_SCAN_SPEED_UNIT "sec."
*MEAS_SCAN_SPEED_USER "2.00"
*MEAS_SCAN_START "5.0000000000"
*MEAS_SCAN_START_TIME "06/10/25 17:22:47"
*MEAS_SCAN_STEP "0.0200000000"
*MEAS_SCAN_STOP "65.0000000000"
*MEAS_SCAN_UNIT_X "deg"
*MEAS_SCAN_UNIT_Y "counts"
*SLIT_SYSTEM "0"
*RAS_HEADER_END
*RAS_INT_START
5.0000 863.0000 1.0000
5.0200 751.0000 1.0000
5.0400 908.0000 1.0000
5.0600 926.0000 1.0000
5.0800 871.0000 1.0000
5.1000 831.0000 1.0000
5.1200 879.0000 1.0000
5.1400 810.0000 1.0000
5.1600 829.0000 1.0000
5.1800 811.0000 1.0000
5.2000 772.0000 1.0000
5.2200 819.0000 1.0000
5.2400 823.0000 1.0000
5.2600 767.0000 1.0000
5.2800 750.0000 1.0000
5.3000 754.0000 1.0000
5.3200 790.0000 1.0000
5.3400 822.0000 1.0000
5.3600 840.0000 1.0000
5.3800 750.0000 1.0000
5.4000 768.0000 1.0000
5.4200 717.0000 1.0000
5.4400 786.0000 1.0000
5.4600 787.0000 1.0000
5.4800 709.0000 1.0000
5.5000 771.0000 1.0000
5.5200 704.0000 1.0000
5.5400 802.0000 1.0000
5.5600 776.0000 1.0000
5.5800 776.0000 1.0000
5.6000 757.0000 1.0000
5.6200 754.0000 1.0000
5.6400 675.0000 1.0000
5.6600 670.0000 1.0000
5.6800 743.0000 1.0000
5.7000 776.0000 1.0000
5.7200 774.0000 1.0000
5.7400 713.0000 1.0000
5.7600 723.0000 1.0000
5.7800 737.0000 1.0000
5.8000 744.0000 1.0000
5.8200 735.0000 1.0000
5.8400 713.0000 1.0000
5.8600 669.0000 1.0000
5.8800 702.0000 1.0000
5.9000 703.0000 1.0000
5.9200 666.0000 1.0000
5.9400 701.0000 1.0000
5.9600 683.0000 1.0000
5.9800 668.0000 1.0000
6.0000 710.0000 1.0000
6.0200 627.0000 1.0000
6.0400 652.0000 1.0000
6.0600 703.0000 1.0000
6.0800 667.0000 1.0000
6.1000 612.0000 1.0000
6.1200 647.0000 1.0000
6.1400 599.0000 1.0000
6.1600 570.0000 1.0000
6.1800 604.0000 1.0000
6.2000 615.0000 1.0000
6.2200 586.0000 1.0000
6.2400 569.0000 1.0000
6.2600 641.0000 1.0000
6.2800 663.0000 1.0000
6.3000 614.0000 1.0000
6.3200 564.0000 1.0000
6.3400 563.0000 1.0000
6.3600 614.0000 1.0000
6.3800 583.0000 1.0000
6.4000 496.0000 1.0000
6.4200 544.0000 1.0000
6.4400 571.0000 1.0000
6.4600 572.0000 1.0000
6.4800 539.0000 1.0000
6.5000 517.0000 1.0000
6.5200 527.0000 1.0000
6.5400 560.0000 1.0000
6.5600 518.0000 1.0000
6.5800 534.0000 1.0000
6.6000 577.0000 1.0000
6.6200 559.0000 1.0000
6.6400 574.0000 1.0000
6.6600 547.0000 1.0000
6.6800 506.0000 1.0000
6.7000 479.0000 1.0000
6.7200 523.0000 1.0000
6.7400 574.0000 1.0000
6.7600 519.0000 1.0000
6.7800 477.0000 1.0000
6.8000 486.0000 1.0000
6.8200 498.0000 1.0000
6.8400 494.0000 1.0000
6.8600 506.0000 1.0000
6.8800 516.0000 1.0000
6.9000 539.0000 1.0000
6.9200 534.0000 1.0000
6.9400 498.0000 1.0000
6.9600 491.0000 1.0000
6.9800 468.0000 1.0000
7.0000 480.0000 1.0000
7.0200 492.0000 1.0000
7.0400 499.0000 1.0000
7.0600 474.0000 1.0000
7.0800 414.0000 1.0000
7.1000 445.0000 1.0000
7.1200 512.0000 1.0000
7.1400 494.0000 1.0000
7.1600 480.0000 1.0000
7.1800 479.0000 1.0000
7.2000 459.0000 1.0000
7.2200 471.0000 1.0000
7.2400 485.0000 1.0000
7.2600 486.0000 1.0000
7.2800 452.0000 1.0000
7.3000 453.0000 1.0000
7.3200 454.0000 1.0000
7.3400 425.0000 1.0000
7.3600 439.0000 1.0000
7.3800 451.0000 1.0000
7.4000 467.0000 1.0000
7.4200 453.0000 1.0000
7.4400 444.0000 1.0000
7.4600 478.0000 1.0000
7.4800 465.0000 1.0000
7.5000 443.0000 1.0000
7.5200 427.0000 1.0000
7.5400 434.0000 1.0000
7.5600 430.0000 1.0000
7.5800 449.0000 1.0000
7.6000 472.0000 1.0000
7.6200 490.0000 1.0000
7.6400 465.0000 1.0000
7.6600 432.0000 1.0000
7.6800 433.0000 1.0000
7.7000 456.0000 1.0000
7.7200 438.0000 1.0000
7.7400 418.0000 1.0000
7.7600 424.0000 1.0000
7.7800 425.0000 1.0000
7.8000 448.0000 1.0000
7.8200 454.0000 1.0000
7.8400 455.0000 1.0000
7.8600 442.0000 1.0000
7.8800 436.0000 1.0000
7.9000 433.0000 1.0000
7.9200 441.0000 1.0000
7.9400 412.0000 1.0000
7.9600 415.0000 1.0000
7.9800 449.0000 1.0000
8.0000 425.0000 1.0000
8.0200 443.0000 1.0000
8.0400 465.0000 1.0000
8.0600 473.0000 1.0000
8.0800 435.0000 1.0000
8.1000 461.0000 1.0000
8.1200 458.0000 1.0000
8.1400 457.0000 1.0000
8.1600 485.0000 1.0000
8.1800 480.0000 1.0000
8.2000 515.0000 1.0000
8.2200 514.0000 1.0000
8.2400 487.0000 1.0000
8.2600 513.0000 1.0000
8.2800 535.0000 1.0000
8.3000 547.0000 1.0000
8.3200 597.0000 1.0000
8.3400 565.0000 1.0000
8.3600 554.0000 1.0000
8.3800 598.0000 1.0000
8.4000 636.0000 1.0000
8.4200 666.0000 1.0000
8.4400 768.0000 1.0000
8.4600 797.0000 1.0000
8.4800 835.0000 1.0000
8.5000 934.0000 1.0000
8.5200 1004.0000 1.0000
8.5400 1037.0000 1.0000
8.5600 1148.0000 1.0000
8.5800 1309.0000 1.0000
8.6000 1386.0000 1.0000
8.6200 1487.0000 1.0000
8.6400 1386.0000 1.0000
8.6600 1206.0000 1.0000
8.6800 1023.0000 1.0000
8.7000 872.0000 1.0000
8.7200 767.0000 1.0000
8.7400 614.0000 1.0000
8.7600 535.0000 1.0000
8.7800 462.0000 1.0000
8.8000 433.0000 1.0000
8.8200 386.0000 1.0000
8.8400 412.0000 1.0000
8.8600 365.0000 1.0000
8.8800 364.0000 1.0000
8.9000 370.0000 1.0000
8.9200 367.0000 1.0000
8.9400 297.0000 1.0000
8.9600 338.0000 1.0000
8.9800 312.0000 1.0000
9.0000 305.0000 1.0000
9.0200 305.0000 1.0000
9.0400 329.0000 1.0000
9.0600 320.0000 1.0000
9.0800 303.0000 1.0000
9.1000 318.0000 1.0000
9.1200 301.0000 1.0000
9.1400 305.0000 1.0000
9.1600 300.0000 1.0000
9.1800 303.0000 1.0000
9.2000 335.0000 1.0000
9.2200 320.0000 1.0000
9.2400 311.0000 1.0000
9.2600 272.0000 1.0000
9.2800 298.0000 1.0000
9.3000 253.0000 1.0000
9.3200 275.0000 1.0000
9.3400 284.0000 1.0000
9.3600 258.0000 1.0000
9.3800 273.0000 1.0000
9.4000 290.0000 1.0000
9.4200 264.0000 1.0000
9.4400 273.0000 1.0000
9.4600 257.0000 1.0000
9.4800 260.0000 1.0000
9.5000 230.0000 1.0000
9.5200 230.0000 1.0000
9.5400 233.0000 1.0000
9.5600 227.0000 1.0000
9.5800 293.0000 1.0000
9.6000 265.0000 1.0000
9.6200 253.0000 1.0000
9.6400 221.0000 1.0000
9.6600 215.0000 1.0000
9.6800 266.0000 1.0000
9.7000 225.0000 1.0000
9.7200 246.0000 1.0000
9.7400 246.0000 1.0000
9.7600 281.0000 1.0000
9.7800 231.0000 1.0000
9.8000 235.0000 1.0000
9.8200 246.0000 1.0000
9.8400 236.0000 1.0000
9.8600 226.0000 1.0000
9.8800 259.0000 1.0000
9.9000 232.0000 1.0000
9.9200 273.0000 1.0000
9.9400 244.0000 1.0000
9.9600 244.0000 1.0000
9.9800 223.0000 1.0000
10.0000 245.0000 1.0000
10.0200 233.0000 1.0000
10.0400 216.0000 1.0000
10.0600 208.0000 1.0000
10.0800 235.0000 1.0000
10.1000 244.0000 1.0000
10.1200 231.0000 1.0000
10.1400 236.0000 1.0000
10.1600 212.0000 1.0000
10.1800 211.0000 1.0000
10.2000 255.0000 1.0000
10.2200 245.0000 1.0000
10.2400 276.0000 1.0000
10.2600 251.0000 1.0000
10.2800 249.0000 1.0000
10.3000 256.0000 1.0000
10.3200 266.0000 1.0000
10.3400 249.0000 1.0000
10.3600 224.0000 1.0000
10.3800 236.0000 1.0000
10.4000 214.0000 1.0000
10.4200 215.0000 1.0000
10.4400 227.0000 1.0000
10.4600 204.0000 1.0000
10.4800 250.0000 1.0000
10.5000 214.0000 1.0000
10.5200 190.0000 1.0000
10.5400 190.0000 1.0000
10.5600 189.0000 1.0000
10.5800 182.0000 1.0000
10.6000 185.0000 1.0000
10.6200 211.0000 1.0000
10.6400 227.0000 1.0000
10.6600 217.0000 1.0000
10.6800 198.0000 1.0000
10.7000 234.0000 1.0000
10.7200 208.0000 1.0000
10.7400 221.0000 1.0000
10.7600 214.0000 1.0000
10.7800 213.0000 1.0000
10.8000 241.0000 1.0000
10.8200 192.0000 1.0000
10.8400 193.0000 1.0000
10.8600 195.0000 1.0000
10.8800 223.0000 1.0000
10.9000 189.0000 1.0000
10.9200 231.0000 1.0000
10.9400 215.0000 1.0000
10.9600 249.0000 1.0000
10.9800 220.0000 1.0000
11.0000 161.0000 1.0000
11.0200 209.0000 1.0000
11.0400 198.0000 1.0000
11.0600 240.0000 1.0000
11.0800 191.0000 1.0000
11.1000 226.0000 1.0000
11.1200 187.0000 1.0000
11.1400 247.0000 1.0000
11.1600 184.0000 1.0000
11.1800 174.0000 1.0000
11.2000 179.0000 1.0000
11.2200 185.0000 1.0000
11.2400 215.0000 1.0000
11.2600 183.0000 1.0000
11.2800 167.0000 1.0000
11.3000 165.0000 1.0000
11.3200 159.0000 1.0000
11.3400 167.0000 1.0000
11.3600 191.0000 1.0000
11.3800 191.0000 1.0000
11.4000 172.0000 1.0000
11.4200 154.0000 1.0000
11.4400 160.0000 1.0000
11.4600 171.0000 1.0000
11.4800 176.0000 1.0000
11.5000 177.0000 1.0000
11.5200 183.0000 1.0000
11.5400 177.0000 1.0000
11.5600 180.0000 1.0000
11.5800 192.0000 1.0000
11.6000 176.0000 1.0000
11.6200 196.0000 1.0000
11.6400 169.0000 1.0000
11.6600 162.0000 1.0000
11.6800 152.0000 1.0000
11.7000 173.0000 1.0000
11.7200 152.0000 1.0000
11.7400 174.0000 1.0000
11.7600 172.0000 1.0000
11.7800 156.0000 1.0000
11.8000 216.0000 1.0000
11.8200 174.0000 1.0000
11.8400 167.0000 1.0000
11.8600 140.0000 1.0000
11.8800 179.0000 1.0000
11.9000 159.0000 1.0000
11.9200 130.0000 1.0000
11.9400 163.0000 1.0000
11.9600 174.0000 1.0000
11.9800 161.0000 1.0000
12.0000 173.0000 1.0000
12.0200 163.0000 1.0000
12.0400 166.0000 1.0000
12.0600 147.0000 1.0000
12.0800 150.0000 1.0000
12.1000 148.0000 1.0000
12.1200 176.0000 1.0000
12.1400 186.0000 1.0000
12.1600 181.0000 1.0000
12.1800 160.0000 1.0000
12.2000 158.0000 1.0000
12.2200 171.0000 1.0000
12.2400 206.0000 1.0000
12.2600 185.0000 1.0000
12.2800 190.0000 1.0000
12.3000 211.0000 1.0000
12.3200 203.0000 1.0000
12.3400 206.0000 1.0000
12.3600 225.0000 1.0000
12.3800 199.0000 1.0000
12.4000 181.0000 1.0000
12.4200 167.0000 1.0000
12.4400 183.0000 1.0000
12.4600 191.0000 1.0000
12.4800 177.0000 1.0000
12.5000 162.0000 1.0000
12.5200 151.0000 1.0000
12.5400 140.0000 1.0000
12.5600 164.0000 1.0000
12.5800 164.0000 1.0000
12.6000 154.0000 1.0000
12.6200 150.0000 1.0000
12.6400 129.0000 1.0000
12.6600 158.0000 1.0000
12.6800 155.0000 1.0000
12.7000 147.0000 1.0000
12.7200 147.0000 1.0000
12.7400 148.0000 1.0000
12.7600 144.0000 1.0000
12.7800 151.0000 1.0000
12.8000 149.0000 1.0000
12.8200 115.0000 1.0000
12.8400 159.0000 1.0000
12.8600 160.0000 1.0000
12.8800 190.0000 1.0000
12.9000 202.0000 1.0000
12.9200 200.0000 1.0000
12.9400 191.0000 1.0000
12.9600 198.0000 1.0000
12.9800 195.0000 1.0000
13.0000 183.0000 1.0000
13.0200 161.0000 1.0000
13.0400 158.0000 1.0000
13.0600 150.0000 1.0000
13.0800 140.0000 1.0000
13.1000 160.0000 1.0000
13.1200 148.0000 1.0000
13.1400 144.0000 1.0000
13.1600 151.0000 1.0000
13.1800 149.0000 1.0000
13.2000 173.0000 1.0000
13.2200 185.0000 1.0000
13.2400 155.0000 1.0000
13.2600 161.0000 1.0000
13.2800 173.0000 1.0000
13.3000 184.0000 1.0000
13.3200 178.0000 1.0000
13.3400 201.0000 1.0000
13.3600 210.0000 1.0000
13.3800 231.0000 1.0000
13.4000 257.0000 1.0000
13.4200 273.0000 1.0000
13.4400 283.0000 1.0000
13.4600 300.0000 1.0000
13.4800 326.0000 1.0000
13.5000 328.0000 1.0000
13.5200 321.0000 1.0000
13.5400 318.0000 1.0000
13.5600 302.0000 1.0000
13.5800 298.0000 1.0000
13.6000 278.0000 1.0000
13.6200 320.0000 1.0000
13.6400 379.0000 1.0000
13.6600 401.0000 1.0000
13.6800 432.0000 1.0000
13.7000 488.0000 1.0000
13.7200 525.0000 1.0000
13.7400 490.0000 1.0000
13.7600 397.0000 1.0000
13.7800 325.0000 1.0000
13.8000 287.0000 1.0000
13.8200 245.0000 1.0000
13.8400 241.0000 1.0000
13.8600 212.0000 1.0000
13.8800 189.0000 1.0000
13.9000 160.0000 1.0000
13.9200 157.0000 1.0000
13.9400 156.0000 1.0000
13.9600 161.0000 1.0000
13.9800 157.0000 1.0000
14.0000 132.0000 1.0000
14.0200 124.0000 1.0000
14.0400 137.0000 1.0000
14.0600 150.0000 1.0000
14.0800 138.0000 1.0000
14.1000 130.0000 1.0000
14.1200 123.0000 1.0000
14.1400 135.0000 1.0000
14.1600 130.0000 1.0000
14.1800 136.0000 1.0000
14.2000 142.0000 1.0000
14.2200 140.0000 1.0000
14.2400 133.0000 1.0000
14.2600 121.0000 1.0000
14.2800 131.0000 1.0000
14.3000 137.0000 1.0000
14.3200 136.0000 1.0000
14.3400 137.0000 1.0000
14.3600 139.0000 1.0000
14.3800 139.0000 1.0000
14.4000 130.0000 1.0000
14.4200 122.0000 1.0000
14.4400 121.0000 1.0000
14.4600 123.0000 1.0000
14.4800 136.0000 1.0000
14.5000 137.0000 1.0000
14.5200 122.0000 1.0000
14.5400 121.0000 1.0000
14.5600 136.0000 1.0000
14.5800 145.0000 1.0000
14.6000 146.0000 1.0000
14.6200 154.0000 1.0000
14.6400 161.0000 1.0000
14.6600 161.0000 1.0000
14.6800 162.0000 1.0000
14.7000 187.0000 1.0000
14.7200 209.0000 1.0000
14.7400 221.0000 1.0000
14.7600 217.0000 1.0000
14.7800 198.0000 1.0000
14.8000 195.0000 1.0000
14.8200 206.0000 1.0000
14.8400 211.0000 1.0000
14.8600 210.0000 1.0000
14.8800 209.0000 1.0000
14.9000 202.0000 1.0000
14.9200 187.0000 1.0000
14.9400 178.0000 1.0000
14.9600 174.0000 1.0000
14.9800 160.0000 1.0000
15.0000 142.0000 1.0000
15.0200 146.0000 1.0000
15.0400 148.0000 1.0000
15.0600 145.0000 1.0000
15.0800 145.0000 1.0000
15.1000 143.0000 1.0000
15.1200 144.0000 1.0000
15.1400 146.0000 1.0000
15.1600 144.0000 1.0000
15.1800 126.0000 1.0000
15.2000 113.0000 1.0000
15.2200 119.0000 1.0000
15.2400 123.0000 1.0000
15.2600 123.0000 1.0000
15.2800 134.0000 1.0000
15.3000 131.0000 1.0000
15.3200 127.0000 1.0000
15.3400 131.0000 1.0000
15.3600 128.0000 1.0000
15.3800 130.0000 1.0000
15.4000 129.0000 1.0000
15.4200 140.0000 1.0000
15.4400 126.0000 1.0000
15.4600 121.0000 1.0000
15.4800 138.0000 1.0000
15.5000 138.0000 1.0000
15.5200 151.0000 1.0000
15.5400 157.0000 1.0000
15.5600 153.0000 1.0000
15.5800 151.0000 1.0000
15.6000 151.0000 1.0000
15.6200 158.0000 1.0000
15.6400 172.0000 1.0000
15.6600 177.0000 1.0000
15.6800 161.0000 1.0000
15.7000 153.0000 1.0000
15.7200 158.0000 1.0000
15.7400 155.0000 1.0000
15.7600 140.0000 1.0000
15.7800 133.0000 1.0000
15.8000 130.0000 1.0000
15.8200 123.0000 1.0000
15.8400 124.0000 1.0000
15.8600 124.0000 1.0000
15.8800 113.0000 1.0000
15.9000 115.0000 1.0000
15.9200 107.0000 1.0000
15.9400 116.0000 1.0000
15.9600 120.0000 1.0000
15.9800 105.0000 1.0000
16.0000 104.0000 1.0000
16.0200 106.0000 1.0000
16.0400 104.0000 1.0000
16.0600 101.0000 1.0000
16.0800 105.0000 1.0000
16.1000 112.0000 1.0000
16.1200 120.0000 1.0000
16.1400 123.0000 1.0000
16.1600 125.0000 1.0000
16.1800 130.0000 1.0000
16.2000 128.0000 1.0000
16.2200 119.0000 1.0000
16.2400 113.0000 1.0000
16.2600 126.0000 1.0000
16.2800 120.0000 1.0000
16.3000 107.0000 1.0000
16.3200 110.0000 1.0000
16.3400 108.0000 1.0000
16.3600 111.0000 1.0000
16.3800 124.0000 1.0000
16.4000 129.0000 1.0000
16.4200 114.0000 1.0000
16.4400 113.0000 1.0000
16.4600 110.0000 1.0000
16.4800 110.0000 1.0000
16.5000 125.0000 1.0000
16.5200 116.0000 1.0000
16.5400 127.0000 1.0000
16.5600 117.0000 1.0000
16.5800 110.0000 1.0000
16.6000 106.0000 1.0000
16.6200 118.0000 1.0000
16.6400 108.0000 1.0000
16.6600 102.0000 1.0000
16.6800 97.0000 1.0000
16.7000 98.0000 1.0000
16.7200 106.0000 1.0000
16.7400 120.0000 1.0000
16.7600 123.0000 1.0000
16.7800 113.0000 1.0000
16.8000 118.0000 1.0000
16.8200 117.0000 1.0000
16.8400 106.0000 1.0000
16.8600 101.0000 1.0000
16.8800 99.0000 1.0000
16.9000 109.0000 1.0000
16.9200 113.0000 1.0000
16.9400 106.0000 1.0000
16.9600 93.0000 1.0000
16.9800 100.0000 1.0000
17.0000 110.0000 1.0000
17.0200 106.0000 1.0000
17.0400 114.0000 1.0000
17.0600 119.0000 1.0000
17.0800 117.0000 1.0000
17.1000 119.0000 1.0000
17.1200 107.0000 1.0000
17.1400 102.0000 1.0000
17.1600 114.0000 1.0000
17.1800 113.0000 1.0000
17.2000 102.0000 1.0000
17.2200 120.0000 1.0000
17.2400 120.0000 1.0000
17.2600 104.0000 1.0000
17.2800 121.0000 1.0000
17.3000 120.0000 1.0000
17.3200 116.0000 1.0000
17.3400 106.0000 1.0000
17.3600 114.0000 1.0000
17.3800 120.0000 1.0000
17.4000 116.0000 1.0000
17.4200 128.0000 1.0000
17.4400 134.0000 1.0000
17.4600 119.0000 1.0000
17.4800 137.0000 1.0000
17.5000 137.0000 1.0000
17.5200 147.0000 1.0000
17.5400 146.0000 1.0000
17.5600 125.0000 1.0000
17.5800 119.0000 1.0000
17.6000 140.0000 1.0000
17.6200 111.0000 1.0000
17.6400 129.0000 1.0000
17.6600 144.0000 1.0000
17.6800 123.0000 1.0000
17.7000 126.0000 1.0000
17.7200 115.0000 1.0000
17.7400 110.0000 1.0000
17.7600 125.0000 1.0000
17.7800 111.0000 1.0000
17.8000 109.0000 1.0000
17.8200 120.0000 1.0000
17.8400 124.0000 1.0000
17.8600 124.0000 1.0000
17.8800 131.0000 1.0000
17.9000 121.0000 1.0000
17.9200 119.0000 1.0000
17.9400 114.0000 1.0000
17.9600 118.0000 1.0000
17.9800 113.0000 1.0000
18.0000 113.0000 1.0000
18.0200 122.0000 1.0000
18.0400 126.0000 1.0000
18.0600 129.0000 1.0000
18.0800 113.0000 1.0000
18.1000 127.0000 1.0000
18.1200 128.0000 1.0000
18.1400 113.0000 1.0000
18.1600 123.0000 1.0000
18.1800 123.0000 1.0000
18.2000 126.0000 1.0000
18.2200 113.0000 1.0000
18.2400 108.0000 1.0000
18.2600 117.0000 1.0000
18.2800 115.0000 1.0000
18.3000 114.0000 1.0000
18.3200 104.0000 1.0000
18.3400 91.0000 1.0000
18.3600 107.0000 1.0000
18.3800 109.0000 1.0000
18.4000 127.0000 1.0000
18.4200 119.0000 1.0000
18.4400 113.0000 1.0000
18.4600 122.0000 1.0000
18.4800 109.0000 1.0000
18.5000 106.0000 1.0000
18.5200 129.0000 1.0000
18.5400 104.0000 1.0000
18.5600 130.0000 1.0000
18.5800 124.0000 1.0000
18.6000 111.0000 1.0000
18.6200 111.0000 1.0000
18.6400 105.0000 1.0000
18.6600 136.0000 1.0000
18.6800 144.0000 1.0000
18.7000 135.0000 1.0000
18.7200 132.0000 1.0000
18.7400 129.0000 1.0000
18.7600 131.0000 1.0000
18.7800 130.0000 1.0000
18.8000 131.0000 1.0000
18.8200 146.0000 1.0000
18.8400 139.0000 1.0000
18.8600 163.0000 1.0000
18.8800 137.0000 1.0000
18.9000 127.0000 1.0000
18.9200 131.0000 1.0000
18.9400 149.0000 1.0000
18.9600 130.0000 1.0000
18.9800 145.0000 1.0000
19.0000 144.0000 1.0000
19.0200 146.0000 1.0000
19.0400 156.0000 1.0000
19.0600 135.0000 1.0000
19.0800 167.0000 1.0000
19.1000 170.0000 1.0000
19.1200 169.0000 1.0000
19.1400 184.0000 1.0000
19.1600 145.0000 1.0000
19.1800 153.0000 1.0000
19.2000 155.0000 1.0000
19.2200 139.0000 1.0000
19.2400 144.0000 1.0000
19.2600 151.0000 1.0000
19.2800 147.0000 1.0000
19.3000 150.0000 1.0000
19.3200 143.0000 1.0000
19.3400 141.0000 1.0000
19.3600 141.0000 1.0000
19.3800 135.0000 1.0000
19.4000 138.0000 1.0000
19.4200 146.0000 1.0000
19.4400 151.0000 1.0000
19.4600 157.0000 1.0000
19.4800 159.0000 1.0000
19.5000 165.0000 1.0000
19.5200 167.0000 1.0000
19.5400 151.0000 1.0000
19.5600 158.0000 1.0000
19.5800 176.0000 1.0000
19.6000 178.0000 1.0000
19.6200 182.0000 1.0000
19.6400 176.0000 1.0000
19.6600 175.0000 1.0000
19.6800 148.0000 1.0000
19.7000 179.0000 1.0000
19.7200 173.0000 1.0000
19.7400 174.0000 1.0000
19.7600 171.0000 1.0000
19.7800 161.0000 1.0000
19.8000 167.0000 1.0000
19.8200 143.0000 1.0000
19.8400 156.0000 1.0000
19.8600 158.0000 1.0000
19.8800 144.0000 1.0000
19.9000 132.0000 1.0000
19.9200 166.0000 1.0000
19.9400 164.0000 1.0000
19.9600 147.0000 1.0000
19.9800 153.0000 1.0000
20.0000 145.0000 1.0000
20.0200 139.0000 1.0000
20.0400 143.0000 1.0000
20.0600 161.0000 1.0000
20.0800 147.0000 1.0000
20.1000 177.0000 1.0000
20.1200 156.0000 1.0000
20.1400 150.0000 1.0000
20.1600 131.0000 1.0000
20.1800 177.0000 1.0000
20.2000 169.0000 1.0000
20.2200 183.0000 1.0000
20.2400 182.0000 1.0000
20.2600 203.0000 1.0000
20.2800 230.0000 1.0000
20.3000 210.0000 1.0000
20.3200 236.0000 1.0000
20.3400 223.0000 1.0000
20.3600 258.0000 1.0000
20.3800 241.0000 1.0000
20.4000 309.0000 1.0000
20.4200 303.0000 1.0000
20.4400 339.0000 1.0000
20.4600 380.0000 1.0000
20.4800 417.0000 1.0000
20.5000 472.0000 1.0000
20.5200 538.0000 1.0000
20.5400 609.0000 1.0000
20.5600 707.0000 1.0000
20.5800 846.0000 1.0000
20.6000 1071.0000 1.0000
20.6200 1328.0000 1.0000
20.6400 1663.0000 1.0000
20.6600 2111.0000 1.0000
20.6800 2583.0000 1.0000
20.7000 2855.0000 1.0000
20.7200 2829.0000 1.0000
20.7400 2686.0000 1.0000
20.7600 2558.0000 1.0000
20.7800 2068.0000 1.0000
20.8000 1482.0000 1.0000
20.8200 1198.0000 1.0000
20.8400 926.0000 1.0000
20.8600 837.0000 1.0000
20.8800 716.0000 1.0000
20.9000 613.0000 1.0000
20.9200 531.0000 1.0000
20.9400 477.0000 1.0000
20.9600 388.0000 1.0000
20.9800 326.0000 1.0000
21.0000 325.0000 1.0000
21.0200 258.0000 1.0000
21.0400 251.0000 1.0000
21.0600 231.0000 1.0000
21.0800 212.0000 1.0000
21.1000 225.0000 1.0000
21.1200 192.0000 1.0000
21.1400 199.0000 1.0000
21.1600 178.0000 1.0000
21.1800 202.0000 1.0000
21.2000 175.0000 1.0000
21.2200 183.0000 1.0000
21.2400 159.0000 1.0000
21.2600 165.0000 1.0000
21.2800 166.0000 1.0000
21.3000 175.0000 1.0000
21.3200 192.0000 1.0000
21.3400 167.0000 1.0000
21.3600 179.0000 1.0000
21.3800 168.0000 1.0000
21.4000 166.0000 1.0000
21.4200 176.0000 1.0000
21.4400 201.0000 1.0000
21.4600 168.0000 1.0000
21.4800 183.0000 1.0000
21.5000 196.0000 1.0000
21.5200 204.0000 1.0000
21.5400 233.0000 1.0000
21.5600 235.0000 1.0000
21.5800 220.0000 1.0000
21.6000 250.0000 1.0000
21.6200 298.0000 1.0000
21.6400 278.0000 1.0000
21.6600 322.0000 1.0000
21.6800 370.0000 1.0000
21.7000 370.0000 1.0000
21.7200 446.0000 1.0000
21.7400 591.0000 1.0000
21.7600 640.0000 1.0000
21.7800 741.0000 1.0000
21.8000 945.0000 1.0000
21.8200 1089.0000 1.0000
21.8400 1232.0000 1.0000
21.8600 1303.0000 1.0000
21.8800 1372.0000 1.0000
21.9000 1298.0000 1.0000
21.9200 1087.0000 1.0000
21.9400 891.0000 1.0000
21.9600 734.0000 1.0000
21.9800 539.0000 1.0000
22.0000 411.0000 1.0000
22.0200 364.0000 1.0000
22.0400 320.0000 1.0000
22.0600 266.0000 1.0000
22.0800 299.0000 1.0000
22.1000 309.0000 1.0000
22.1200 312.0000 1.0000
22.1400 359.0000 1.0000
22.1600 305.0000 1.0000
22.1800 312.0000 1.0000
22.2000 285.0000 1.0000
22.2200 248.0000 1.0000
22.2400 220.0000 1.0000
22.2600 230.0000 1.0000
22.2800 197.0000 1.0000
22.3000 185.0000 1.0000
22.3200 219.0000 1.0000
22.3400 170.0000 1.0000
22.3600 187.0000 1.0000
22.3800 156.0000 1.0000
22.4000 154.0000 1.0000
22.4200 165.0000 1.0000
22.4400 179.0000 1.0000
22.4600 217.0000 1.0000
22.4800 220.0000 1.0000
22.5000 222.0000 1.0000
22.5200 225.0000 1.0000
22.5400 221.0000 1.0000
22.5600 209.0000 1.0000
22.5800 222.0000 1.0000
22.6000 215.0000 1.0000
22.6200 196.0000 1.0000
22.6400 213.0000 1.0000
22.6600 211.0000 1.0000
22.6800 225.0000 1.0000
22.7000 241.0000 1.0000
22.7200 232.0000 1.0000
22.7400 270.0000 1.0000
22.7600 297.0000 1.0000
22.7800 352.0000 1.0000
22.8000 384.0000 1.0000
22.8200 403.0000 1.0000
22.8400 432.0000 1.0000
22.8600 473.0000 1.0000
22.8800 483.0000 1.0000
22.9000 436.0000 1.0000
22.9200 437.0000 1.0000
22.9400 425.0000 1.0000
22.9600 425.0000 1.0000
22.9800 434.0000 1.0000
23.0000 423.0000 1.0000
23.0200 439.0000 1.0000
23.0400 457.0000 1.0000
23.0600 458.0000 1.0000
23.0800 407.0000 1.0000
23.1000 395.0000 1.0000
23.1200 356.0000 1.0000
23.1400 316.0000 1.0000
23.1600 287.0000 1.0000
23.1800 276.0000 1.0000
23.2000 266.0000 1.0000
23.2200 259.0000 1.0000
23.2400 275.0000 1.0000
23.2600 281.0000 1.0000
23.2800 312.0000 1.0000
23.3000 379.0000 1.0000
23.3200 403.0000 1.0000
23.3400 476.0000 1.0000
23.3600 543.0000 1.0000
23.3800 566.0000 1.0000
23.4000 627.0000 1.0000
23.4200 689.0000 1.0000
23.4400 700.0000 1.0000
23.4600 755.0000 1.0000
23.4800 728.0000 1.0000
23.5000 690.0000 1.0000
23.5200 586.0000 1.0000
23.5400 501.0000 1.0000
23.5600 406.0000 1.0000
23.5800 351.0000 1.0000
23.6000 322.0000 1.0000
23.6200 302.0000 1.0000
23.6400 307.0000 1.0000
23.6600 298.0000 1.0000
23.6800 305.0000 1.0000
23.7000 329.0000 1.0000
23.7200 346.0000 1.0000
23.7400 416.0000 1.0000
23.7600 463.0000 1.0000
23.7800 517.0000 1.0000
23.8000 578.0000 1.0000
23.8200 624.0000 1.0000
23.8400 673.0000 1.0000
23.8600 766.0000 1.0000
23.8800 786.0000 1.0000
23.9000 777.0000 1.0000
23.9200 749.0000 1.0000
23.9400 756.0000 1.0000
23.9600 743.0000 1.0000
23.9800 731.0000 1.0000
24.0000 750.0000 1.0000
24.0200 784.0000 1.0000
24.0400 746.0000 1.0000
24.0600 789.0000 1.0000
24.0800 855.0000 1.0000
24.1000 876.0000 1.0000
24.1200 893.0000 1.0000
24.1400 884.0000 1.0000
24.1600 875.0000 1.0000
24.1800 798.0000 1.0000
24.2000 736.0000 1.0000
24.2200 629.0000 1.0000
24.2400 525.0000 1.0000
24.2600 448.0000 1.0000
24.2800 389.0000 1.0000
24.3000 339.0000 1.0000
24.3200 279.0000 1.0000
24.3400 255.0000 1.0000
24.3600 266.0000 1.0000
24.3800 238.0000 1.0000
24.4000 237.0000 1.0000
24.4200 238.0000 1.0000
24.4400 229.0000 1.0000
24.4600 227.0000 1.0000
24.4800 245.0000 1.0000
24.5000 259.0000 1.0000
24.5200 241.0000 1.0000
24.5400 244.0000 1.0000
24.5600 242.0000 1.0000
24.5800 243.0000 1.0000
24.6000 245.0000 1.0000
24.6200 213.0000 1.0000
24.6400 198.0000 1.0000
24.6600 190.0000 1.0000
24.6800 193.0000 1.0000
24.7000 192.0000 1.0000
24.7200 189.0000 1.0000
24.7400 194.0000 1.0000
24.7600 185.0000 1.0000
24.7800 201.0000 1.0000
24.8000 198.0000 1.0000
24.8200 197.0000 1.0000
24.8400 201.0000 1.0000
24.8600 201.0000 1.0000
24.8800 197.0000 1.0000
24.9000 192.0000 1.0000
24.9200 194.0000 1.0000
24.9400 205.0000 1.0000
24.9600 212.0000 1.0000
24.9800 215.0000 1.0000
25.0000 218.0000 1.0000
25.0200 211.0000 1.0000
25.0400 209.0000 1.0000
25.0600 225.0000 1.0000
25.0800 238.0000 1.0000
25.1000 241.0000 1.0000
25.1200 271.0000 1.0000
25.1400 296.0000 1.0000
25.1600 335.0000 1.0000
25.1800 378.0000 1.0000
25.2000 417.0000 1.0000
25.2200 450.0000 1.0000
25.2400 527.0000 1.0000
25.2600 607.0000 1.0000
25.2800 741.0000 1.0000
25.3000 937.0000 1.0000
25.3200 1097.0000 1.0000
25.3400 1201.0000 1.0000
25.3600 1379.0000 1.0000
25.3800 1626.0000 1.0000
25.4000 1796.0000 1.0000
25.4200 1843.0000 1.0000
25.4400 1783.0000 1.0000
25.4600 1686.0000 1.0000
25.4800 1508.0000 1.0000
25.5000 1255.0000 1.0000
25.5200 1059.0000 1.0000
25.5400 866.0000 1.0000
25.5600 710.0000 1.0000
25.5800 605.0000 1.0000
25.6000 496.0000 1.0000
25.6200 441.0000 1.0000
25.6400 385.0000 1.0000
25.6600 350.0000 1.0000
25.6800 324.0000 1.0000
25.7000 317.0000 1.0000
25.7200 319.0000 1.0000
25.7400 299.0000 1.0000
25.7600 288.0000 1.0000
25.7800 299.0000 1.0000
25.8000 319.0000 1.0000
25.8200 292.0000 1.0000
25.8400 292.0000 1.0000
25.8600 314.0000 1.0000
25.8800 359.0000 1.0000
25.9000 374.0000 1.0000
25.9200 368.0000 1.0000
25.9400 372.0000 1.0000
25.9600 370.0000 1.0000
25.9800 396.0000 1.0000
26.0000 436.0000 1.0000
26.0200 500.0000 1.0000
26.0400 544.0000 1.0000
26.0600 561.0000 1.0000
26.0800 623.0000 1.0000
26.1000 706.0000 1.0000
26.1200 758.0000 1.0000
26.1400 859.0000 1.0000
26.1600 994.0000 1.0000
26.1800 1089.0000 1.0000
26.2000 1260.0000 1.0000
26.2200 1483.0000 1.0000
26.2400 1716.0000 1.0000
26.2600 2024.0000 1.0000
26.2800 2259.0000 1.0000
26.3000 2479.0000 1.0000
26.3200 2848.0000 1.0000
26.3400 3276.0000 1.0000
26.3600 3897.0000 1.0000
26.3800 4885.0000 1.0000
26.4000 6163.0000 1.0000
26.4200 7817.0000 1.0000
26.4400 9789.0000 1.0000
26.4600 11689.0000 1.0000
26.4800 13064.0000 1.0000
26.5000 13667.0000 1.0000
26.5200 12984.0000 1.0000
26.5400 11352.0000 1.0000
26.5600 9278.0000 1.0000
26.5800 7063.0000 1.0000
26.6000 5052.0000 1.0000
26.6200 3476.0000 1.0000
26.6400 2327.0000 1.0000
26.6600 1591.0000 1.0000
26.6800 1203.0000 1.0000
26.7000 960.0000 1.0000
26.7200 871.0000 1.0000
26.7400 841.0000 1.0000
26.7600 792.0000 1.0000
26.7800 759.0000 1.0000
26.8000 741.0000 1.0000
26.8200 758.0000 1.0000
26.8400 788.0000 1.0000
26.8600 824.0000 1.0000
26.8800 850.0000 1.0000
26.9000 868.0000 1.0000
26.9200 864.0000 1.0000
26.9400 846.0000 1.0000
26.9600 801.0000 1.0000
26.9800 705.0000 1.0000
27.0000 648.0000 1.0000
27.0200 616.0000 1.0000
27.0400 545.0000 1.0000
27.0600 511.0000 1.0000
27.0800 518.0000 1.0000
27.1000 530.0000 1.0000
27.1200 581.0000 1.0000
27.1400 658.0000 1.0000
27.1600 728.0000 1.0000
27.1800 829.0000 1.0000
27.2000 930.0000 1.0000
27.2200 1078.0000 1.0000
27.2400 1284.0000 1.0000
27.2600 1407.0000 1.0000
27.2800 1518.0000 1.0000
27.3000 1621.0000 1.0000
27.3200 1674.0000 1.0000
27.3400 1666.0000 1.0000
27.3600 1576.0000 1.0000
27.3800 1401.0000 1.0000
27.4000 1250.0000 1.0000
27.4200 1146.0000 1.0000
27.4400 1048.0000 1.0000
27.4600 958.0000 1.0000
27.4800 911.0000 1.0000
27.5000 1007.0000 1.0000
27.5200 1096.0000 1.0000
27.5400 1187.0000 1.0000
27.5600 1336.0000 1.0000
27.5800 1508.0000 1.0000
27.6000 1703.0000 1.0000
27.6200 1814.0000 1.0000
27.6400 1881.0000 1.0000
27.6600 2015.0000 1.0000
27.6800 2161.0000 1.0000
27.7000 2327.0000 1.0000
27.7200 2470.0000 1.0000
27.7400 2620.0000 1.0000
27.7600 2871.0000 1.0000
27.7800 3073.0000 1.0000
27.8000 3260.0000 1.0000
27.8200 3332.0000 1.0000
27.8400 3127.0000 1.0000
27.8600 2864.0000 1.0000
27.8800 2618.0000 1.0000
27.9000 2279.0000 1.0000
27.9200 1892.0000 1.0000
27.9400 1520.0000 1.0000
27.9600 1255.0000 1.0000
27.9800 1104.0000 1.0000
28.0000 1004.0000 1.0000
28.0200 924.0000 1.0000
28.0400 875.0000 1.0000
28.0600 877.0000 1.0000
28.0800 881.0000 1.0000
28.1000 851.0000 1.0000
28.1200 812.0000 1.0000
28.1400 805.0000 1.0000
28.1600 737.0000 1.0000
28.1800 677.0000 1.0000
28.2000 636.0000 1.0000
28.2200 554.0000 1.0000
28.2400 468.0000 1.0000
28.2600 392.0000 1.0000
28.2800 341.0000 1.0000
28.3000 289.0000 1.0000
28.3200 260.0000 1.0000
28.3400 257.0000 1.0000
28.3600 217.0000 1.0000
28.3800 202.0000 1.0000
28.4000 213.0000 1.0000
28.4200 192.0000 1.0000
28.4400 176.0000 1.0000
28.4600 175.0000 1.0000
28.4800 174.0000 1.0000
28.5000 180.0000 1.0000
28.5200 179.0000 1.0000
28.5400 182.0000 1.0000
28.5600 160.0000 1.0000
28.5800 146.0000 1.0000
28.6000 157.0000 1.0000
28.6200 158.0000 1.0000
28.6400 143.0000 1.0000
28.6600 148.0000 1.0000
28.6800 161.0000 1.0000
28.7000 138.0000 1.0000
28.7200 133.0000 1.0000
28.7400 147.0000 1.0000
28.7600 166.0000 1.0000
28.7800 166.0000 1.0000
28.8000 152.0000 1.0000
28.8200 151.0000 1.0000
28.8400 155.0000 1.0000
28.8600 155.0000 1.0000
28.8800 148.0000 1.0000
28.9000 138.0000 1.0000
28.9200 158.0000 1.0000
28.9400 163.0000 1.0000
28.9600 156.0000 1.0000
28.9800 168.0000 1.0000
29.0000 174.0000 1.0000
29.0200 174.0000 1.0000
29.0400 164.0000 1.0000
29.0600 161.0000 1.0000
29.0800 179.0000 1.0000
29.1000 184.0000 1.0000
29.1200 196.0000 1.0000
29.1400 205.0000 1.0000
29.1600 219.0000 1.0000
29.1800 231.0000 1.0000
29.2000 261.0000 1.0000
29.2200 281.0000 1.0000
29.2400 299.0000 1.0000
29.2600 307.0000 1.0000
29.2800 324.0000 1.0000
29.3000 338.0000 1.0000
29.3200 317.0000 1.0000
29.3400 321.0000 1.0000
29.3600 297.0000 1.0000
29.3800 260.0000 1.0000
29.4000 221.0000 1.0000
29.4200 213.0000 1.0000
29.4400 213.0000 1.0000
29.4600 202.0000 1.0000
29.4800 223.0000 1.0000
29.5000 215.0000 1.0000
29.5200 200.0000 1.0000
29.5400 206.0000 1.0000
29.5600 224.0000 1.0000
29.5800 256.0000 1.0000
29.6000 285.0000 1.0000
29.6200 283.0000 1.0000
29.6400 312.0000 1.0000
29.6600 341.0000 1.0000
29.6800 375.0000 1.0000
29.7000 366.0000 1.0000
29.7200 392.0000 1.0000
29.7400 410.0000 1.0000
29.7600 405.0000 1.0000
29.7800 410.0000 1.0000
29.8000 410.0000 1.0000
29.8200 424.0000 1.0000
29.8400 437.0000 1.0000
29.8600 409.0000 1.0000
29.8800 415.0000 1.0000
29.9000 411.0000 1.0000
29.9200 422.0000 1.0000
29.9400 434.0000 1.0000
29.9600 435.0000 1.0000
29.9800 445.0000 1.0000
30.0000 452.0000 1.0000
30.0200 494.0000 1.0000
30.0400 527.0000 1.0000
30.0600 533.0000 1.0000
30.0800 530.0000 1.0000
30.1000 550.0000 1.0000
30.1200 581.0000 1.0000
30.1400 578.0000 1.0000
30.1600 560.0000 1.0000
30.1800 602.0000 1.0000
30.2000 607.0000 1.0000
30.2200 637.0000 1.0000
30.2400 657.0000 1.0000
30.2600 691.0000 1.0000
30.2800 703.0000 1.0000
30.3000 740.0000 1.0000
30.3200 718.0000 1.0000
30.3400 676.0000 1.0000
30.3600 597.0000 1.0000
30.3800 549.0000 1.0000
30.4000 482.0000 1.0000
30.4200 426.0000 1.0000
30.4400 402.0000 1.0000
30.4600 363.0000 1.0000
30.4800 322.0000 1.0000
30.5000 309.0000 1.0000
30.5200 352.0000 1.0000
30.5400 380.0000 1.0000
30.5600 371.0000 1.0000
30.5800 375.0000 1.0000
30.6000 400.0000 1.0000
30.6200 372.0000 1.0000
30.6400 336.0000 1.0000
30.6600 317.0000 1.0000
30.6800 350.0000 1.0000
30.7000 345.0000 1.0000
30.7200 318.0000 1.0000
30.7400 308.0000 1.0000
30.7600 317.0000 1.0000
30.7800 283.0000 1.0000
30.8000 248.0000 1.0000
30.8200 254.0000 1.0000
30.8400 259.0000 1.0000
30.8600 216.0000 1.0000
30.8800 190.0000 1.0000
30.9000 170.0000 1.0000
30.9200 168.0000 1.0000
30.9400 149.0000 1.0000
30.9600 171.0000 1.0000
30.9800 177.0000 1.0000
31.0000 183.0000 1.0000
31.0200 209.0000 1.0000
31.0400 219.0000 1.0000
31.0600 214.0000 1.0000
31.0800 226.0000 1.0000
31.1000 252.0000 1.0000
31.1200 273.0000 1.0000
31.1400 278.0000 1.0000
31.1600 300.0000 1.0000
31.1800 315.0000 1.0000
31.2000 327.0000 1.0000
31.2200 338.0000 1.0000
31.2400 305.0000 1.0000
31.2600 315.0000 1.0000
31.2800 297.0000 1.0000
31.3000 282.0000 1.0000
31.3200 230.0000 1.0000
31.3400 223.0000 1.0000
31.3600 216.0000 1.0000
31.3800 213.0000 1.0000
31.4000 216.0000 1.0000
31.4200 195.0000 1.0000
31.4400 186.0000 1.0000
31.4600 180.0000 1.0000
31.4800 173.0000 1.0000
31.5000 160.0000 1.0000
31.5200 170.0000 1.0000
31.5400 147.0000 1.0000
31.5600 147.0000 1.0000
31.5800 156.0000 1.0000
31.6000 125.0000 1.0000
31.6200 130.0000 1.0000
31.6400 139.0000 1.0000
31.6600 129.0000 1.0000
31.6800 133.0000 1.0000
31.7000 126.0000 1.0000
31.7200 126.0000 1.0000
31.7400 129.0000 1.0000
31.7600 125.0000 1.0000
31.7800 136.0000 1.0000
31.8000 146.0000 1.0000
31.8200 145.0000 1.0000
31.8400 136.0000 1.0000
31.8600 148.0000 1.0000
31.8800 165.0000 1.0000
31.9000 149.0000 1.0000
31.9200 161.0000 1.0000
31.9400 163.0000 1.0000
31.9600 147.0000 1.0000
31.9800 168.0000 1.0000
32.0000 204.0000 1.0000
32.0200 180.0000 1.0000
32.0400 192.0000 1.0000
32.0600 177.0000 1.0000
32.0800 156.0000 1.0000
32.1000 128.0000 1.0000
32.1200 140.0000 1.0000
32.1400 129.0000 1.0000
32.1600 149.0000 1.0000
32.1800 146.0000 1.0000
32.2000 156.0000 1.0000
32.2200 152.0000 1.0000
32.2400 168.0000 1.0000
32.2600 179.0000 1.0000
32.2800 161.0000 1.0000
32.3000 176.0000 1.0000
32.3200 171.0000 1.0000
32.3400 183.0000 1.0000
32.3600 188.0000 1.0000
32.3800 187.0000 1.0000
32.4000 153.0000 1.0000
32.4200 142.0000 1.0000
32.4400 131.0000 1.0000
32.4600 142.0000 1.0000
32.4800 141.0000 1.0000
32.5000 122.0000 1.0000
32.5200 123.0000 1.0000
32.5400 118.0000 1.0000
32.5600 112.0000 1.0000
32.5800 130.0000 1.0000
32.6000 107.0000 1.0000
32.6200 123.0000 1.0000
32.6400 129.0000 1.0000
32.6600 113.0000 1.0000
32.6800 109.0000 1.0000
32.7000 139.0000 1.0000
32.7200 116.0000 1.0000
32.7400 107.0000 1.0000
32.7600 104.0000 1.0000
32.7800 122.0000 1.0000
32.8000 100.0000 1.0000
32.8200 117.0000 1.0000
32.8400 113.0000 1.0000
32.8600 116.0000 1.0000
32.8800 100.0000 1.0000
32.9000 107.0000 1.0000
32.9200 114.0000 1.0000
32.9400 109.0000 1.0000
32.9600 128.0000 1.0000
32.9800 112.0000 1.0000
33.0000 126.0000 1.0000
33.0200 108.0000 1.0000
33.0400 125.0000 1.0000
33.0600 134.0000 1.0000
33.0800 122.0000 1.0000
33.1000 136.0000 1.0000
33.1200 116.0000 1.0000
33.1400 111.0000 1.0000
33.1600 118.0000 1.0000
33.1800 120.0000 1.0000
33.2000 139.0000 1.0000
33.2200 126.0000 1.0000
33.2400 106.0000 1.0000
33.2600 127.0000 1.0000
33.2800 127.0000 1.0000
33.3000 130.0000 1.0000
33.3200 119.0000 1.0000
33.3400 114.0000 1.0000
33.3600 106.0000 1.0000
33.3800 111.0000 1.0000
33.4000 136.0000 1.0000
33.4200 120.0000 1.0000
33.4400 123.0000 1.0000
33.4600 129.0000 1.0000
33.4800 146.0000 1.0000
33.5000 148.0000 1.0000
33.5200 141.0000 1.0000
33.5400 147.0000 1.0000
33.5600 136.0000 1.0000
33.5800 142.0000 1.0000
33.6000 190.0000 1.0000
33.6200 177.0000 1.0000
33.6400 171.0000 1.0000
33.6600 223.0000 1.0000
33.6800 234.0000 1.0000
33.7000 236.0000 1.0000
33.7200 251.0000 1.0000
33.7400 298.0000 1.0000
33.7600 295.0000 1.0000
33.7800 309.0000 1.0000
33.8000 329.0000 1.0000
33.8200 271.0000 1.0000
33.8400 276.0000 1.0000
33.8600 269.0000 1.0000
33.8800 253.0000 1.0000
33.9000 260.0000 1.0000
33.9200 245.0000 1.0000
33.9400 257.0000 1.0000
33.9600 283.0000 1.0000
33.9800 292.0000 1.0000
34.0000 316.0000 1.0000
34.0200 303.0000 1.0000
34.0400 297.0000 1.0000
34.0600 291.0000 1.0000
34.0800 322.0000 1.0000
34.1000 282.0000 1.0000
34.1200 262.0000 1.0000
34.1400 313.0000 1.0000
34.1600 262.0000 1.0000
34.1800 234.0000 1.0000
34.2000 215.0000 1.0000
34.2200 195.0000 1.0000
34.2400 200.0000 1.0000
34.2600 217.0000 1.0000
34.2800 213.0000 1.0000
34.3000 212.0000 1.0000
34.3200 193.0000 1.0000
34.3400 224.0000 1.0000
34.3600 234.0000 1.0000
34.3800 206.0000 1.0000
34.4000 223.0000 1.0000
34.4200 223.0000 1.0000
34.4400 221.0000 1.0000
34.4600 222.0000 1.0000
34.4800 262.0000 1.0000
34.5000 258.0000 1.0000
34.5200 282.0000 1.0000
34.5400 245.0000 1.0000
34.5600 260.0000 1.0000
34.5800 246.0000 1.0000
34.6000 264.0000 1.0000
34.6200 255.0000 1.0000
34.6400 253.0000 1.0000
34.6600 273.0000 1.0000
34.6800 298.0000 1.0000
34.7000 299.0000 1.0000
34.7200 313.0000 1.0000
34.7400 341.0000 1.0000
34.7600 386.0000 1.0000
34.7800 377.0000 1.0000
34.8000 452.0000 1.0000
34.8200 475.0000 1.0000
34.8400 576.0000 1.0000
34.8600 630.0000 1.0000
34.8800 714.0000 1.0000
34.9000 915.0000 1.0000
34.9200 1098.0000 1.0000
34.9400 1375.0000 1.0000
34.9600 1665.0000 1.0000
34.9800 1842.0000 1.0000
35.0000 2076.0000 1.0000
35.0200 2106.0000 1.0000
35.0400 2012.0000 1.0000
35.0600 1927.0000 1.0000
35.0800 1683.0000 1.0000
35.1000 1432.0000 1.0000
35.1200 1226.0000 1.0000
35.1400 1082.0000 1.0000
35.1600 855.0000 1.0000
35.1800 695.0000 1.0000
35.2000 591.0000 1.0000
35.2200 498.0000 1.0000
35.2400 484.0000 1.0000
35.2600 449.0000 1.0000
35.2800 430.0000 1.0000
35.3000 422.0000 1.0000
35.3200 431.0000 1.0000
35.3400 398.0000 1.0000
35.3600 392.0000 1.0000
35.3800 400.0000 1.0000
35.4000 396.0000 1.0000
35.4200 377.0000 1.0000
35.4400 404.0000 1.0000
35.4600 348.0000 1.0000
35.4800 334.0000 1.0000
35.5000 333.0000 1.0000
35.5200 329.0000 1.0000
35.5400 304.0000 1.0000
35.5600 293.0000 1.0000
35.5800 278.0000 1.0000
35.6000 265.0000 1.0000
35.6200 227.0000 1.0000
35.6400 218.0000 1.0000
35.6600 241.0000 1.0000
35.6800 233.0000 1.0000
35.7000 247.0000 1.0000
35.7200 220.0000 1.0000
35.7400 204.0000 1.0000
35.7600 197.0000 1.0000
35.7800 190.0000 1.0000
35.8000 180.0000 1.0000
35.8200 178.0000 1.0000
35.8400 192.0000 1.0000
35.8600 166.0000 1.0000
35.8800 180.0000 1.0000
35.9000 172.0000 1.0000
35.9200 154.0000 1.0000
35.9400 162.0000 1.0000
35.9600 166.0000 1.0000
35.9800 178.0000 1.0000
36.0000 184.0000 1.0000
36.0200 173.0000 1.0000
36.0400 213.0000 1.0000
36.0600 220.0000 1.0000
36.0800 224.0000 1.0000
36.1000 214.0000 1.0000
36.1200 225.0000 1.0000
36.1400 251.0000 1.0000
36.1600 274.0000 1.0000
36.1800 282.0000 1.0000
36.2000 269.0000 1.0000
36.2200 297.0000 1.0000
36.2400 365.0000 1.0000
36.2600 384.0000 1.0000
36.2800 439.0000 1.0000
36.3000 540.0000 1.0000
36.3200 646.0000 1.0000
36.3400 726.0000 1.0000
36.3600 873.0000 1.0000
36.3800 1008.0000 1.0000
36.4000 982.0000 1.0000
36.4200 951.0000 1.0000
36.4400 999.0000 1.0000
36.4600 924.0000 1.0000
36.4800 824.0000 1.0000
36.5000 767.0000 1.0000
36.5200 673.0000 1.0000
36.5400 556.0000 1.0000
36.5600 485.0000 1.0000
36.5800 388.0000 1.0000
36.6000 341.0000 1.0000
36.6200 302.0000 1.0000
36.6400 280.0000 1.0000
36.6600 294.0000 1.0000
36.6800 280.0000 1.0000
36.7000 265.0000 1.0000
36.7200 279.0000 1.0000
36.7400 294.0000 1.0000
36.7600 276.0000 1.0000
36.7800 298.0000 1.0000
36.8000 297.0000 1.0000
36.8200 329.0000 1.0000
36.8400 323.0000 1.0000
36.8600 337.0000 1.0000
36.8800 308.0000 1.0000
36.9000 294.0000 1.0000
36.9200 291.0000 1.0000
36.9400 282.0000 1.0000
36.9600 243.0000 1.0000
36.9800 256.0000 1.0000
37.0000 221.0000 1.0000
37.0200 203.0000 1.0000
37.0400 204.0000 1.0000
37.0600 202.0000 1.0000
37.0800 183.0000 1.0000
37.1000 173.0000 1.0000
37.1200 188.0000 1.0000
37.1400 173.0000 1.0000
37.1600 193.0000 1.0000
37.1800 189.0000 1.0000
37.2000 189.0000 1.0000
37.2200 186.0000 1.0000
37.2400 209.0000 1.0000
37.2600 220.0000 1.0000
37.2800 210.0000 1.0000
37.3000 224.0000 1.0000
37.3200 234.0000 1.0000
37.3400 222.0000 1.0000
37.3600 217.0000 1.0000
37.3800 246.0000 1.0000
37.4000 252.0000 1.0000
37.4200 267.0000 1.0000
37.4400 297.0000 1.0000
37.4600 353.0000 1.0000
37.4800 368.0000 1.0000
37.5000 382.0000 1.0000
37.5200 436.0000 1.0000
37.5400 507.0000 1.0000
37.5600 595.0000 1.0000
37.5800 686.0000 1.0000
37.6000 796.0000 1.0000
37.6200 841.0000 1.0000
37.6400 913.0000 1.0000
37.6600 896.0000 1.0000
37.6800 761.0000 1.0000
37.7000 702.0000 1.0000
37.7200 598.0000 1.0000
37.7400 531.0000 1.0000
37.7600 458.0000 1.0000
37.7800 378.0000 1.0000
37.8000 267.0000 1.0000
37.8200 219.0000 1.0000
37.8400 192.0000 1.0000
37.8600 159.0000 1.0000
37.8800 151.0000 1.0000
37.9000 152.0000 1.0000
37.9200 144.0000 1.0000
37.9400 137.0000 1.0000
37.9600 131.0000 1.0000
37.9800 129.0000 1.0000
38.0000 134.0000 1.0000
38.0200 133.0000 1.0000
38.0400 121.0000 1.0000
38.0600 119.0000 1.0000
38.0800 121.0000 1.0000
38.1000 112.0000 1.0000
38.1200 123.0000 1.0000
38.1400 120.0000 1.0000
38.1600 121.0000 1.0000
38.1800 109.0000 1.0000
38.2000 120.0000 1.0000
38.2200 129.0000 1.0000
38.2400 126.0000 1.0000
38.2600 126.0000 1.0000
38.2800 135.0000 1.0000
38.3000 152.0000 1.0000
38.3200 176.0000 1.0000
38.3400 169.0000 1.0000
38.3600 167.0000 1.0000
38.3800 175.0000 1.0000
38.4000 181.0000 1.0000
38.4200 197.0000 1.0000
38.4400 194.0000 1.0000
38.4600 193.0000 1.0000
38.4800 198.0000 1.0000
38.5000 181.0000 1.0000
38.5200 151.0000 1.0000
38.5400 142.0000 1.0000
38.5600 155.0000 1.0000
38.5800 158.0000 1.0000
38.6000 161.0000 1.0000
38.6200 148.0000 1.0000
38.6400 152.0000 1.0000
38.6600 161.0000 1.0000
38.6800 172.0000 1.0000
38.7000 174.0000 1.0000
38.7200 173.0000 1.0000
38.7400 184.0000 1.0000
38.7600 190.0000 1.0000
38.7800 180.0000 1.0000
38.8000 192.0000 1.0000
38.8200 191.0000 1.0000
38.8400 195.0000 1.0000
38.8600 192.0000 1.0000
38.8800 198.0000 1.0000
38.9000 218.0000 1.0000
38.9200 215.0000 1.0000
38.9400 192.0000 1.0000
38.9600 214.0000 1.0000
38.9800 223.0000 1.0000
39.0000 200.0000 1.0000
39.0200 204.0000 1.0000
39.0400 196.0000 1.0000
39.0600 198.0000 1.0000
39.0800 187.0000 1.0000
39.1000 196.0000 1.0000
39.1200 216.0000 1.0000
39.1400 224.0000 1.0000
39.1600 224.0000 1.0000
39.1800 274.0000 1.0000
39.2000 323.0000 1.0000
39.2200 363.0000 1.0000
39.2400 437.0000 1.0000
39.2600 553.0000 1.0000
39.2800 676.0000 1.0000
39.3000 797.0000 1.0000
39.3200 904.0000 1.0000
39.3400 920.0000 1.0000
39.3600 871.0000 1.0000
39.3800 808.0000 1.0000
39.4000 731.0000 1.0000
39.4200 644.0000 1.0000
39.4400 542.0000 1.0000
39.4600 466.0000 1.0000
39.4800 431.0000 1.0000
39.5000 370.0000 1.0000
39.5200 294.0000 1.0000
39.5400 241.0000 1.0000
39.5600 199.0000 1.0000
39.5800 184.0000 1.0000
39.6000 177.0000 1.0000
39.6200 180.0000 1.0000
39.6400 173.0000 1.0000
39.6600 176.0000 1.0000
39.6800 174.0000 1.0000
39.7000 159.0000 1.0000
39.7200 159.0000 1.0000
39.7400 155.0000 1.0000
39.7600 153.0000 1.0000
39.7800 160.0000 1.0000
39.8000 148.0000 1.0000
39.8200 142.0000 1.0000
39.8400 153.0000 1.0000
39.8600 151.0000 1.0000
39.8800 163.0000 1.0000
39.9000 170.0000 1.0000
39.9200 155.0000 1.0000
39.9400 151.0000 1.0000
39.9600 168.0000 1.0000
39.9800 196.0000 1.0000
40.0000 205.0000 1.0000
40.0200 220.0000 1.0000
40.0400 245.0000 1.0000
40.0600 262.0000 1.0000
40.0800 307.0000 1.0000
40.1000 345.0000 1.0000
40.1200 406.0000 1.0000
40.1400 478.0000 1.0000
40.1600 506.0000 1.0000
40.1800 498.0000 1.0000
40.2000 462.0000 1.0000
40.2200 424.0000 1.0000
40.2400 385.0000 1.0000
40.2600 340.0000 1.0000
40.2800 295.0000 1.0000
40.3000 268.0000 1.0000
40.3200 221.0000 1.0000
40.3400 202.0000 1.0000
40.3600 199.0000 1.0000
40.3800 176.0000 1.0000
40.4000 170.0000 1.0000
40.4200 153.0000 1.0000
40.4400 138.0000 1.0000
40.4600 137.0000 1.0000
40.4800 131.0000 1.0000
40.5000 122.0000 1.0000
40.5200 121.0000 1.0000
40.5400 132.0000 1.0000
40.5600 132.0000 1.0000
40.5800 121.0000 1.0000
40.6000 120.0000 1.0000
40.6200 123.0000 1.0000
40.6400 117.0000 1.0000
40.6600 110.0000 1.0000
40.6800 108.0000 1.0000
40.7000 107.0000 1.0000
40.7200 131.0000 1.0000
40.7400 142.0000 1.0000
40.7600 143.0000 1.0000
40.7800 153.0000 1.0000
40.8000 154.0000 1.0000
40.8200 155.0000 1.0000
40.8400 145.0000 1.0000
40.8600 147.0000 1.0000
40.8800 157.0000 1.0000
40.9000 149.0000 1.0000
40.9200 130.0000 1.0000
40.9400 130.0000 1.0000
40.9600 149.0000 1.0000
40.9800 147.0000 1.0000
41.0000 150.0000 1.0000
41.0200 143.0000 1.0000
41.0400 141.0000 1.0000
41.0600 143.0000 1.0000
41.0800 152.0000 1.0000
41.1000 164.0000 1.0000
41.1200 167.0000 1.0000
41.1400 168.0000 1.0000
41.1600 158.0000 1.0000
41.1800 152.0000 1.0000
41.2000 158.0000 1.0000
41.2200 151.0000 1.0000
41.2400 158.0000 1.0000
41.2600 170.0000 1.0000
41.2800 160.0000 1.0000
41.3000 155.0000 1.0000
41.3200 160.0000 1.0000
41.3400 156.0000 1.0000
41.3600 157.0000 1.0000
41.3800 164.0000 1.0000
41.4000 172.0000 1.0000
41.4200 162.0000 1.0000
41.4400 175.0000 1.0000
41.4600 190.0000 1.0000
41.4800 187.0000 1.0000
41.5000 207.0000 1.0000
41.5200 223.0000 1.0000
41.5400 221.0000 1.0000
41.5600 234.0000 1.0000
41.5800 262.0000 1.0000
41.6000 294.0000 1.0000
41.6200 326.0000 1.0000
41.6400 366.0000 1.0000
41.6600 376.0000 1.0000
41.6800 369.0000 1.0000
41.7000 382.0000 1.0000
41.7200 367.0000 1.0000
41.7400 343.0000 1.0000
41.7600 308.0000 1.0000
41.7800 269.0000 1.0000
41.8000 247.0000 1.0000
41.8200 228.0000 1.0000
41.8400 220.0000 1.0000
41.8600 211.0000 1.0000
41.8800 201.0000 1.0000
41.9000 188.0000 1.0000
41.9200 186.0000 1.0000
41.9400 177.0000 1.0000
41.9600 176.0000 1.0000
41.9800 166.0000 1.0000
42.0000 167.0000 1.0000
42.0200 184.0000 1.0000
42.0400 182.0000 1.0000
42.0600 181.0000 1.0000
42.0800 197.0000 1.0000
42.1000 209.0000 1.0000
42.1200 245.0000 1.0000
42.1400 273.0000 1.0000
42.1600 293.0000 1.0000
42.1800 371.0000 1.0000
42.2000 422.0000 1.0000
42.2200 451.0000 1.0000
42.2400 520.0000 1.0000
42.2600 578.0000 1.0000
42.2800 701.0000 1.0000
42.3000 752.0000 1.0000
42.3200 762.0000 1.0000
42.3400 801.0000 1.0000
42.3600 734.0000 1.0000
42.3800 629.0000 1.0000
42.4000 581.0000 1.0000
42.4200 535.0000 1.0000
42.4400 503.0000 1.0000
42.4600 446.0000 1.0000
42.4800 383.0000 1.0000
42.5000 302.0000 1.0000
42.5200 276.0000 1.0000
42.5400 261.0000 1.0000
42.5600 275.0000 1.0000
42.5800 263.0000 1.0000
42.6000 265.0000 1.0000
42.6200 259.0000 1.0000
42.6400 266.0000 1.0000
42.6600 268.0000 1.0000
42.6800 265.0000 1.0000
42.7000 243.0000 1.0000
42.7200 260.0000 1.0000
42.7400 268.0000 1.0000
42.7600 267.0000 1.0000
42.7800 252.0000 1.0000
42.8000 249.0000 1.0000
42.8200 239.0000 1.0000
42.8400 244.0000 1.0000
42.8600 236.0000 1.0000
42.8800 234.0000 1.0000
42.9000 255.0000 1.0000
42.9200 275.0000 1.0000
42.9400 280.0000 1.0000
42.9600 300.0000 1.0000
42.9800 314.0000 1.0000
43.0000 354.0000 1.0000
43.0200 388.0000 1.0000
43.0400 466.0000 1.0000
43.0600 527.0000 1.0000
43.0800 629.0000 1.0000
43.1000 755.0000 1.0000
43.1200 880.0000 1.0000
43.1400 1097.0000 1.0000
43.1600 1359.0000 1.0000
43.1800 1582.0000 1.0000
43.2000 1764.0000 1.0000
43.2200 1905.0000 1.0000
43.2400 1827.0000 1.0000
43.2600 1704.0000 1.0000
43.2800 1602.0000 1.0000
43.3000 1447.0000 1.0000
43.3200 1249.0000 1.0000
43.3400 1127.0000 1.0000
43.3600 948.0000 1.0000
43.3800 801.0000 1.0000
43.4000 653.0000 1.0000
43.4200 467.0000 1.0000
43.4400 404.0000 1.0000
43.4600 304.0000 1.0000
43.4800 259.0000 1.0000
43.5000 225.0000 1.0000
43.5200 215.0000 1.0000
43.5400 211.0000 1.0000
43.5600 194.0000 1.0000
43.5800 176.0000 1.0000
43.6000 170.0000 1.0000
43.6200 171.0000 1.0000
43.6400 138.0000 1.0000
43.6600 137.0000 1.0000
43.6800 143.0000 1.0000
43.7000 137.0000 1.0000
43.7200 122.0000 1.0000
43.7400 140.0000 1.0000
43.7600 137.0000 1.0000
43.7800 133.0000 1.0000
43.8000 127.0000 1.0000
43.8200 136.0000 1.0000
43.8400 134.0000 1.0000
43.8600 134.0000 1.0000
43.8800 121.0000 1.0000
43.9000 133.0000 1.0000
43.9200 136.0000 1.0000
43.9400 141.0000 1.0000
43.9600 117.0000 1.0000
43.9800 146.0000 1.0000
44.0000 124.0000 1.0000
44.0200 107.0000 1.0000
44.0400 126.0000 1.0000
44.0600 140.0000 1.0000
44.0800 129.0000 1.0000
44.1000 136.0000 1.0000
44.1200 102.0000 1.0000
44.1400 115.0000 1.0000
44.1600 129.0000 1.0000
44.1800 115.0000 1.0000
44.2000 114.0000 1.0000
44.2200 112.0000 1.0000
44.2400 133.0000 1.0000
44.2600 127.0000 1.0000
44.2800 136.0000 1.0000
44.3000 121.0000 1.0000
44.3200 106.0000 1.0000
44.3400 105.0000 1.0000
44.3600 138.0000 1.0000
44.3800 132.0000 1.0000
44.4000 134.0000 1.0000
44.4200 140.0000 1.0000
44.4400 142.0000 1.0000
44.4600 135.0000 1.0000
44.4800 129.0000 1.0000
44.5000 125.0000 1.0000
44.5200 145.0000 1.0000
44.5400 148.0000 1.0000
44.5600 125.0000 1.0000
44.5800 121.0000 1.0000
44.6000 135.0000 1.0000
44.6200 120.0000 1.0000
44.6400 122.0000 1.0000
44.6600 153.0000 1.0000
44.6800 130.0000 1.0000
44.7000 122.0000 1.0000
44.7200 153.0000 1.0000
44.7400 142.0000 1.0000
44.7600 160.0000 1.0000
44.7800 140.0000 1.0000
44.8000 145.0000 1.0000
44.8200 158.0000 1.0000
44.8400 129.0000 1.0000
44.8600 140.0000 1.0000
44.8800 137.0000 1.0000
44.9000 146.0000 1.0000
44.9200 148.0000 1.0000
44.9400 174.0000 1.0000
44.9600 147.0000 1.0000
44.9800 146.0000 1.0000
45.0000 172.0000 1.0000
45.0200 160.0000 1.0000
45.0400 158.0000 1.0000
45.0600 181.0000 1.0000
45.0800 143.0000 1.0000
45.1000 167.0000 1.0000
45.1200 181.0000 1.0000
45.1400 183.0000 1.0000
45.1600 151.0000 1.0000
45.1800 139.0000 1.0000
45.2000 182.0000 1.0000
45.2200 152.0000 1.0000
45.2400 170.0000 1.0000
45.2600 169.0000 1.0000
45.2800 195.0000 1.0000
45.3000 165.0000 1.0000
45.3200 198.0000 1.0000
45.3400 169.0000 1.0000
45.3600 212.0000 1.0000
45.3800 209.0000 1.0000
45.4000 211.0000 1.0000
45.4200 234.0000 1.0000
45.4400 228.0000 1.0000
45.4600 236.0000 1.0000
45.4800 265.0000 1.0000
45.5000 282.0000 1.0000
45.5200 312.0000 1.0000
45.5400 271.0000 1.0000
45.5600 340.0000 1.0000
45.5800 413.0000 1.0000
45.6000 444.0000 1.0000
45.6200 527.0000 1.0000
45.6400 552.0000 1.0000
45.6600 576.0000 1.0000
45.6800 525.0000 1.0000
45.7000 539.0000 1.0000
45.7200 469.0000 1.0000
45.7400 450.0000 1.0000
45.7600 409.0000 1.0000
45.7800 378.0000 1.0000
45.8000 332.0000 1.0000
45.8200 271.0000 1.0000
45.8400 238.0000 1.0000
45.8600 212.0000 1.0000
45.8800 204.0000 1.0000
45.9000 156.0000 1.0000
45.9200 169.0000 1.0000
45.9400 152.0000 1.0000
45.9600 149.0000 1.0000
45.9800 162.0000 1.0000
46.0000 175.0000 1.0000
46.0200 160.0000 1.0000
46.0400 176.0000 1.0000
46.0600 180.0000 1.0000
46.0800 178.0000 1.0000
46.1000 188.0000 1.0000
46.1200 184.0000 1.0000
46.1400 172.0000 1.0000
46.1600 149.0000 1.0000
46.1800 168.0000 1.0000
46.2000 156.0000 1.0000
46.2200 133.0000 1.0000
46.2400 121.0000 1.0000
46.2600 125.0000 1.0000
46.2800 126.0000 1.0000
46.3000 129.0000 1.0000
46.3200 110.0000 1.0000
46.3400 109.0000 1.0000
46.3600 130.0000 1.0000
46.3800 111.0000 1.0000
46.4000 99.0000 1.0000
46.4200 110.0000 1.0000
46.4400 101.0000 1.0000
46.4600 106.0000 1.0000
46.4800 124.0000 1.0000
46.5000 102.0000 1.0000
46.5200 107.0000 1.0000
46.5400 116.0000 1.0000
46.5600 114.0000 1.0000
46.5800 124.0000 1.0000
46.6000 111.0000 1.0000
46.6200 121.0000 1.0000
46.6400 115.0000 1.0000
46.6600 120.0000 1.0000
46.6800 120.0000 1.0000
46.7000 123.0000 1.0000
46.7200 129.0000 1.0000
46.7400 152.0000 1.0000
46.7600 152.0000 1.0000
46.7800 149.0000 1.0000
46.8000 141.0000 1.0000
46.8200 134.0000 1.0000
46.8400 152.0000 1.0000
46.8600 160.0000 1.0000
46.8800 163.0000 1.0000
46.9000 184.0000 1.0000
46.9200 201.0000 1.0000
46.9400 177.0000 1.0000
46.9600 167.0000 1.0000
46.9800 182.0000 1.0000
47.0000 173.0000 1.0000
47.0200 174.0000 1.0000
47.0400 162.0000 1.0000
47.0600 163.0000 1.0000
47.0800 161.0000 1.0000
47.1000 152.0000 1.0000
47.1200 126.0000 1.0000
47.1400 130.0000 1.0000
47.1600 130.0000 1.0000
47.1800 125.0000 1.0000
47.2000 146.0000 1.0000
47.2200 139.0000 1.0000
47.2400 126.0000 1.0000
47.2600 119.0000 1.0000
47.2800 139.0000 1.0000
47.3000 155.0000 1.0000
47.3200 167.0000 1.0000
47.3400 153.0000 1.0000
47.3600 161.0000 1.0000
47.3800 173.0000 1.0000
47.4000 163.0000 1.0000
47.4200 166.0000 1.0000
47.4400 185.0000 1.0000
47.4600 191.0000 1.0000
47.4800 172.0000 1.0000
47.5000 164.0000 1.0000
47.5200 162.0000 1.0000
47.5400 157.0000 1.0000
47.5600 161.0000 1.0000
47.5800 173.0000 1.0000
47.6000 163.0000 1.0000
47.6200 151.0000 1.0000
47.6400 153.0000 1.0000
47.6600 156.0000 1.0000
47.6800 142.0000 1.0000
47.7000 146.0000 1.0000
47.7200 141.0000 1.0000
47.7400 134.0000 1.0000
47.7600 140.0000 1.0000
47.7800 144.0000 1.0000
47.8000 147.0000 1.0000
47.8200 143.0000 1.0000
47.8400 135.0000 1.0000
47.8600 152.0000 1.0000
47.8800 150.0000 1.0000
47.9000 137.0000 1.0000
47.9200 147.0000 1.0000
47.9400 151.0000 1.0000
47.9600 145.0000 1.0000
47.9800 171.0000 1.0000
48.0000 172.0000 1.0000
48.0200 167.0000 1.0000
48.0400 171.0000 1.0000
48.0600 172.0000 1.0000
48.0800 177.0000 1.0000
48.1000 179.0000 1.0000
48.1200 170.0000 1.0000
48.1400 185.0000 1.0000
48.1600 189.0000 1.0000
48.1800 197.0000 1.0000
48.2000 192.0000 1.0000
48.2200 176.0000 1.0000
48.2400 178.0000 1.0000
48.2600 186.0000 1.0000
48.2800 185.0000 1.0000
48.3000 172.0000 1.0000
48.3200 153.0000 1.0000
48.3400 135.0000 1.0000
48.3600 134.0000 1.0000
48.3800 140.0000 1.0000
48.4000 135.0000 1.0000
48.4200 143.0000 1.0000
48.4400 140.0000 1.0000
48.4600 125.0000 1.0000
48.4800 121.0000 1.0000
48.5000 117.0000 1.0000
48.5200 118.0000 1.0000
48.5400 127.0000 1.0000
48.5600 127.0000 1.0000
48.5800 127.0000 1.0000
48.6000 128.0000 1.0000
48.6200 136.0000 1.0000
48.6400 150.0000 1.0000
48.6600 150.0000 1.0000
48.6800 154.0000 1.0000
48.7000 154.0000 1.0000
48.7200 154.0000 1.0000
48.7400 168.0000 1.0000
48.7600 178.0000 1.0000
48.7800 171.0000 1.0000
48.8000 164.0000 1.0000
48.8200 155.0000 1.0000
48.8400 167.0000 1.0000
48.8600 189.0000 1.0000
48.8800 183.0000 1.0000
48.9000 182.0000 1.0000
48.9200 190.0000 1.0000
48.9400 185.0000 1.0000
48.9600 184.0000 1.0000
48.9800 207.0000 1.0000
49.0000 241.0000 1.0000
49.0200 259.0000 1.0000
49.0400 266.0000 1.0000
49.0600 269.0000 1.0000
49.0800 273.0000 1.0000
49.1000 273.0000 1.0000
49.1200 258.0000 1.0000
49.1400 247.0000 1.0000
49.1600 253.0000 1.0000
49.1800 253.0000 1.0000
49.2000 236.0000 1.0000
49.2200 225.0000 1.0000
49.2400 207.0000 1.0000
49.2600 190.0000 1.0000
49.2800 177.0000 1.0000
49.3000 193.0000 1.0000
49.3200 195.0000 1.0000
49.3400 186.0000 1.0000
49.3600 192.0000 1.0000
49.3800 184.0000 1.0000
49.4000 207.0000 1.0000
49.4200 201.0000 1.0000
49.4400 188.0000 1.0000
49.4600 202.0000 1.0000
49.4800 205.0000 1.0000
49.5000 214.0000 1.0000
49.5200 230.0000 1.0000
49.5400 229.0000 1.0000
49.5600 254.0000 1.0000
49.5800 279.0000 1.0000
49.6000 282.0000 1.0000
49.6200 298.0000 1.0000
49.6400 323.0000 1.0000
49.6600 368.0000 1.0000
49.6800 356.0000 1.0000
49.7000 372.0000 1.0000
49.7200 409.0000 1.0000
49.7400 424.0000 1.0000
49.7600 436.0000 1.0000
49.7800 453.0000 1.0000
49.8000 467.0000 1.0000
49.8200 499.0000 1.0000
49.8400 516.0000 1.0000
49.8600 561.0000 1.0000
49.8800 642.0000 1.0000
49.9000 746.0000 1.0000
49.9200 822.0000 1.0000
49.9400 969.0000 1.0000
49.9600 1194.0000 1.0000
49.9800 1398.0000 1.0000
50.0000 1532.0000 1.0000
50.0200 1537.0000 1.0000
50.0400 1512.0000 1.0000
50.0600 1380.0000 1.0000
50.0800 1204.0000 1.0000
50.1000 1086.0000 1.0000
50.1200 1023.0000 1.0000
50.1400 950.0000 1.0000
50.1600 884.0000 1.0000
50.1800 784.0000 1.0000
50.2000 645.0000 1.0000
50.2200 523.0000 1.0000
50.2400 417.0000 1.0000
50.2600 376.0000 1.0000
50.2800 329.0000 1.0000
50.3000 302.0000 1.0000
50.3200 304.0000 1.0000
50.3400 339.0000 1.0000
50.3600 366.0000 1.0000
50.3800 388.0000 1.0000
50.4000 414.0000 1.0000
50.4200 401.0000 1.0000
50.4400 388.0000 1.0000
50.4600 396.0000 1.0000
50.4800 376.0000 1.0000
50.5000 371.0000 1.0000
50.5200 377.0000 1.0000
50.5400 359.0000 1.0000
50.5600 372.0000 1.0000
50.5800 330.0000 1.0000
50.6000 334.0000 1.0000
50.6200 317.0000 1.0000
50.6400 299.0000 1.0000
50.6600 250.0000 1.0000
50.6800 267.0000 1.0000
50.7000 268.0000 1.0000
50.7200 247.0000 1.0000
50.7400 252.0000 1.0000
50.7600 243.0000 1.0000
50.7800 226.0000 1.0000
50.8000 208.0000 1.0000
50.8200 193.0000 1.0000
50.8400 197.0000 1.0000
50.8600 203.0000 1.0000
50.8800 201.0000 1.0000
50.9000 197.0000 1.0000
50.9200 178.0000 1.0000
50.9400 188.0000 1.0000
50.9600 218.0000 1.0000
50.9800 224.0000 1.0000
51.0000 214.0000 1.0000
51.0200 250.0000 1.0000
51.0400 246.0000 1.0000
51.0600 292.0000 1.0000
51.0800 294.0000 1.0000
51.1000 301.0000 1.0000
51.1200 295.0000 1.0000
51.1400 299.0000 1.0000
51.1600 295.0000 1.0000
51.1800 296.0000 1.0000
51.2000 304.0000 1.0000
51.2200 299.0000 1.0000
51.2400 282.0000 1.0000
51.2600 244.0000 1.0000
51.2800 247.0000 1.0000
51.3000 217.0000 1.0000
51.3200 197.0000 1.0000
51.3400 195.0000 1.0000
51.3600 186.0000 1.0000
51.3800 186.0000 1.0000
51.4000 167.0000 1.0000
51.4200 148.0000 1.0000
51.4400 149.0000 1.0000
51.4600 155.0000 1.0000
51.4800 143.0000 1.0000
51.5000 144.0000 1.0000
51.5200 128.0000 1.0000
51.5400 124.0000 1.0000
51.5600 140.0000 1.0000
51.5800 134.0000 1.0000
51.6000 122.0000 1.0000
51.6200 122.0000 1.0000
51.6400 100.0000 1.0000
51.6600 140.0000 1.0000
51.6800 110.0000 1.0000
51.7000 127.0000 1.0000
51.7200 117.0000 1.0000
51.7400 102.0000 1.0000
51.7600 123.0000 1.0000
51.7800 124.0000 1.0000
51.8000 103.0000 1.0000
51.8200 120.0000 1.0000
51.8400 115.0000 1.0000
51.8600 120.0000 1.0000
51.8800 115.0000 1.0000
51.9000 118.0000 1.0000
51.9200 135.0000 1.0000
51.9400 143.0000 1.0000
51.9600 134.0000 1.0000
51.9800 149.0000 1.0000
52.0000 137.0000 1.0000
52.0200 165.0000 1.0000
52.0400 148.0000 1.0000
52.0600 168.0000 1.0000
52.0800 176.0000 1.0000
52.1000 186.0000 1.0000
52.1200 194.0000 1.0000
52.1400 188.0000 1.0000
52.1600 236.0000 1.0000
52.1800 203.0000 1.0000
52.2000 236.0000 1.0000
52.2200 229.0000 1.0000
52.2400 265.0000 1.0000
52.2600 262.0000 1.0000
52.2800 346.0000 1.0000
52.3000 388.0000 1.0000
52.3200 379.0000 1.0000
52.3400 494.0000 1.0000
52.3600 640.0000 1.0000
52.3800 700.0000 1.0000
52.4000 769.0000 1.0000
52.4200 830.0000 1.0000
52.4400 897.0000 1.0000
52.4600 826.0000 1.0000
52.4800 814.0000 1.0000
52.5000 717.0000 1.0000
52.5200 670.0000 1.0000
52.5400 621.0000 1.0000
52.5600 616.0000 1.0000
52.5800 573.0000 1.0000
52.6000 516.0000 1.0000
52.6200 460.0000 1.0000
52.6400 419.0000 1.0000
52.6600 319.0000 1.0000
52.6800 306.0000 1.0000
52.7000 271.0000 1.0000
52.7200 240.0000 1.0000
52.7400 226.0000 1.0000
52.7600 242.0000 1.0000
52.7800 230.0000 1.0000
52.8000 218.0000 1.0000
52.8200 244.0000 1.0000
52.8400 211.0000 1.0000
52.8600 195.0000 1.0000
52.8800 197.0000 1.0000
52.9000 181.0000 1.0000
52.9200 168.0000 1.0000
52.9400 178.0000 1.0000
52.9600 165.0000 1.0000
52.9800 186.0000 1.0000
53.0000 167.0000 1.0000
53.0200 199.0000 1.0000
53.0400 189.0000 1.0000
53.0600 198.0000 1.0000
53.0800 182.0000 1.0000
53.1000 174.0000 1.0000
53.1200 195.0000 1.0000
53.1400 176.0000 1.0000
53.1600 168.0000 1.0000
53.1800 159.0000 1.0000
53.2000 188.0000 1.0000
53.2200 175.0000 1.0000
53.2400 141.0000 1.0000
53.2600 163.0000 1.0000
53.2800 145.0000 1.0000
53.3000 175.0000 1.0000
53.3200 156.0000 1.0000
53.3400 147.0000 1.0000
53.3600 143.0000 1.0000
53.3800 122.0000 1.0000
53.4000 132.0000 1.0000
53.4200 121.0000 1.0000
53.4400 130.0000 1.0000
53.4600 132.0000 1.0000
53.4800 130.0000 1.0000
53.5000 126.0000 1.0000
53.5200 124.0000 1.0000
53.5400 124.0000 1.0000
53.5600 120.0000 1.0000
53.5800 141.0000 1.0000
53.6000 141.0000 1.0000
53.6200 120.0000 1.0000
53.6400 127.0000 1.0000
53.6600 128.0000 1.0000
53.6800 122.0000 1.0000
53.7000 130.0000 1.0000
53.7200 138.0000 1.0000
53.7400 118.0000 1.0000
53.7600 114.0000 1.0000
53.7800 134.0000 1.0000
53.8000 127.0000 1.0000
53.8200 141.0000 1.0000
53.8400 144.0000 1.0000
53.8600 147.0000 1.0000
53.8800 123.0000 1.0000
53.9000 139.0000 1.0000
53.9200 147.0000 1.0000
53.9400 166.0000 1.0000
53.9600 146.0000 1.0000
53.9800 142.0000 1.0000
54.0000 164.0000 1.0000
54.0200 151.0000 1.0000
54.0400 140.0000 1.0000
54.0600 149.0000 1.0000
54.0800 160.0000 1.0000
54.1000 146.0000 1.0000
54.1200 145.0000 1.0000
54.1400 148.0000 1.0000
54.1600 150.0000 1.0000
54.1800 148.0000 1.0000
54.2000 169.0000 1.0000
54.2200 168.0000 1.0000
54.2400 164.0000 1.0000
54.2600 177.0000 1.0000
54.2800 187.0000 1.0000
54.3000 185.0000 1.0000
54.3200 161.0000 1.0000
54.3400 164.0000 1.0000
54.3600 189.0000 1.0000
54.3800 182.0000 1.0000
54.4000 166.0000 1.0000
54.4200 156.0000 1.0000
54.4400 169.0000 1.0000
54.4600 164.0000 1.0000
54.4800 179.0000 1.0000
54.5000 177.0000 1.0000
54.5200 162.0000 1.0000
54.5400 185.0000 1.0000
54.5600 193.0000 1.0000
54.5800 199.0000 1.0000
54.6000 216.0000 1.0000
54.6200 231.0000 1.0000
54.6400 269.0000 1.0000
54.6600 309.0000 1.0000
54.6800 331.0000 1.0000
54.7000 405.0000 1.0000
54.7200 469.0000 1.0000
54.7400 534.0000 1.0000
54.7600 538.0000 1.0000
54.7800 524.0000 1.0000
54.8000 495.0000 1.0000
54.8200 455.0000 1.0000
54.8400 389.0000 1.0000
54.8600 361.0000 1.0000
54.8800 356.0000 1.0000
54.9000 342.0000 1.0000
54.9200 329.0000 1.0000
54.9400 309.0000 1.0000
54.9600 282.0000 1.0000
54.9800 243.0000 1.0000
55.0000 210.0000 1.0000
55.0200 198.0000 1.0000
55.0400 178.0000 1.0000
55.0600 190.0000 1.0000
55.0800 212.0000 1.0000
55.1000 216.0000 1.0000
55.1200 223.0000 1.0000
55.1400 261.0000 1.0000
55.1600 297.0000 1.0000
55.1800 314.0000 1.0000
55.2000 321.0000 1.0000
55.2200 326.0000 1.0000
55.2400 306.0000 1.0000
55.2600 309.0000 1.0000
55.2800 290.0000 1.0000
55.3000 255.0000 1.0000
55.3200 242.0000 1.0000
55.3400 249.0000 1.0000
55.3600 243.0000 1.0000
55.3800 222.0000 1.0000
55.4000 212.0000 1.0000
55.4200 194.0000 1.0000
55.4400 173.0000 1.0000
55.4600 159.0000 1.0000
55.4800 153.0000 1.0000
55.5000 142.0000 1.0000
55.5200 146.0000 1.0000
55.5400 143.0000 1.0000
55.5600 133.0000 1.0000
55.5800 130.0000 1.0000
55.6000 129.0000 1.0000
55.6200 141.0000 1.0000
55.6400 138.0000 1.0000
55.6600 131.0000 1.0000
55.6800 130.0000 1.0000
55.7000 122.0000 1.0000
55.7200 122.0000 1.0000
55.7400 108.0000 1.0000
55.7600 110.0000 1.0000
55.7800 113.0000 1.0000
55.8000 110.0000 1.0000
55.8200 130.0000 1.0000
55.8400 134.0000 1.0000
55.8600 113.0000 1.0000
55.8800 112.0000 1.0000
55.9000 120.0000 1.0000
55.9200 123.0000 1.0000
55.9400 126.0000 1.0000
55.9600 125.0000 1.0000
55.9800 130.0000 1.0000
56.0000 130.0000 1.0000
56.0200 118.0000 1.0000
56.0400 119.0000 1.0000
56.0600 122.0000 1.0000
56.0800 115.0000 1.0000
56.1000 113.0000 1.0000
56.1200 114.0000 1.0000
56.1400 114.0000 1.0000
56.1600 117.0000 1.0000
56.1800 124.0000 1.0000
56.2000 113.0000 1.0000
56.2200 105.0000 1.0000
56.2400 118.0000 1.0000
56.2600 129.0000 1.0000
56.2800 122.0000 1.0000
56.3000 106.0000 1.0000
56.3200 94.0000 1.0000
56.3400 92.0000 1.0000
56.3600 106.0000 1.0000
56.3800 117.0000 1.0000
56.4000 114.0000 1.0000
56.4200 115.0000 1.0000
56.4400 114.0000 1.0000
56.4600 104.0000 1.0000
56.4800 101.0000 1.0000
56.5000 116.0000 1.0000
56.5200 112.0000 1.0000
56.5400 104.0000 1.0000
56.5600 119.0000 1.0000
56.5800 136.0000 1.0000
56.6000 137.0000 1.0000
56.6200 131.0000 1.0000
56.6400 134.0000 1.0000
56.6600 129.0000 1.0000
56.6800 146.0000 1.0000
56.7000 151.0000 1.0000
56.7200 143.0000 1.0000
56.7400 155.0000 1.0000
56.7600 144.0000 1.0000
56.7800 132.0000 1.0000
56.8000 132.0000 1.0000
56.8200 140.0000 1.0000
56.8400 151.0000 1.0000
56.8600 134.0000 1.0000
56.8800 138.0000 1.0000
56.9000 151.0000 1.0000
56.9200 150.0000 1.0000
56.9400 150.0000 1.0000
56.9600 170.0000 1.0000
56.9800 166.0000 1.0000
57.0000 173.0000 1.0000
57.0200 175.0000 1.0000
57.0400 162.0000 1.0000
57.0600 172.0000 1.0000
57.0800 202.0000 1.0000
57.1000 226.0000 1.0000
57.1200 233.0000 1.0000
57.1400 247.0000 1.0000
57.1600 292.0000 1.0000
57.1800 323.0000 1.0000
57.2000 314.0000 1.0000
57.2200 393.0000 1.0000
57.2400 488.0000 1.0000
57.2600 559.0000 1.0000
57.2800 707.0000 1.0000
57.3000 915.0000 1.0000
57.3200 1144.0000 1.0000
57.3400 1307.0000 1.0000
57.3600 1450.0000 1.0000
57.3800 1527.0000 1.0000
57.4000 1513.0000 1.0000
57.4200 1431.0000 1.0000
57.4400 1318.0000 1.0000
57.4600 1156.0000 1.0000
57.4800 1048.0000 1.0000
57.5000 1002.0000 1.0000
57.5200 944.0000 1.0000
57.5400 932.0000 1.0000
57.5600 844.0000 1.0000
57.5800 718.0000 1.0000
57.6000 603.0000 1.0000
57.6200 504.0000 1.0000
57.6400 435.0000 1.0000
57.6600 334.0000 1.0000
57.6800 279.0000 1.0000
57.7000 242.0000 1.0000
57.7200 217.0000 1.0000
57.7400 204.0000 1.0000
57.7600 209.0000 1.0000
57.7800 194.0000 1.0000
57.8000 199.0000 1.0000
57.8200 186.0000 1.0000
57.8400 183.0000 1.0000
57.8600 166.0000 1.0000
57.8800 149.0000 1.0000
57.9000 160.0000 1.0000
57.9200 167.0000 1.0000
57.9400 161.0000 1.0000
57.9600 161.0000 1.0000
57.9800 164.0000 1.0000
58.0000 157.0000 1.0000
58.0200 141.0000 1.0000
58.0400 152.0000 1.0000
58.0600 148.0000 1.0000
58.0800 153.0000 1.0000
58.1000 144.0000 1.0000
58.1200 153.0000 1.0000
58.1400 146.0000 1.0000
58.1600 129.0000 1.0000
58.1800 145.0000 1.0000
58.2000 149.0000 1.0000
58.2200 155.0000 1.0000
58.2400 154.0000 1.0000
58.2600 153.0000 1.0000
58.2800 156.0000 1.0000
58.3000 152.0000 1.0000
58.3200 158.0000 1.0000
58.3400 162.0000 1.0000
58.3600 159.0000 1.0000
58.3800 165.0000 1.0000
58.4000 174.0000 1.0000
58.4200 177.0000 1.0000
58.4400 183.0000 1.0000
58.4600 163.0000 1.0000
58.4800 186.0000 1.0000
58.5000 172.0000 1.0000
58.5200 190.0000 1.0000
58.5400 187.0000 1.0000
58.5600 190.0000 1.0000
58.5800 192.0000 1.0000
58.6000 180.0000 1.0000
58.6200 200.0000 1.0000
58.6400 177.0000 1.0000
58.6600 188.0000 1.0000
58.6800 161.0000 1.0000
58.7000 155.0000 1.0000
58.7200 166.0000 1.0000
58.7400 164.0000 1.0000
58.7600 161.0000 1.0000
58.7800 152.0000 1.0000
58.8000 143.0000 1.0000
58.8200 156.0000 1.0000
58.8400 134.0000 1.0000
58.8600 128.0000 1.0000
58.8800 127.0000 1.0000
58.9000 143.0000 1.0000
58.9200 135.0000 1.0000
58.9400 124.0000 1.0000
58.9600 115.0000 1.0000
58.9800 122.0000 1.0000
59.0000 120.0000 1.0000
59.0200 131.0000 1.0000
59.0400 131.0000 1.0000
59.0600 131.0000 1.0000
59.0800 130.0000 1.0000
59.1000 125.0000 1.0000
59.1200 136.0000 1.0000
59.1400 147.0000 1.0000
59.1600 139.0000 1.0000
59.1800 144.0000 1.0000
59.2000 153.0000 1.0000
59.2200 138.0000 1.0000
59.2400 140.0000 1.0000
59.2600 173.0000 1.0000
59.2800 159.0000 1.0000
59.3000 161.0000 1.0000
59.3200 178.0000 1.0000
59.3400 184.0000 1.0000
59.3600 169.0000 1.0000
59.3800 153.0000 1.0000
59.4000 180.0000 1.0000
59.4200 183.0000 1.0000
59.4400 201.0000 1.0000
59.4600 194.0000 1.0000
59.4800 190.0000 1.0000
59.5000 222.0000 1.0000
59.5200 236.0000 1.0000
59.5400 226.0000 1.0000
59.5600 220.0000 1.0000
59.5800 253.0000 1.0000
59.6000 244.0000 1.0000
59.6200 264.0000 1.0000
59.6400 289.0000 1.0000
59.6600 321.0000 1.0000
59.6800 342.0000 1.0000
59.7000 410.0000 1.0000
59.7200 437.0000 1.0000
59.7400 502.0000 1.0000
59.7600 569.0000 1.0000
59.7800 704.0000 1.0000
59.8000 799.0000 1.0000
59.8200 871.0000 1.0000
59.8400 964.0000 1.0000
59.8600 1003.0000 1.0000
59.8800 936.0000 1.0000
59.9000 834.0000 1.0000
59.9200 719.0000 1.0000
59.9400 676.0000 1.0000
59.9600 578.0000 1.0000
59.9800 582.0000 1.0000
60.0000 627.0000 1.0000
60.0200 610.0000 1.0000
60.0400 512.0000 1.0000
60.0600 463.0000 1.0000
60.0800 398.0000 1.0000
60.1000 329.0000 1.0000
60.1200 308.0000 1.0000
60.1400 252.0000 1.0000
60.1600 203.0000 1.0000
60.1800 211.0000 1.0000
60.2000 194.0000 1.0000
60.2200 189.0000 1.0000
60.2400 202.0000 1.0000
60.2600 185.0000 1.0000
60.2800 189.0000 1.0000
60.3000 169.0000 1.0000
60.3200 166.0000 1.0000
60.3400 146.0000 1.0000
60.3600 161.0000 1.0000
60.3800 148.0000 1.0000
60.4000 165.0000 1.0000
60.4200 160.0000 1.0000
60.4400 147.0000 1.0000
60.4600 156.0000 1.0000
60.4800 164.0000 1.0000
60.5000 140.0000 1.0000
60.5200 151.0000 1.0000
60.5400 153.0000 1.0000
60.5600 166.0000 1.0000
60.5800 142.0000 1.0000
60.6000 142.0000 1.0000
60.6200 148.0000 1.0000
60.6400 142.0000 1.0000
60.6600 161.0000 1.0000
60.6800 153.0000 1.0000
60.7000 165.0000 1.0000
60.7200 144.0000 1.0000
60.7400 149.0000 1.0000
60.7600 159.0000 1.0000
60.7800 148.0000 1.0000
60.8000 155.0000 1.0000
60.8200 153.0000 1.0000
60.8400 135.0000 1.0000
60.8600 158.0000 1.0000
60.8800 161.0000 1.0000
60.9000 186.0000 1.0000
60.9200 191.0000 1.0000
60.9400 190.0000 1.0000
60.9600 207.0000 1.0000
60.9800 249.0000 1.0000
61.0000 252.0000 1.0000
61.0200 276.0000 1.0000
61.0400 249.0000 1.0000
61.0600 256.0000 1.0000
61.0800 249.0000 1.0000
61.1000 270.0000 1.0000
61.1200 281.0000 1.0000
61.1400 288.0000 1.0000
61.1600 282.0000 1.0000
61.1800 276.0000 1.0000
61.2000 301.0000 1.0000
61.2200 258.0000 1.0000
61.2400 294.0000 1.0000
61.2600 238.0000 1.0000
61.2800 227.0000 1.0000
61.3000 201.0000 1.0000
61.3200 204.0000 1.0000
61.3400 217.0000 1.0000
61.3600 207.0000 1.0000
61.3800 203.0000 1.0000
61.4000 172.0000 1.0000
61.4200 201.0000 1.0000
61.4400 156.0000 1.0000
61.4600 152.0000 1.0000
61.4800 183.0000 1.0000
61.5000 172.0000 1.0000
61.5200 154.0000 1.0000
61.5400 182.0000 1.0000
61.5600 173.0000 1.0000
61.5800 169.0000 1.0000
61.6000 169.0000 1.0000
61.6200 158.0000 1.0000
61.6400 152.0000 1.0000
61.6600 176.0000 1.0000
61.6800 155.0000 1.0000
61.7000 185.0000 1.0000
61.7200 171.0000 1.0000
61.7400 177.0000 1.0000
61.7600 144.0000 1.0000
61.7800 155.0000 1.0000
61.8000 137.0000 1.0000
61.8200 168.0000 1.0000
61.8400 164.0000 1.0000
61.8600 145.0000 1.0000
61.8800 164.0000 1.0000
61.9000 164.0000 1.0000
61.9200 136.0000 1.0000
61.9400 162.0000 1.0000
61.9600 138.0000 1.0000
61.9800 165.0000 1.0000
62.0000 167.0000 1.0000
62.0200 167.0000 1.0000
62.0400 141.0000 1.0000
62.0600 156.0000 1.0000
62.0800 147.0000 1.0000
62.1000 160.0000 1.0000
62.1200 141.0000 1.0000
62.1400 164.0000 1.0000
62.1600 126.0000 1.0000
62.1800 147.0000 1.0000
62.2000 145.0000 1.0000
62.2200 133.0000 1.0000
62.2400 151.0000 1.0000
62.2600 144.0000 1.0000
62.2800 143.0000 1.0000
62.3000 138.0000 1.0000
62.3200 123.0000 1.0000
62.3400 136.0000 1.0000
62.3600 132.0000 1.0000
62.3800 132.0000 1.0000
62.4000 142.0000 1.0000
62.4200 138.0000 1.0000
62.4400 148.0000 1.0000
62.4600 151.0000 1.0000
62.4800 149.0000 1.0000
62.5000 149.0000 1.0000
62.5200 150.0000 1.0000
62.5400 147.0000 1.0000
62.5600 159.0000 1.0000
62.5800 135.0000 1.0000
62.6000 152.0000 1.0000
62.6200 166.0000 1.0000
62.6400 139.0000 1.0000
62.6600 148.0000 1.0000
62.6800 139.0000 1.0000
62.7000 137.0000 1.0000
62.7200 149.0000 1.0000
62.7400 155.0000 1.0000
62.7600 139.0000 1.0000
62.7800 123.0000 1.0000
62.8000 136.0000 1.0000
62.8200 161.0000 1.0000
62.8400 154.0000 1.0000
62.8600 149.0000 1.0000
62.8800 164.0000 1.0000
62.9000 176.0000 1.0000
62.9200 175.0000 1.0000
62.9400 172.0000 1.0000
62.9600 173.0000 1.0000
62.9800 172.0000 1.0000
63.0000 174.0000 1.0000
63.0200 171.0000 1.0000
63.0400 208.0000 1.0000
63.0600 204.0000 1.0000
63.0800 174.0000 1.0000
63.1000 183.0000 1.0000
63.1200 190.0000 1.0000
63.1400 188.0000 1.0000
63.1600 187.0000 1.0000
63.1800 171.0000 1.0000
63.2000 175.0000 1.0000
63.2200 163.0000 1.0000
63.2400 175.0000 1.0000
63.2600 160.0000 1.0000
63.2800 195.0000 1.0000
63.3000 180.0000 1.0000
63.3200 166.0000 1.0000
63.3400 166.0000 1.0000
63.3600 164.0000 1.0000
63.3800 165.0000 1.0000
63.4000 179.0000 1.0000
63.4200 175.0000 1.0000
63.4400 191.0000 1.0000
63.4600 195.0000 1.0000
63.4800 182.0000 1.0000
63.5000 187.0000 1.0000
63.5200 205.0000 1.0000
63.5400 205.0000 1.0000
63.5600 214.0000 1.0000
63.5800 204.0000 1.0000
63.6000 212.0000 1.0000
63.6200 229.0000 1.0000
63.6400 243.0000 1.0000
63.6600 280.0000 1.0000
63.6800 279.0000 1.0000
63.7000 263.0000 1.0000
63.7200 283.0000 1.0000
63.7400 277.0000 1.0000
63.7600 279.0000 1.0000
63.7800 295.0000 1.0000
63.8000 300.0000 1.0000
63.8200 310.0000 1.0000
63.8400 329.0000 1.0000
63.8600 354.0000 1.0000
63.8800 339.0000 1.0000
63.9000 366.0000 1.0000
63.9200 352.0000 1.0000
63.9400 339.0000 1.0000
63.9600 330.0000 1.0000
63.9800 307.0000 1.0000
64.0000 259.0000 1.0000
64.0200 231.0000 1.0000
64.0400 230.0000 1.0000
64.0600 262.0000 1.0000
64.0800 250.0000 1.0000
64.1000 242.0000 1.0000
64.1200 227.0000 1.0000
64.1400 218.0000 1.0000
64.1600 181.0000 1.0000
64.1800 168.0000 1.0000
64.2000 169.0000 1.0000
64.2200 161.0000 1.0000
64.2400 142.0000 1.0000
64.2600 132.0000 1.0000
64.2800 143.0000 1.0000
64.3000 140.0000 1.0000
64.3200 143.0000 1.0000
64.3400 143.0000 1.0000
64.3600 161.0000 1.0000
64.3800 139.0000 1.0000
64.4000 107.0000 1.0000
64.4200 108.0000 1.0000
64.4400 127.0000 1.0000
64.4600 122.0000 1.0000
64.4800 121.0000 1.0000
64.5000 127.0000 1.0000
64.5200 109.0000 1.0000
64.5400 120.0000 1.0000
64.5600 141.0000 1.0000
64.5800 142.0000 1.0000
64.6000 129.0000 1.0000
64.6200 138.0000 1.0000
64.6400 139.0000 1.0000
64.6600 133.0000 1.0000
64.6800 153.0000 1.0000
64.7000 137.0000 1.0000
64.7200 150.0000 1.0000
64.7400 141.0000 1.0000
64.7600 142.0000 1.0000
64.7800 144.0000 1.0000
64.8000 132.0000 1.0000
64.8200 141.0000 1.0000
64.8400 158.0000 1.0000
64.8600 155.0000 1.0000
64.8800 156.0000 1.0000
64.9000 174.0000 1.0000
64.9200 180.0000 1.0000
64.9400 166.0000 1.0000
64.9600 161.0000 1.0000
64.9800 161.0000 1.0000
65.0000 161.0000 1.0000
*RAS_INT_END
*RAS_DATA_END
