*RAS_DATA_START
*RAS_HEADER_START
*CORR_POS_DB_NAME "Angle Correction ASC6 SC WITH Mono_04082019"
*CORR_POS_GONIO_RADIUS ""
*CORR_POS_NODE_INDEX01 ""
*CORR_POS_NODE_INDEX02 ""
*CORR_POS_NODE_INDEX03 ""
*CORR_POS_NODE_INDEX04 ""
*CORR_POS_NODE_INDEX05 ""
*CORR_POS_NODE_INDEX06 ""
*CORR_POS_NODE_INDEX07 ""
*CORR_POS_NODE_INDEX08 ""
*CORR_POS_NODE_INDEX09 ""
*CORR_POS_NODE_INDEX10 ""
*CORR_POS_NODE_INDEX11 ""
*CORR_POS_NODE_LABEL01 "Si(111)"
*CORR_POS_NODE_LABEL02 "Si(220)"
*CORR_POS_NODE_LABEL03 "Si(311)"
*CORR_POS_NODE_LABEL04 "Si(400)"
*CORR_POS_NODE_LABEL05 "Si(331)"
*CORR_POS_NODE_LABEL06 "Si(422)"
*CORR_POS_NODE_LABEL07 "Si(511)"
*CORR_POS_NODE_LABEL08 "Si(440)"
*CORR_POS_NODE_LABEL09 "Si(531)"
*CORR_POS_NODE_LABEL10 "Si(620)"
*CORR_POS_NODE_LABEL11 "Si(533)"
*CORR_POS_NODE_POS_CALC01 "28.377"
*CORR_POS_NODE_POS_CALC02 "47.2506"
*CORR_POS_NODE_POS_CALC03 "56.0725"
*CORR_POS_NODE_POS_CALC04 "69.0822"
*CORR_POS_NODE_POS_CALC05 "76.3294"
*CORR_POS_NODE_POS_CALC06 "87.9853"
*CORR_POS_NODE_POS_CALC07 "94.9091"
*CORR_POS_NODE_POS_CALC08 "106.668"
*CORR_POS_NODE_POS_CALC09 "114.054"
*CORR_POS_NODE_POS_CALC10 "127.511"
*CORR_POS_NODE_POS_CALC11 "136.864"
*CORR_POS_NODE_POS_MEAS01 "28.5058"
*CORR_POS_NODE_POS_MEAS02 "47.345"
*CORR_POS_NODE_POS_MEAS03 "56.1421"
*CORR_POS_NODE_POS_MEAS04 "69.1304"
*CORR_POS_NODE_POS_MEAS05 "76.366"
*CORR_POS_NODE_POS_MEAS06 "88.0213"
*CORR_POS_NODE_POS_MEAS07 "94.9406"
*CORR_POS_NODE_POS_MEAS08 "106.689"
*CORR_POS_NODE_POS_MEAS09 "114.065"
*CORR_POS_NODE_POS_MEAS10 "127.518"
*CORR_POS_NODE_POS_MEAS11 "136.869"
*CORR_POS_OPT_ATTR "集中法"
*CORR_POS_PARAM_MU ""
*CORR_POS_PARAM_PL ""
*CORR_POS_SEMODEL_TYPE "0"
*CORR_POS_STANDARD_TYPE ""
*CORR_POS_VALUE_ANALYZER "None"
*CORR_POS_VALUE_CMONO "None"
*CORR_POS_VALUE_IMONO "None"
*CORR_POS_VALUE_IS "1.250deg"
*CORR_POS_VALUE_ISL "10.0mm"
*CORR_POS_VALUE_ISOLLER "5.0deg"
*CORR_POS_VALUE_RS1 "1.250deg"
*CORR_POS_VALUE_RS2 "0.3mm"
*CORR_POS_VALUE_RSOLLER "5.0deg"
*CORR_POS_XG_FOCUS_L ""
*CORR_POS_XG_WAVE_TYPE ""
*CORR_POS_XG_WAVE_VALUE ""
*DISP_FMT_X "%.2f"
*DISP_FMT_Y "%.0f"
*DISP_FULLSCALE "5453.4000000000"
*DISP_LINE_COLOR "255.0000000000"
*DISP_LINE_STYLE "0.0000000000"
*DISP_LINE_WIDTH "0.2500000000"
*DISP_NOTE "Collected Data-22"
*DISP_OFFSET_Y "0.0000000000"
*DISP_PEAKSEARCH_UNIT_Y "CPS"
*DISP_RANGE_BOTTOM "0.0000000000"
*DISP_RANGE_LEFT "5.0000000000"
*DISP_RANGE_LOGCUTOFF "0.0100000000"
*DISP_RANGE_RIGHT "65.0000000000"
*DISP_RANGE_TOP "5453.4000000000"
*DISP_SCALE_MODE_Y "0.0000000000"
*DISP_TAB_NAME "Theta/2-Theta"
*DISP_TITLE_Y "Intensity"
*DISP_UNIT_Y "CPS"
*DISP_WINDOW_NAME "MSG_MACROENGINE"
*FILE_COMMENT " "
*FILE_MD5 ""
*FILE_MEMO " "
*FILE_OPERATOR "Administrator"
*FILE_PART_ID "MEAS_PBEA_00223"
*FILE_SAMPLE " "
*FILE_TYPE "RAS_RAW"
*FILE_USERGROUP "System Manager"
*FILE_VERSION "1.0000000000"
*HW_ATTACHMENT_ID "ATT1031"
*HW_ATTACHMENT_NAME "6サンプルチェンジャ|ASC-6"
*HW_COUNTER_ID-0 "CUT0021"
*HW_COUNTER_ID-1 "CUT0020"
*HW_COUNTER_ID-2 "CUT0020"
*HW_COUNTER_ID-3 "CMC0021"
*HW_COUNTER_NAME-0 "SC-70|SC-70"
*HW_COUNTER_NAME-1 "None|None"
*HW_COUNTER_NAME-2 "None|None"
*HW_COUNTER_NAME-3 "検出器モノクロメータ|Detector monochromator"
*HW_COUNTER_SELECT_NAME "SC-70|SC-70"
*HW_ECP_HV "671.5000000000"
*HW_ECP_HV_UNIT "V"
*HW_GONIOMETER_ID "GON0070"
*HW_GONIOMETER_NAME "MiniFlex 300/600|MiniFlex 300/600"
*HW_GONIOMETER_RADIUS-0 "79.0"
*HW_GONIOMETER_RADIUS-1 "91.5"
*HW_GONIOMETER_RADIUS-2 "150.0"
*HW_GONIOMETER_RADIUS-3 "0"
*HW_GONIOMETER_RADIUS-4 "103.4"
*HW_GONIOMETER_RADIUS-5 "150.0"
*HW_GONIOMETER_RADIUS-6 "46.6"
*HW_GONIOMETER_RADIUS-7 "160.0"
*HW_I_OPT_ID-0 "ISL0021"
*HW_I_OPT_ID-1 "ISO0021"
*HW_I_OPT_NAME-0 "発散スリット|Divergence slit"
*HW_I_OPT_NAME-1 "入射平行スリット|Incident parallel slit"
*HW_R_ATTENUATER_AUTOMODE "0"
*HW_R_OPT_ID-0 "RSS0021"
*HW_R_OPT_ID-1 "RSO0021"
*HW_R_OPT_ID-2 "RRS0021"
*HW_R_OPT_NAME-0 "散乱スリット|Scattering slit"
*HW_R_OPT_NAME-1 "受光平行スリット|Receiving soller slit"
*HW_R_OPT_NAME-2 "受光スリット|Receiving slit"
*HW_SAMPLE_HOLDER_ID "SMP0000"
*HW_SAMPLE_HOLDER_NAME "無し|None"
*HW_XG_CURRENT_MAX "15"
*HW_XG_CURRENT_MIN "2"
*HW_XG_CURRENT_RESOLUTION "1"
*HW_XG_CURRENT_UNIT "mA"
*HW_XG_FOCUS "1mm x 10mm"
*HW_XG_FOCUS_TYPE "Normal"
*HW_XG_ID "1060"
*HW_XG_NAME "300W/600W 封入管-B|300W/600W Sealed tube-B"
*HW_XG_TARGET_ATOMIC_NUMBER "29.0000000000"
*HW_XG_TARGET_NAME "Cu"
*HW_XG_TYPE "Hermetic"
*HW_XG_VOLTAGE_MAX "40"
*HW_XG_VOLTAGE_MIN "20"
*HW_XG_VOLTAGE_RESOLUTION "1"
*HW_XG_VOLTAGE_UNIT "kV"
*HW_XG_WATT_MAX "0.600"
*HW_XG_WATT_UNIT "kW"
*HW_XG_WAVE_LENGTH_ALPHA1 "1.540593"
*HW_XG_WAVE_LENGTH_ALPHA2 "1.544414"
*HW_XG_WAVE_LENGTH_BETA "1.392250"
*MEAS_COND_AXIS_NAME-0 "Theta/2-Theta"
*MEAS_COND_AXIS_NAME-1 "Spin"
*MEAS_COND_AXIS_NAME-2 "Change"
*MEAS_COND_AXIS_NAME-3 "Soller(inc.)"
*MEAS_COND_AXIS_NAME-4 "IHS"
*MEAS_COND_AXIS_NAME-5 "DS"
*MEAS_COND_AXIS_NAME-6 "SS"
*MEAS_COND_AXIS_NAME-7 "Soller(rec.)"
*MEAS_COND_AXIS_NAME-8 "RS"
*MEAS_COND_AXIS_NAME-9 "Filter"
*MEAS_COND_AXIS_NAME-10 "Monochromator"
*MEAS_COND_AXIS_NAME-11 "HV"
*MEAS_COND_AXIS_NAME-12 "PHA"
*MEAS_COND_AXIS_NAME_INTERNAL-0 "TwoThetaTheta"
*MEAS_COND_AXIS_NAME_INTERNAL-1 "Spin"
*MEAS_COND_AXIS_NAME_INTERNAL-2 "Change"
*MEAS_COND_AXIS_NAME_INTERNAL-3 "IncidentSollerSlit"
*MEAS_COND_AXIS_NAME_INTERNAL-4 "IncidentAxdSlit"
*MEAS_COND_AXIS_NAME_INTERNAL-5 "IncidentSlitBox"
*MEAS_COND_AXIS_NAME_INTERNAL-6 "ReceivingSlitBox1"
*MEAS_COND_AXIS_NAME_INTERNAL-7 "ReceivingSollerSlit"
*MEAS_COND_AXIS_NAME_INTERNAL-8 "ReceivingSlitBox2"
*MEAS_COND_AXIS_NAME_INTERNAL-9 "Filter"
*MEAS_COND_AXIS_NAME_INTERNAL-10 "CounterMonochromator"
*MEAS_COND_AXIS_NAME_INTERNAL-11 "HV"
*MEAS_COND_AXIS_NAME_INTERNAL-12 "PHA"
*MEAS_COND_AXIS_NAME_MAGICNO-0 "268632064.0000000000"
*MEAS_COND_AXIS_NAME_MAGICNO-1 "16842752.0000000000"
*MEAS_COND_AXIS_NAME_MAGICNO-2 "16842752.0000000000"
*MEAS_COND_AXIS_NAME_MAGICNO-3 "20971521.0000000000"
*MEAS_COND_AXIS_NAME_MAGICNO-4 "22020097.0000000000"
*MEAS_COND_AXIS_NAME_MAGICNO-5 "22020097.0000000000"
*MEAS_COND_AXIS_NAME_MAGICNO-6 "23068673.0000000000"
*MEAS_COND_AXIS_NAME_MAGICNO-7 "20971521.0000000000"
*MEAS_COND_AXIS_NAME_MAGICNO-8 "23068673.0000000000"
*MEAS_COND_AXIS_NAME_MAGICNO-9 "20971521.0000000000"
*MEAS_COND_AXIS_NAME_MAGICNO-10 "20971521.0000000000"
*MEAS_COND_AXIS_NAME_MAGICNO-11 "0.0000000000"
*MEAS_COND_AXIS_NAME_MAGICNO-12 "0.0000000000"
*MEAS_COND_AXIS_OFFSET-0 "0.0000000000"
*MEAS_COND_AXIS_OFFSET-1 "-"
*MEAS_COND_AXIS_OFFSET-2 "-"
*MEAS_COND_AXIS_OFFSET-3 "-"
*MEAS_COND_AXIS_OFFSET-4 "-"
*MEAS_COND_AXIS_OFFSET-5 "-"
*MEAS_COND_AXIS_OFFSET-6 "-"
*MEAS_COND_AXIS_OFFSET-7 "-"
*MEAS_COND_AXIS_OFFSET-8 "-"
*MEAS_COND_AXIS_OFFSET-9 "-"
*MEAS_COND_AXIS_OFFSET-10 "-"
*MEAS_COND_AXIS_OFFSET-11 "-"
*MEAS_COND_AXIS_OFFSET-12 "-"
*MEAS_COND_AXIS_POSITION-0 "65.0000000000"
*MEAS_COND_AXIS_POSITION-1 "0.0000000000"
*MEAS_COND_AXIS_POSITION-2 "2.0000000000"
*MEAS_COND_AXIS_POSITION-3 "5.0deg"
*MEAS_COND_AXIS_POSITION-4 "10.0mm"
*MEAS_COND_AXIS_POSITION-5 "1.250deg"
*MEAS_COND_AXIS_POSITION-6 "1.250deg"
*MEAS_COND_AXIS_POSITION-7 "5.0deg"
*MEAS_COND_AXIS_POSITION-8 "0.3mm"
*MEAS_COND_AXIS_POSITION-9 "None"
*MEAS_COND_AXIS_POSITION-10 "Bent"
*MEAS_COND_AXIS_POSITION-11 "671.5000000000"
*MEAS_COND_AXIS_POSITION-12 "551.2500000000"
*MEAS_COND_AXIS_UNIT-0 "deg"
*MEAS_COND_AXIS_UNIT-1 ""
*MEAS_COND_AXIS_UNIT-2 ""
*MEAS_COND_AXIS_UNIT-3 ""
*MEAS_COND_AXIS_UNIT-4 ""
*MEAS_COND_AXIS_UNIT-5 ""
*MEAS_COND_AXIS_UNIT-6 ""
*MEAS_COND_AXIS_UNIT-7 ""
*MEAS_COND_AXIS_UNIT-8 ""
*MEAS_COND_AXIS_UNIT-9 ""
*MEAS_COND_AXIS_UNIT-10 ""
*MEAS_COND_AXIS_UNIT-11 "V"
*MEAS_COND_AXIS_UNIT-12 "mV"
*MEAS_COND_CORRECTION_SLIT_COUNTERMONO "None"
*MEAS_COND_CORRECTION_SLIT_DS "1.250deg"
*MEAS_COND_CORRECTION_SLIT_FILTER "None"
*MEAS_COND_CORRECTION_SLIT_IHS "10.0mm"
*MEAS_COND_CORRECTION_SLIT_RS "0.3mm"
*MEAS_COND_CORRECTION_SLIT_SOLLER_INC "5.0deg"
*MEAS_COND_CORRECTION_SLIT_SOLLER_REC "5.0deg"
*MEAS_COND_CORRECTION_SLIT_SS "1.250deg"
*MEAS_COND_COUNTER_CNTLOSS_CORR "0.0000000000"
*MEAS_COND_COUNTER_PHABASE "551.2500000000"
*MEAS_COND_COUNTER_PHAWINDOW "926.2500000000"
*MEAS_COND_COUNTER_PHA_UNIT "mV"
*MEAS_COND_COUNTER_TAUDIFF "0.2500000000"
*MEAS_COND_COUNTER_TAUINT "0.7500000000"
*MEAS_COND_IRRADIATION_MODE "OFF"
*MEAS_COND_IRRADIATION_WIDTH ""
*MEAS_COND_OPT_ATTR " "
*MEAS_COND_OPT_NAME ""
*MEAS_COND_UNSYMMETRIC_MODE "OFF"
*MEAS_COND_XG_CURRENT "15.0000000000"
*MEAS_COND_XG_VOLTAGE "40.0000000000"
*MEAS_COND_XG_WAVE_TYPE "Ka"
*MEAS_DATA_COUNT "3001.0000000000"
*MEAS_SCAN_AXIS_X "Theta/2-Theta"
*MEAS_SCAN_AXIS_X_INTERNAL "TwoThetaTheta"
*MEAS_SCAN_END_TIME "05/07/25 20:41:56"
*MEAS_SCAN_MODE "STEP"
*MEAS_SCAN_MONITOR "0"
*MEAS_SCAN_RESOLUTION_X "0.0025"
*MEAS_SCAN_SPEED "2.00"
*MEAS_SCAN_SPEED_UNIT "sec."
*MEAS_SCAN_SPEED_USER "2.00"
*MEAS_SCAN_START "5.0000000000"
*MEAS_SCAN_START_TIME "05/07/25 18:56:40"
*MEAS_SCAN_STEP "0.0200000000"
*MEAS_SCAN_STOP "65.0000000000"
*MEAS_SCAN_UNIT_X "deg"
*MEAS_SCAN_UNIT_Y "counts"
*SLIT_SYSTEM "0"
*RAS_HEADER_END
*RAS_INT_START
5.0000 766.0000 1.0000
5.0200 733.0000 1.0000
5.0400 756.0000 1.0000
5.0600 852.0000 1.0000
5.0800 882.0000 1.0000
5.1000 798.0000 1.0000
5.1200 835.0000 1.0000
5.1400 825.0000 1.0000
5.1600 771.0000 1.0000
5.1800 797.0000 1.0000
5.2000 740.0000 1.0000
5.2200 837.0000 1.0000
5.2400 791.0000 1.0000
5.2600 728.0000 1.0000
5.2800 721.0000 1.0000
5.3000 676.0000 1.0000
5.3200 660.0000 1.0000
5.3400 717.0000 1.0000
5.3600 742.0000 1.0000
5.3800 781.0000 1.0000
5.4000 820.0000 1.0000
5.4200 737.0000 1.0000
5.4400 704.0000 1.0000
5.4600 674.0000 1.0000
5.4800 746.0000 1.0000
5.5000 750.0000 1.0000
5.5200 673.0000 1.0000
5.5400 715.0000 1.0000
5.5600 689.0000 1.0000
5.5800 679.0000 1.0000
5.6000 684.0000 1.0000
5.6200 718.0000 1.0000
5.6400 639.0000 1.0000
5.6600 647.0000 1.0000
5.6800 710.0000 1.0000
5.7000 717.0000 1.0000
5.7200 646.0000 1.0000
5.7400 634.0000 1.0000
5.7600 710.0000 1.0000
5.7800 611.0000 1.0000
5.8000 650.0000 1.0000
5.8200 661.0000 1.0000
5.8400 643.0000 1.0000
5.8600 688.0000 1.0000
5.8800 667.0000 1.0000
5.9000 630.0000 1.0000
5.9200 637.0000 1.0000
5.9400 689.0000 1.0000
5.9600 664.0000 1.0000
5.9800 668.0000 1.0000
6.0000 647.0000 1.0000
6.0200 596.0000 1.0000
6.0400 615.0000 1.0000
6.0600 635.0000 1.0000
6.0800 584.0000 1.0000
6.1000 551.0000 1.0000
6.1200 558.0000 1.0000
6.1400 584.0000 1.0000
6.1600 582.0000 1.0000
6.1800 629.0000 1.0000
6.2000 569.0000 1.0000
6.2200 589.0000 1.0000
6.2400 572.0000 1.0000
6.2600 531.0000 1.0000
6.2800 523.0000 1.0000
6.3000 525.0000 1.0000
6.3200 553.0000 1.0000
6.3400 530.0000 1.0000
6.3600 564.0000 1.0000
6.3800 597.0000 1.0000
6.4000 528.0000 1.0000
6.4200 559.0000 1.0000
6.4400 513.0000 1.0000
6.4600 509.0000 1.0000
6.4800 502.0000 1.0000
6.5000 497.0000 1.0000
6.5200 504.0000 1.0000
6.5400 523.0000 1.0000
6.5600 515.0000 1.0000
6.5800 517.0000 1.0000
6.6000 532.0000 1.0000
6.6200 491.0000 1.0000
6.6400 509.0000 1.0000
6.6600 508.0000 1.0000
6.6800 495.0000 1.0000
6.7000 474.0000 1.0000
6.7200 478.0000 1.0000
6.7400 479.0000 1.0000
6.7600 500.0000 1.0000
6.7800 499.0000 1.0000
6.8000 481.0000 1.0000
6.8200 471.0000 1.0000
6.8400 489.0000 1.0000
6.8600 520.0000 1.0000
6.8800 472.0000 1.0000
6.9000 474.0000 1.0000
6.9200 491.0000 1.0000
6.9400 463.0000 1.0000
6.9600 424.0000 1.0000
6.9800 450.0000 1.0000
7.0000 483.0000 1.0000
7.0200 479.0000 1.0000
7.0400 446.0000 1.0000
7.0600 426.0000 1.0000
7.0800 425.0000 1.0000
7.1000 431.0000 1.0000
7.1200 467.0000 1.0000
7.1400 453.0000 1.0000
7.1600 446.0000 1.0000
7.1800 468.0000 1.0000
7.2000 446.0000 1.0000
7.2200 455.0000 1.0000
7.2400 470.0000 1.0000
7.2600 414.0000 1.0000
7.2800 408.0000 1.0000
7.3000 422.0000 1.0000
7.3200 426.0000 1.0000
7.3400 428.0000 1.0000
7.3600 419.0000 1.0000
7.3800 390.0000 1.0000
7.4000 404.0000 1.0000
7.4200 433.0000 1.0000
7.4400 394.0000 1.0000
7.4600 416.0000 1.0000
7.4800 422.0000 1.0000
7.5000 408.0000 1.0000
7.5200 422.0000 1.0000
7.5400 451.0000 1.0000
7.5600 447.0000 1.0000
7.5800 434.0000 1.0000
7.6000 447.0000 1.0000
7.6200 456.0000 1.0000
7.6400 450.0000 1.0000
7.6600 446.0000 1.0000
7.6800 428.0000 1.0000
7.7000 400.0000 1.0000
7.7200 409.0000 1.0000
7.7400 393.0000 1.0000
7.7600 385.0000 1.0000
7.7800 406.0000 1.0000
7.8000 359.0000 1.0000
7.8200 404.0000 1.0000
7.8400 436.0000 1.0000
7.8600 452.0000 1.0000
7.8800 488.0000 1.0000
7.9000 461.0000 1.0000
7.9200 462.0000 1.0000
7.9400 480.0000 1.0000
7.9600 432.0000 1.0000
7.9800 435.0000 1.0000
8.0000 441.0000 1.0000
8.0200 471.0000 1.0000
8.0400 469.0000 1.0000
8.0600 468.0000 1.0000
8.0800 493.0000 1.0000
8.1000 505.0000 1.0000
8.1200 555.0000 1.0000
8.1400 544.0000 1.0000
8.1600 554.0000 1.0000
8.1800 578.0000 1.0000
8.2000 547.0000 1.0000
8.2200 609.0000 1.0000
8.2400 626.0000 1.0000
8.2600 647.0000 1.0000
8.2800 715.0000 1.0000
8.3000 732.0000 1.0000
8.3200 734.0000 1.0000
8.3400 780.0000 1.0000
8.3600 856.0000 1.0000
8.3800 914.0000 1.0000
8.4000 981.0000 1.0000
8.4200 1058.0000 1.0000
8.4400 1171.0000 1.0000
8.4600 1332.0000 1.0000
8.4800 1459.0000 1.0000
8.5000 1792.0000 1.0000
8.5200 1974.0000 1.0000
8.5400 2168.0000 1.0000
8.5600 2316.0000 1.0000
8.5800 2385.0000 1.0000
8.6000 2251.0000 1.0000
8.6200 2033.0000 1.0000
8.6400 1752.0000 1.0000
8.6600 1396.0000 1.0000
8.6800 1072.0000 1.0000
8.7000 855.0000 1.0000
8.7200 679.0000 1.0000
8.7400 569.0000 1.0000
8.7600 538.0000 1.0000
8.7800 498.0000 1.0000
8.8000 484.0000 1.0000
8.8200 449.0000 1.0000
8.8400 446.0000 1.0000
8.8600 405.0000 1.0000
8.8800 366.0000 1.0000
8.9000 357.0000 1.0000
8.9200 362.0000 1.0000
8.9400 334.0000 1.0000
8.9600 315.0000 1.0000
8.9800 356.0000 1.0000
9.0000 328.0000 1.0000
9.0200 327.0000 1.0000
9.0400 314.0000 1.0000
9.0600 324.0000 1.0000
9.0800 309.0000 1.0000
9.1000 296.0000 1.0000
9.1200 314.0000 1.0000
9.1400 282.0000 1.0000
9.1600 306.0000 1.0000
9.1800 313.0000 1.0000
9.2000 272.0000 1.0000
9.2200 268.0000 1.0000
9.2400 267.0000 1.0000
9.2600 278.0000 1.0000
9.2800 284.0000 1.0000
9.3000 263.0000 1.0000
9.3200 285.0000 1.0000
9.3400 268.0000 1.0000
9.3600 278.0000 1.0000
9.3800 255.0000 1.0000
9.4000 262.0000 1.0000
9.4200 252.0000 1.0000
9.4400 275.0000 1.0000
9.4600 277.0000 1.0000
9.4800 274.0000 1.0000
9.5000 297.0000 1.0000
9.5200 291.0000 1.0000
9.5400 261.0000 1.0000
9.5600 237.0000 1.0000
9.5800 211.0000 1.0000
9.6000 308.0000 1.0000
9.6200 276.0000 1.0000
9.6400 262.0000 1.0000
9.6600 257.0000 1.0000
9.6800 236.0000 1.0000
9.7000 250.0000 1.0000
9.7200 265.0000 1.0000
9.7400 251.0000 1.0000
9.7600 230.0000 1.0000
9.7800 222.0000 1.0000
9.8000 216.0000 1.0000
9.8200 234.0000 1.0000
9.8400 232.0000 1.0000
9.8600 267.0000 1.0000
9.8800 280.0000 1.0000
9.9000 223.0000 1.0000
9.9200 256.0000 1.0000
9.9400 261.0000 1.0000
9.9600 266.0000 1.0000
9.9800 260.0000 1.0000
10.0000 237.0000 1.0000
10.0200 231.0000 1.0000
10.0400 238.0000 1.0000
10.0600 240.0000 1.0000
10.0800 269.0000 1.0000
10.1000 255.0000 1.0000
10.1200 240.0000 1.0000
10.1400 251.0000 1.0000
10.1600 245.0000 1.0000
10.1800 264.0000 1.0000
10.2000 253.0000 1.0000
10.2200 273.0000 1.0000
10.2400 232.0000 1.0000
10.2600 319.0000 1.0000
10.2800 236.0000 1.0000
10.3000 227.0000 1.0000
10.3200 252.0000 1.0000
10.3400 217.0000 1.0000
10.3600 211.0000 1.0000
10.3800 250.0000 1.0000
10.4000 214.0000 1.0000
10.4200 233.0000 1.0000
10.4400 202.0000 1.0000
10.4600 220.0000 1.0000
10.4800 246.0000 1.0000
10.5000 201.0000 1.0000
10.5200 224.0000 1.0000
10.5400 262.0000 1.0000
10.5600 218.0000 1.0000
10.5800 214.0000 1.0000
10.6000 249.0000 1.0000
10.6200 229.0000 1.0000
10.6400 204.0000 1.0000
10.6600 191.0000 1.0000
10.6800 252.0000 1.0000
10.7000 217.0000 1.0000
10.7200 220.0000 1.0000
10.7400 230.0000 1.0000
10.7600 207.0000 1.0000
10.7800 210.0000 1.0000
10.8000 201.0000 1.0000
10.8200 206.0000 1.0000
10.8400 224.0000 1.0000
10.8600 229.0000 1.0000
10.8800 192.0000 1.0000
10.9000 247.0000 1.0000
10.9200 216.0000 1.0000
10.9400 217.0000 1.0000
10.9600 232.0000 1.0000
10.9800 206.0000 1.0000
11.0000 216.0000 1.0000
11.0200 199.0000 1.0000
11.0400 215.0000 1.0000
11.0600 235.0000 1.0000
11.0800 213.0000 1.0000
11.1000 177.0000 1.0000
11.1200 222.0000 1.0000
11.1400 198.0000 1.0000
11.1600 183.0000 1.0000
11.1800 194.0000 1.0000
11.2000 190.0000 1.0000
11.2200 172.0000 1.0000
11.2400 203.0000 1.0000
11.2600 189.0000 1.0000
11.2800 202.0000 1.0000
11.3000 174.0000 1.0000
11.3200 172.0000 1.0000
11.3400 195.0000 1.0000
11.3600 186.0000 1.0000
11.3800 176.0000 1.0000
11.4000 162.0000 1.0000
11.4200 201.0000 1.0000
11.4400 183.0000 1.0000
11.4600 173.0000 1.0000
11.4800 195.0000 1.0000
11.5000 176.0000 1.0000
11.5200 192.0000 1.0000
11.5400 209.0000 1.0000
11.5600 204.0000 1.0000
11.5800 210.0000 1.0000
11.6000 176.0000 1.0000
11.6200 154.0000 1.0000
11.6400 185.0000 1.0000
11.6600 159.0000 1.0000
11.6800 183.0000 1.0000
11.7000 174.0000 1.0000
11.7200 179.0000 1.0000
11.7400 167.0000 1.0000
11.7600 138.0000 1.0000
11.7800 168.0000 1.0000
11.8000 160.0000 1.0000
11.8200 163.0000 1.0000
11.8400 169.0000 1.0000
11.8600 172.0000 1.0000
11.8800 165.0000 1.0000
11.9000 189.0000 1.0000
11.9200 182.0000 1.0000
11.9400 169.0000 1.0000
11.9600 175.0000 1.0000
11.9800 200.0000 1.0000
12.0000 175.0000 1.0000
12.0200 193.0000 1.0000
12.0400 180.0000 1.0000
12.0600 155.0000 1.0000
12.0800 161.0000 1.0000
12.1000 155.0000 1.0000
12.1200 157.0000 1.0000
12.1400 182.0000 1.0000
12.1600 185.0000 1.0000
12.1800 174.0000 1.0000
12.2000 198.0000 1.0000
12.2200 197.0000 1.0000
12.2400 186.0000 1.0000
12.2600 198.0000 1.0000
12.2800 190.0000 1.0000
12.3000 201.0000 1.0000
12.3200 178.0000 1.0000
12.3400 174.0000 1.0000
12.3600 183.0000 1.0000
12.3800 169.0000 1.0000
12.4000 183.0000 1.0000
12.4200 167.0000 1.0000
12.4400 170.0000 1.0000
12.4600 158.0000 1.0000
12.4800 172.0000 1.0000
12.5000 175.0000 1.0000
12.5200 145.0000 1.0000
12.5400 122.0000 1.0000
12.5600 158.0000 1.0000
12.5800 162.0000 1.0000
12.6000 140.0000 1.0000
12.6200 139.0000 1.0000
12.6400 175.0000 1.0000
12.6600 186.0000 1.0000
12.6800 156.0000 1.0000
12.7000 153.0000 1.0000
12.7200 166.0000 1.0000
12.7400 191.0000 1.0000
12.7600 176.0000 1.0000
12.7800 182.0000 1.0000
12.8000 194.0000 1.0000
12.8200 203.0000 1.0000
12.8400 220.0000 1.0000
12.8600 209.0000 1.0000
12.8800 205.0000 1.0000
12.9000 215.0000 1.0000
12.9200 235.0000 1.0000
12.9400 215.0000 1.0000
12.9600 209.0000 1.0000
12.9800 182.0000 1.0000
13.0000 201.0000 1.0000
13.0200 207.0000 1.0000
13.0400 171.0000 1.0000
13.0600 158.0000 1.0000
13.0800 170.0000 1.0000
13.1000 166.0000 1.0000
13.1200 150.0000 1.0000
13.1400 144.0000 1.0000
13.1600 154.0000 1.0000
13.1800 156.0000 1.0000
13.2000 181.0000 1.0000
13.2200 174.0000 1.0000
13.2400 158.0000 1.0000
13.2600 198.0000 1.0000
13.2800 232.0000 1.0000
13.3000 204.0000 1.0000
13.3200 219.0000 1.0000
13.3400 264.0000 1.0000
13.3600 276.0000 1.0000
13.3800 266.0000 1.0000
13.4000 334.0000 1.0000
13.4200 351.0000 1.0000
13.4400 342.0000 1.0000
13.4600 364.0000 1.0000
13.4800 376.0000 1.0000
13.5000 340.0000 1.0000
13.5200 347.0000 1.0000
13.5400 333.0000 1.0000
13.5600 339.0000 1.0000
13.5800 351.0000 1.0000
13.6000 394.0000 1.0000
13.6200 485.0000 1.0000
13.6400 530.0000 1.0000
13.6600 532.0000 1.0000
13.6800 514.0000 1.0000
13.7000 501.0000 1.0000
13.7200 479.0000 1.0000
13.7400 421.0000 1.0000
13.7600 351.0000 1.0000
13.7800 297.0000 1.0000
13.8000 266.0000 1.0000
13.8200 236.0000 1.0000
13.8400 203.0000 1.0000
13.8600 185.0000 1.0000
13.8800 173.0000 1.0000
13.9000 163.0000 1.0000
13.9200 157.0000 1.0000
13.9400 146.0000 1.0000
13.9600 151.0000 1.0000
13.9800 159.0000 1.0000
14.0000 147.0000 1.0000
14.0200 150.0000 1.0000
14.0400 149.0000 1.0000
14.0600 141.0000 1.0000
14.0800 137.0000 1.0000
14.1000 129.0000 1.0000
14.1200 147.0000 1.0000
14.1400 140.0000 1.0000
14.1600 124.0000 1.0000
14.1800 128.0000 1.0000
14.2000 140.0000 1.0000
14.2200 145.0000 1.0000
14.2400 131.0000 1.0000
14.2600 123.0000 1.0000
14.2800 126.0000 1.0000
14.3000 134.0000 1.0000
14.3200 140.0000 1.0000
14.3400 144.0000 1.0000
14.3600 141.0000 1.0000
14.3800 146.0000 1.0000
14.4000 148.0000 1.0000
14.4200 131.0000 1.0000
14.4400 139.0000 1.0000
14.4600 145.0000 1.0000
14.4800 140.0000 1.0000
14.5000 141.0000 1.0000
14.5200 142.0000 1.0000
14.5400 160.0000 1.0000
14.5600 172.0000 1.0000
14.5800 167.0000 1.0000
14.6000 178.0000 1.0000
14.6200 177.0000 1.0000
14.6400 185.0000 1.0000
14.6600 207.0000 1.0000
14.6800 201.0000 1.0000
14.7000 205.0000 1.0000
14.7200 216.0000 1.0000
14.7400 216.0000 1.0000
14.7600 228.0000 1.0000
14.7800 239.0000 1.0000
14.8000 225.0000 1.0000
14.8200 220.0000 1.0000
14.8400 212.0000 1.0000
14.8600 195.0000 1.0000
14.8800 186.0000 1.0000
14.9000 187.0000 1.0000
14.9200 181.0000 1.0000
14.9400 170.0000 1.0000
14.9600 181.0000 1.0000
14.9800 180.0000 1.0000
15.0000 157.0000 1.0000
15.0200 145.0000 1.0000
15.0400 164.0000 1.0000
15.0600 170.0000 1.0000
15.0800 155.0000 1.0000
15.1000 153.0000 1.0000
15.1200 141.0000 1.0000
15.1400 122.0000 1.0000
15.1600 132.0000 1.0000
15.1800 137.0000 1.0000
15.2000 118.0000 1.0000
15.2200 128.0000 1.0000
15.2400 128.0000 1.0000
15.2600 119.0000 1.0000
15.2800 135.0000 1.0000
15.3000 140.0000 1.0000
15.3200 133.0000 1.0000
15.3400 139.0000 1.0000
15.3600 135.0000 1.0000
15.3800 133.0000 1.0000
15.4000 135.0000 1.0000
15.4200 137.0000 1.0000
15.4400 139.0000 1.0000
15.4600 141.0000 1.0000
15.4800 146.0000 1.0000
15.5000 141.0000 1.0000
15.5200 141.0000 1.0000
15.5400 155.0000 1.0000
15.5600 167.0000 1.0000
15.5800 178.0000 1.0000
15.6000 178.0000 1.0000
15.6200 161.0000 1.0000
15.6400 154.0000 1.0000
15.6600 148.0000 1.0000
15.6800 139.0000 1.0000
15.7000 134.0000 1.0000
15.7200 144.0000 1.0000
15.7400 146.0000 1.0000
15.7600 141.0000 1.0000
15.7800 128.0000 1.0000
15.8000 119.0000 1.0000
15.8200 116.0000 1.0000
15.8400 122.0000 1.0000
15.8600 123.0000 1.0000
15.8800 126.0000 1.0000
15.9000 115.0000 1.0000
15.9200 109.0000 1.0000
15.9400 112.0000 1.0000
15.9600 107.0000 1.0000
15.9800 116.0000 1.0000
16.0000 123.0000 1.0000
16.0200 119.0000 1.0000
16.0400 118.0000 1.0000
16.0600 120.0000 1.0000
16.0800 118.0000 1.0000
16.1000 122.0000 1.0000
16.1200 130.0000 1.0000
16.1400 132.0000 1.0000
16.1600 114.0000 1.0000
16.1800 110.0000 1.0000
16.2000 108.0000 1.0000
16.2200 119.0000 1.0000
16.2400 127.0000 1.0000
16.2600 118.0000 1.0000
16.2800 129.0000 1.0000
16.3000 126.0000 1.0000
16.3200 123.0000 1.0000
16.3400 116.0000 1.0000
16.3600 115.0000 1.0000
16.3800 113.0000 1.0000
16.4000 107.0000 1.0000
16.4200 113.0000 1.0000
16.4400 129.0000 1.0000
16.4600 126.0000 1.0000
16.4800 122.0000 1.0000
16.5000 128.0000 1.0000
16.5200 122.0000 1.0000
16.5400 129.0000 1.0000
16.5600 127.0000 1.0000
16.5800 122.0000 1.0000
16.6000 102.0000 1.0000
16.6200 114.0000 1.0000
16.6400 118.0000 1.0000
16.6600 123.0000 1.0000
16.6800 124.0000 1.0000
16.7000 113.0000 1.0000
16.7200 121.0000 1.0000
16.7400 128.0000 1.0000
16.7600 110.0000 1.0000
16.7800 111.0000 1.0000
16.8000 112.0000 1.0000
16.8200 126.0000 1.0000
16.8400 130.0000 1.0000
16.8600 119.0000 1.0000
16.8800 112.0000 1.0000
16.9000 109.0000 1.0000
16.9200 112.0000 1.0000
16.9400 119.0000 1.0000
16.9600 125.0000 1.0000
16.9800 134.0000 1.0000
17.0000 111.0000 1.0000
17.0200 112.0000 1.0000
17.0400 109.0000 1.0000
17.0600 116.0000 1.0000
17.0800 126.0000 1.0000
17.1000 124.0000 1.0000
17.1200 120.0000 1.0000
17.1400 115.0000 1.0000
17.1600 121.0000 1.0000
17.1800 124.0000 1.0000
17.2000 130.0000 1.0000
17.2200 116.0000 1.0000
17.2400 123.0000 1.0000
17.2600 140.0000 1.0000
17.2800 121.0000 1.0000
17.3000 127.0000 1.0000
17.3200 122.0000 1.0000
17.3400 120.0000 1.0000
17.3600 119.0000 1.0000
17.3800 136.0000 1.0000
17.4000 140.0000 1.0000
17.4200 153.0000 1.0000
17.4400 147.0000 1.0000
17.4600 136.0000 1.0000
17.4800 139.0000 1.0000
17.5000 151.0000 1.0000
17.5200 143.0000 1.0000
17.5400 145.0000 1.0000
17.5600 139.0000 1.0000
17.5800 123.0000 1.0000
17.6000 115.0000 1.0000
17.6200 115.0000 1.0000
17.6400 109.0000 1.0000
17.6600 129.0000 1.0000
17.6800 113.0000 1.0000
17.7000 129.0000 1.0000
17.7200 126.0000 1.0000
17.7400 119.0000 1.0000
17.7600 108.0000 1.0000
17.7800 126.0000 1.0000
17.8000 127.0000 1.0000
17.8200 125.0000 1.0000
17.8400 129.0000 1.0000
17.8600 134.0000 1.0000
17.8800 128.0000 1.0000
17.9000 125.0000 1.0000
17.9200 119.0000 1.0000
17.9400 107.0000 1.0000
17.9600 115.0000 1.0000
17.9800 114.0000 1.0000
18.0000 114.0000 1.0000
18.0200 129.0000 1.0000
18.0400 122.0000 1.0000
18.0600 122.0000 1.0000
18.0800 113.0000 1.0000
18.1000 106.0000 1.0000
18.1200 122.0000 1.0000
18.1400 115.0000 1.0000
18.1600 107.0000 1.0000
18.1800 118.0000 1.0000
18.2000 127.0000 1.0000
18.2200 109.0000 1.0000
18.2400 114.0000 1.0000
18.2600 119.0000 1.0000
18.2800 106.0000 1.0000
18.3000 129.0000 1.0000
18.3200 114.0000 1.0000
18.3400 132.0000 1.0000
18.3600 134.0000 1.0000
18.3800 123.0000 1.0000
18.4000 126.0000 1.0000
18.4200 120.0000 1.0000
18.4400 132.0000 1.0000
18.4600 117.0000 1.0000
18.4800 117.0000 1.0000
18.5000 107.0000 1.0000
18.5200 118.0000 1.0000
18.5400 129.0000 1.0000
18.5600 127.0000 1.0000
18.5800 125.0000 1.0000
18.6000 113.0000 1.0000
18.6200 114.0000 1.0000
18.6400 121.0000 1.0000
18.6600 134.0000 1.0000
18.6800 125.0000 1.0000
18.7000 126.0000 1.0000
18.7200 142.0000 1.0000
18.7400 140.0000 1.0000
18.7600 126.0000 1.0000
18.7800 124.0000 1.0000
18.8000 133.0000 1.0000
18.8200 135.0000 1.0000
18.8400 144.0000 1.0000
18.8600 146.0000 1.0000
18.8800 153.0000 1.0000
18.9000 153.0000 1.0000
18.9200 146.0000 1.0000
18.9400 157.0000 1.0000
18.9600 141.0000 1.0000
18.9800 138.0000 1.0000
19.0000 158.0000 1.0000
19.0200 170.0000 1.0000
19.0400 167.0000 1.0000
19.0600 191.0000 1.0000
19.0800 198.0000 1.0000
19.1000 175.0000 1.0000
19.1200 183.0000 1.0000
19.1400 171.0000 1.0000
19.1600 168.0000 1.0000
19.1800 148.0000 1.0000
19.2000 153.0000 1.0000
19.2200 171.0000 1.0000
19.2400 150.0000 1.0000
19.2600 146.0000 1.0000
19.2800 143.0000 1.0000
19.3000 147.0000 1.0000
19.3200 146.0000 1.0000
19.3400 135.0000 1.0000
19.3600 151.0000 1.0000
19.3800 126.0000 1.0000
19.4000 149.0000 1.0000
19.4200 145.0000 1.0000
19.4400 160.0000 1.0000
19.4600 152.0000 1.0000
19.4800 136.0000 1.0000
19.5000 152.0000 1.0000
19.5200 162.0000 1.0000
19.5400 156.0000 1.0000
19.5600 159.0000 1.0000
19.5800 182.0000 1.0000
19.6000 168.0000 1.0000
19.6200 164.0000 1.0000
19.6400 157.0000 1.0000
19.6600 174.0000 1.0000
19.6800 158.0000 1.0000
19.7000 151.0000 1.0000
19.7200 148.0000 1.0000
19.7400 160.0000 1.0000
19.7600 149.0000 1.0000
19.7800 143.0000 1.0000
19.8000 162.0000 1.0000
19.8200 137.0000 1.0000
19.8400 148.0000 1.0000
19.8600 125.0000 1.0000
19.8800 128.0000 1.0000
19.9000 133.0000 1.0000
19.9200 169.0000 1.0000
19.9400 166.0000 1.0000
19.9600 140.0000 1.0000
19.9800 134.0000 1.0000
20.0000 142.0000 1.0000
20.0200 129.0000 1.0000
20.0400 154.0000 1.0000
20.0600 146.0000 1.0000
20.0800 145.0000 1.0000
20.1000 129.0000 1.0000
20.1200 158.0000 1.0000
20.1400 165.0000 1.0000
20.1600 169.0000 1.0000
20.1800 171.0000 1.0000
20.2000 183.0000 1.0000
20.2200 179.0000 1.0000
20.2400 165.0000 1.0000
20.2600 207.0000 1.0000
20.2800 217.0000 1.0000
20.3000 190.0000 1.0000
20.3200 244.0000 1.0000
20.3400 201.0000 1.0000
20.3600 252.0000 1.0000
20.3800 275.0000 1.0000
20.4000 243.0000 1.0000
20.4200 293.0000 1.0000
20.4400 368.0000 1.0000
20.4600 363.0000 1.0000
20.4800 445.0000 1.0000
20.5000 460.0000 1.0000
20.5200 571.0000 1.0000
20.5400 722.0000 1.0000
20.5600 889.0000 1.0000
20.5800 976.0000 1.0000
20.6000 1213.0000 1.0000
20.6200 1511.0000 1.0000
20.6400 1803.0000 1.0000
20.6600 1965.0000 1.0000
20.6800 2050.0000 1.0000
20.7000 1959.0000 1.0000
20.7200 1889.0000 1.0000
20.7400 1644.0000 1.0000
20.7600 1345.0000 1.0000
20.7800 1121.0000 1.0000
20.8000 985.0000 1.0000
20.8200 868.0000 1.0000
20.8400 744.0000 1.0000
20.8600 718.0000 1.0000
20.8800 619.0000 1.0000
20.9000 542.0000 1.0000
20.9200 460.0000 1.0000
20.9400 347.0000 1.0000
20.9600 332.0000 1.0000
20.9800 285.0000 1.0000
21.0000 247.0000 1.0000
21.0200 239.0000 1.0000
21.0400 226.0000 1.0000
21.0600 212.0000 1.0000
21.0800 218.0000 1.0000
21.1000 195.0000 1.0000
21.1200 202.0000 1.0000
21.1400 209.0000 1.0000
21.1600 192.0000 1.0000
21.1800 174.0000 1.0000
21.2000 190.0000 1.0000
21.2200 199.0000 1.0000
21.2400 181.0000 1.0000
21.2600 180.0000 1.0000
21.2800 176.0000 1.0000
21.3000 196.0000 1.0000
21.3200 183.0000 1.0000
21.3400 177.0000 1.0000
21.3600 201.0000 1.0000
21.3800 194.0000 1.0000
21.4000 196.0000 1.0000
21.4200 196.0000 1.0000
21.4400 206.0000 1.0000
21.4600 211.0000 1.0000
21.4800 218.0000 1.0000
21.5000 221.0000 1.0000
21.5200 230.0000 1.0000
21.5400 251.0000 1.0000
21.5600 247.0000 1.0000
21.5800 277.0000 1.0000
21.6000 298.0000 1.0000
21.6200 383.0000 1.0000
21.6400 410.0000 1.0000
21.6600 428.0000 1.0000
21.6800 547.0000 1.0000
21.7000 618.0000 1.0000
21.7200 701.0000 1.0000
21.7400 855.0000 1.0000
21.7600 1005.0000 1.0000
21.7800 1188.0000 1.0000
21.8000 1288.0000 1.0000
21.8200 1447.0000 1.0000
21.8400 1488.0000 1.0000
21.8600 1386.0000 1.0000
21.8800 1241.0000 1.0000
21.9000 1029.0000 1.0000
21.9200 838.0000 1.0000
21.9400 663.0000 1.0000
21.9600 497.0000 1.0000
21.9800 416.0000 1.0000
22.0000 336.0000 1.0000
22.0200 338.0000 1.0000
22.0400 349.0000 1.0000
22.0600 354.0000 1.0000
22.0800 340.0000 1.0000
22.1000 327.0000 1.0000
22.1200 344.0000 1.0000
22.1400 305.0000 1.0000
22.1600 271.0000 1.0000
22.1800 278.0000 1.0000
22.2000 256.0000 1.0000
22.2200 222.0000 1.0000
22.2400 211.0000 1.0000
22.2600 200.0000 1.0000
22.2800 196.0000 1.0000
22.3000 193.0000 1.0000
22.3200 190.0000 1.0000
22.3400 205.0000 1.0000
22.3600 208.0000 1.0000
22.3800 206.0000 1.0000
22.4000 222.0000 1.0000
22.4200 205.0000 1.0000
22.4400 242.0000 1.0000
22.4600 247.0000 1.0000
22.4800 207.0000 1.0000
22.5000 203.0000 1.0000
22.5200 196.0000 1.0000
22.5400 211.0000 1.0000
22.5600 213.0000 1.0000
22.5800 211.0000 1.0000
22.6000 218.0000 1.0000
22.6200 211.0000 1.0000
22.6400 235.0000 1.0000
22.6600 279.0000 1.0000
22.6800 256.0000 1.0000
22.7000 311.0000 1.0000
22.7200 366.0000 1.0000
22.7400 399.0000 1.0000
22.7600 441.0000 1.0000
22.7800 433.0000 1.0000
22.8000 504.0000 1.0000
22.8200 449.0000 1.0000
22.8400 492.0000 1.0000
22.8600 468.0000 1.0000
22.8800 453.0000 1.0000
22.9000 472.0000 1.0000
22.9200 488.0000 1.0000
22.9400 507.0000 1.0000
22.9600 554.0000 1.0000
22.9800 542.0000 1.0000
23.0000 545.0000 1.0000
23.0200 504.0000 1.0000
23.0400 488.0000 1.0000
23.0600 437.0000 1.0000
23.0800 428.0000 1.0000
23.1000 377.0000 1.0000
23.1200 304.0000 1.0000
23.1400 289.0000 1.0000
23.1600 299.0000 1.0000
23.1800 290.0000 1.0000
23.2000 315.0000 1.0000
23.2200 328.0000 1.0000
23.2400 360.0000 1.0000
23.2600 394.0000 1.0000
23.2800 429.0000 1.0000
23.3000 514.0000 1.0000
23.3200 584.0000 1.0000
23.3400 614.0000 1.0000
23.3600 674.0000 1.0000
23.3800 770.0000 1.0000
23.4000 823.0000 1.0000
23.4200 844.0000 1.0000
23.4400 787.0000 1.0000
23.4600 740.0000 1.0000
23.4800 686.0000 1.0000
23.5000 575.0000 1.0000
23.5200 489.0000 1.0000
23.5400 411.0000 1.0000
23.5600 391.0000 1.0000
23.5800 340.0000 1.0000
23.6000 309.0000 1.0000
23.6200 331.0000 1.0000
23.6400 343.0000 1.0000
23.6600 332.0000 1.0000
23.6800 403.0000 1.0000
23.7000 461.0000 1.0000
23.7200 532.0000 1.0000
23.7400 576.0000 1.0000
23.7600 669.0000 1.0000
23.7800 761.0000 1.0000
23.8000 810.0000 1.0000
23.8200 857.0000 1.0000
23.8400 880.0000 1.0000
23.8600 868.0000 1.0000
23.8800 884.0000 1.0000
23.9000 899.0000 1.0000
23.9200 845.0000 1.0000
23.9400 820.0000 1.0000
23.9600 799.0000 1.0000
23.9800 856.0000 1.0000
24.0000 893.0000 1.0000
24.0200 914.0000 1.0000
24.0400 958.0000 1.0000
24.0600 980.0000 1.0000
24.0800 1004.0000 1.0000
24.1000 1009.0000 1.0000
24.1200 958.0000 1.0000
24.1400 898.0000 1.0000
24.1600 796.0000 1.0000
24.1800 720.0000 1.0000
24.2000 597.0000 1.0000
24.2200 532.0000 1.0000
24.2400 448.0000 1.0000
24.2600 374.0000 1.0000
24.2800 321.0000 1.0000
24.3000 306.0000 1.0000
24.3200 264.0000 1.0000
24.3400 256.0000 1.0000
24.3600 243.0000 1.0000
24.3800 248.0000 1.0000
24.4000 255.0000 1.0000
24.4200 247.0000 1.0000
24.4400 272.0000 1.0000
24.4600 257.0000 1.0000
24.4800 239.0000 1.0000
24.5000 251.0000 1.0000
24.5200 261.0000 1.0000
24.5400 270.0000 1.0000
24.5600 265.0000 1.0000
24.5800 250.0000 1.0000
24.6000 231.0000 1.0000
24.6200 205.0000 1.0000
24.6400 198.0000 1.0000
24.6600 204.0000 1.0000
24.6800 191.0000 1.0000
24.7000 181.0000 1.0000
24.7200 191.0000 1.0000
24.7400 204.0000 1.0000
24.7600 202.0000 1.0000
24.7800 207.0000 1.0000
24.8000 210.0000 1.0000
24.8200 209.0000 1.0000
24.8400 197.0000 1.0000
24.8600 201.0000 1.0000
24.8800 189.0000 1.0000
24.9000 204.0000 1.0000
24.9200 222.0000 1.0000
24.9400 208.0000 1.0000
24.9600 196.0000 1.0000
24.9800 204.0000 1.0000
25.0000 209.0000 1.0000
25.0200 214.0000 1.0000
25.0400 248.0000 1.0000
25.0600 269.0000 1.0000
25.0800 280.0000 1.0000
25.1000 274.0000 1.0000
25.1200 318.0000 1.0000
25.1400 368.0000 1.0000
25.1600 406.0000 1.0000
25.1800 492.0000 1.0000
25.2000 565.0000 1.0000
25.2200 638.0000 1.0000
25.2400 737.0000 1.0000
25.2600 878.0000 1.0000
25.2800 998.0000 1.0000
25.3000 1198.0000 1.0000
25.3200 1350.0000 1.0000
25.3400 1511.0000 1.0000
25.3600 1648.0000 1.0000
25.3800 1707.0000 1.0000
25.4000 1696.0000 1.0000
25.4200 1597.0000 1.0000
25.4400 1458.0000 1.0000
25.4600 1309.0000 1.0000
25.4800 1125.0000 1.0000
25.5000 955.0000 1.0000
25.5200 781.0000 1.0000
25.5400 645.0000 1.0000
25.5600 533.0000 1.0000
25.5800 440.0000 1.0000
25.6000 364.0000 1.0000
25.6200 365.0000 1.0000
25.6400 318.0000 1.0000
25.6600 301.0000 1.0000
25.6800 310.0000 1.0000
25.7000 294.0000 1.0000
25.7200 277.0000 1.0000
25.7400 299.0000 1.0000
25.7600 315.0000 1.0000
25.7800 284.0000 1.0000
25.8000 280.0000 1.0000
25.8200 305.0000 1.0000
25.8400 330.0000 1.0000
25.8600 310.0000 1.0000
25.8800 316.0000 1.0000
25.9000 332.0000 1.0000
25.9200 350.0000 1.0000
25.9400 379.0000 1.0000
25.9600 389.0000 1.0000
25.9800 436.0000 1.0000
26.0000 479.0000 1.0000
26.0200 507.0000 1.0000
26.0400 599.0000 1.0000
26.0600 661.0000 1.0000
26.0800 693.0000 1.0000
26.1000 790.0000 1.0000
26.1200 912.0000 1.0000
26.1400 1047.0000 1.0000
26.1600 1229.0000 1.0000
26.1800 1402.0000 1.0000
26.2000 1574.0000 1.0000
26.2200 1791.0000 1.0000
26.2400 2021.0000 1.0000
26.2600 2221.0000 1.0000
26.2800 2468.0000 1.0000
26.3000 2786.0000 1.0000
26.3200 3199.0000 1.0000
26.3400 3837.0000 1.0000
26.3600 4567.0000 1.0000
26.3800 5584.0000 1.0000
26.4000 6891.0000 1.0000
26.4200 8023.0000 1.0000
26.4400 8778.0000 1.0000
26.4600 9089.0000 1.0000
26.4800 8784.0000 1.0000
26.5000 7912.0000 1.0000
26.5200 6554.0000 1.0000
26.5400 5057.0000 1.0000
26.5600 3799.0000 1.0000
26.5800 2786.0000 1.0000
26.6000 1925.0000 1.0000
26.6200 1324.0000 1.0000
26.6400 975.0000 1.0000
26.6600 769.0000 1.0000
26.6800 709.0000 1.0000
26.7000 681.0000 1.0000
26.7200 679.0000 1.0000
26.7400 713.0000 1.0000
26.7600 726.0000 1.0000
26.7800 748.0000 1.0000
26.8000 795.0000 1.0000
26.8200 814.0000 1.0000
26.8400 832.0000 1.0000
26.8600 875.0000 1.0000
26.8800 887.0000 1.0000
26.9000 849.0000 1.0000
26.9200 784.0000 1.0000
26.9400 736.0000 1.0000
26.9600 678.0000 1.0000
26.9800 636.0000 1.0000
27.0000 599.0000 1.0000
27.0200 583.0000 1.0000
27.0400 582.0000 1.0000
27.0600 616.0000 1.0000
27.0800 686.0000 1.0000
27.1000 728.0000 1.0000
27.1200 775.0000 1.0000
27.1400 885.0000 1.0000
27.1600 1059.0000 1.0000
27.1800 1236.0000 1.0000
27.2000 1389.0000 1.0000
27.2200 1531.0000 1.0000
27.2400 1689.0000 1.0000
27.2600 1829.0000 1.0000
27.2800 1920.0000 1.0000
27.3000 1937.0000 1.0000
27.3200 1830.0000 1.0000
27.3400 1677.0000 1.0000
27.3600 1514.0000 1.0000
27.3800 1381.0000 1.0000
27.4000 1275.0000 1.0000
27.4200 1141.0000 1.0000
27.4400 1098.0000 1.0000
27.4600 1121.0000 1.0000
27.4800 1202.0000 1.0000
27.5000 1382.0000 1.0000
27.5200 1523.0000 1.0000
27.5400 1663.0000 1.0000
27.5600 1872.0000 1.0000
27.5800 2087.0000 1.0000
27.6000 2236.0000 1.0000
27.6200 2326.0000 1.0000
27.6400 2378.0000 1.0000
27.6600 2498.0000 1.0000
27.6800 2760.0000 1.0000
27.7000 2963.0000 1.0000
27.7200 3162.0000 1.0000
27.7400 3392.0000 1.0000
27.7600 3594.0000 1.0000
27.7800 3728.0000 1.0000
27.8000 3550.0000 1.0000
27.8200 3294.0000 1.0000
27.8400 3047.0000 1.0000
27.8600 2627.0000 1.0000
27.8800 2169.0000 1.0000
27.9000 1770.0000 1.0000
27.9200 1451.0000 1.0000
27.9400 1257.0000 1.0000
27.9600 1159.0000 1.0000
27.9800 1058.0000 1.0000
28.0000 996.0000 1.0000
28.0200 972.0000 1.0000
28.0400 966.0000 1.0000
28.0600 932.0000 1.0000
28.0800 884.0000 1.0000
28.1000 845.0000 1.0000
28.1200 786.0000 1.0000
28.1400 707.0000 1.0000
28.1600 625.0000 1.0000
28.1800 558.0000 1.0000
28.2000 473.0000 1.0000
28.2200 416.0000 1.0000
28.2400 378.0000 1.0000
28.2600 320.0000 1.0000
28.2800 289.0000 1.0000
28.3000 274.0000 1.0000
28.3200 250.0000 1.0000
28.3400 233.0000 1.0000
28.3600 211.0000 1.0000
28.3800 211.0000 1.0000
28.4000 206.0000 1.0000
28.4200 179.0000 1.0000
28.4400 177.0000 1.0000
28.4600 175.0000 1.0000
28.4800 183.0000 1.0000
28.5000 186.0000 1.0000
28.5200 164.0000 1.0000
28.5400 144.0000 1.0000
28.5600 148.0000 1.0000
28.5800 166.0000 1.0000
28.6000 151.0000 1.0000
28.6200 134.0000 1.0000
28.6400 144.0000 1.0000
28.6600 152.0000 1.0000
28.6800 152.0000 1.0000
28.7000 159.0000 1.0000
28.7200 145.0000 1.0000
28.7400 145.0000 1.0000
28.7600 166.0000 1.0000
28.7800 151.0000 1.0000
28.8000 138.0000 1.0000
28.8200 140.0000 1.0000
28.8400 160.0000 1.0000
28.8600 164.0000 1.0000
28.8800 158.0000 1.0000
28.9000 173.0000 1.0000
28.9200 176.0000 1.0000
28.9400 170.0000 1.0000
28.9600 171.0000 1.0000
28.9800 178.0000 1.0000
29.0000 199.0000 1.0000
29.0200 199.0000 1.0000
29.0400 180.0000 1.0000
29.0600 192.0000 1.0000
29.0800 215.0000 1.0000
29.1000 219.0000 1.0000
29.1200 220.0000 1.0000
29.1400 241.0000 1.0000
29.1600 272.0000 1.0000
29.1800 300.0000 1.0000
29.2000 325.0000 1.0000
29.2200 357.0000 1.0000
29.2400 377.0000 1.0000
29.2600 358.0000 1.0000
29.2800 352.0000 1.0000
29.3000 363.0000 1.0000
29.3200 312.0000 1.0000
29.3400 310.0000 1.0000
29.3600 287.0000 1.0000
29.3800 249.0000 1.0000
29.4000 218.0000 1.0000
29.4200 216.0000 1.0000
29.4400 216.0000 1.0000
29.4600 205.0000 1.0000
29.4800 187.0000 1.0000
29.5000 203.0000 1.0000
29.5200 242.0000 1.0000
29.5400 251.0000 1.0000
29.5600 264.0000 1.0000
29.5800 311.0000 1.0000
29.6000 318.0000 1.0000
29.6200 313.0000 1.0000
29.6400 326.0000 1.0000
29.6600 357.0000 1.0000
29.6800 387.0000 1.0000
29.7000 425.0000 1.0000
29.7200 436.0000 1.0000
29.7400 435.0000 1.0000
29.7600 430.0000 1.0000
29.7800 424.0000 1.0000
29.8000 448.0000 1.0000
29.8200 473.0000 1.0000
29.8400 459.0000 1.0000
29.8600 439.0000 1.0000
29.8800 453.0000 1.0000
29.9000 454.0000 1.0000
29.9200 452.0000 1.0000
29.9400 476.0000 1.0000
29.9600 477.0000 1.0000
29.9800 508.0000 1.0000
30.0000 561.0000 1.0000
30.0200 607.0000 1.0000
30.0400 609.0000 1.0000
30.0600 591.0000 1.0000
30.0800 687.0000 1.0000
30.1000 701.0000 1.0000
30.1200 695.0000 1.0000
30.1400 683.0000 1.0000
30.1600 697.0000 1.0000
30.1800 726.0000 1.0000
30.2000 770.0000 1.0000
30.2200 771.0000 1.0000
30.2400 836.0000 1.0000
30.2600 853.0000 1.0000
30.2800 856.0000 1.0000
30.3000 765.0000 1.0000
30.3200 685.0000 1.0000
30.3400 621.0000 1.0000
30.3600 556.0000 1.0000
30.3800 510.0000 1.0000
30.4000 451.0000 1.0000
30.4200 406.0000 1.0000
30.4400 382.0000 1.0000
30.4600 372.0000 1.0000
30.4800 372.0000 1.0000
30.5000 391.0000 1.0000
30.5200 408.0000 1.0000
30.5400 421.0000 1.0000
30.5600 413.0000 1.0000
30.5800 410.0000 1.0000
30.6000 389.0000 1.0000
30.6200 369.0000 1.0000
30.6400 367.0000 1.0000
30.6600 381.0000 1.0000
30.6800 374.0000 1.0000
30.7000 351.0000 1.0000
30.7200 355.0000 1.0000
30.7400 325.0000 1.0000
30.7600 323.0000 1.0000
30.7800 288.0000 1.0000
30.8000 254.0000 1.0000
30.8200 245.0000 1.0000
30.8400 244.0000 1.0000
30.8600 223.0000 1.0000
30.8800 199.0000 1.0000
30.9000 183.0000 1.0000
30.9200 201.0000 1.0000
30.9400 176.0000 1.0000
30.9600 204.0000 1.0000
30.9800 186.0000 1.0000
31.0000 207.0000 1.0000
31.0200 233.0000 1.0000
31.0400 256.0000 1.0000
31.0600 279.0000 1.0000
31.0800 279.0000 1.0000
31.1000 322.0000 1.0000
31.1200 295.0000 1.0000
31.1400 359.0000 1.0000
31.1600 378.0000 1.0000
31.1800 384.0000 1.0000
31.2000 374.0000 1.0000
31.2200 324.0000 1.0000
31.2400 339.0000 1.0000
31.2600 324.0000 1.0000
31.2800 287.0000 1.0000
31.3000 252.0000 1.0000
31.3200 261.0000 1.0000
31.3400 236.0000 1.0000
31.3600 236.0000 1.0000
31.3800 208.0000 1.0000
31.4000 200.0000 1.0000
31.4200 179.0000 1.0000
31.4400 187.0000 1.0000
31.4600 179.0000 1.0000
31.4800 167.0000 1.0000
31.5000 157.0000 1.0000
31.5200 150.0000 1.0000
31.5400 159.0000 1.0000
31.5600 152.0000 1.0000
31.5800 134.0000 1.0000
31.6000 146.0000 1.0000
31.6200 131.0000 1.0000
31.6400 149.0000 1.0000
31.6600 145.0000 1.0000
31.6800 128.0000 1.0000
31.7000 130.0000 1.0000
31.7200 145.0000 1.0000
31.7400 140.0000 1.0000
31.7600 154.0000 1.0000
31.7800 156.0000 1.0000
31.8000 165.0000 1.0000
31.8200 139.0000 1.0000
31.8400 158.0000 1.0000
31.8600 158.0000 1.0000
31.8800 173.0000 1.0000
31.9000 185.0000 1.0000
31.9200 184.0000 1.0000
31.9400 192.0000 1.0000
31.9600 189.0000 1.0000
31.9800 215.0000 1.0000
32.0000 198.0000 1.0000
32.0200 188.0000 1.0000
32.0400 169.0000 1.0000
32.0600 141.0000 1.0000
32.0800 135.0000 1.0000
32.1000 166.0000 1.0000
32.1200 158.0000 1.0000
32.1400 159.0000 1.0000
32.1600 155.0000 1.0000
32.1800 173.0000 1.0000
32.2000 176.0000 1.0000
32.2200 190.0000 1.0000
32.2400 207.0000 1.0000
32.2600 187.0000 1.0000
32.2800 194.0000 1.0000
32.3000 198.0000 1.0000
32.3200 224.0000 1.0000
32.3400 200.0000 1.0000
32.3600 200.0000 1.0000
32.3800 164.0000 1.0000
32.4000 172.0000 1.0000
32.4200 143.0000 1.0000
32.4400 140.0000 1.0000
32.4600 134.0000 1.0000
32.4800 124.0000 1.0000
32.5000 125.0000 1.0000
32.5200 115.0000 1.0000
32.5400 114.0000 1.0000
32.5600 119.0000 1.0000
32.5800 129.0000 1.0000
32.6000 113.0000 1.0000
32.6200 132.0000 1.0000
32.6400 135.0000 1.0000
32.6600 131.0000 1.0000
32.6800 129.0000 1.0000
32.7000 127.0000 1.0000
32.7200 128.0000 1.0000
32.7400 107.0000 1.0000
32.7600 121.0000 1.0000
32.7800 115.0000 1.0000
32.8000 120.0000 1.0000
32.8200 113.0000 1.0000
32.8400 113.0000 1.0000
32.8600 122.0000 1.0000
32.8800 113.0000 1.0000
32.9000 118.0000 1.0000
32.9200 114.0000 1.0000
32.9400 111.0000 1.0000
32.9600 116.0000 1.0000
32.9800 126.0000 1.0000
33.0000 107.0000 1.0000
33.0200 123.0000 1.0000
33.0400 127.0000 1.0000
33.0600 117.0000 1.0000
33.0800 110.0000 1.0000
33.1000 128.0000 1.0000
33.1200 119.0000 1.0000
33.1400 117.0000 1.0000
33.1600 123.0000 1.0000
33.1800 107.0000 1.0000
33.2000 133.0000 1.0000
33.2200 104.0000 1.0000
33.2400 111.0000 1.0000
33.2600 131.0000 1.0000
33.2800 106.0000 1.0000
33.3000 113.0000 1.0000
33.3200 130.0000 1.0000
33.3400 126.0000 1.0000
33.3600 133.0000 1.0000
33.3800 124.0000 1.0000
33.4000 134.0000 1.0000
33.4200 139.0000 1.0000
33.4400 139.0000 1.0000
33.4600 169.0000 1.0000
33.4800 158.0000 1.0000
33.5000 166.0000 1.0000
33.5200 163.0000 1.0000
33.5400 187.0000 1.0000
33.5600 183.0000 1.0000
33.5800 199.0000 1.0000
33.6000 183.0000 1.0000
33.6200 238.0000 1.0000
33.6400 254.0000 1.0000
33.6600 268.0000 1.0000
33.6800 300.0000 1.0000
33.7000 310.0000 1.0000
33.7200 356.0000 1.0000
33.7400 335.0000 1.0000
33.7600 348.0000 1.0000
33.7800 359.0000 1.0000
33.8000 341.0000 1.0000
33.8200 311.0000 1.0000
33.8400 334.0000 1.0000
33.8600 318.0000 1.0000
33.8800 306.0000 1.0000
33.9000 307.0000 1.0000
33.9200 320.0000 1.0000
33.9400 337.0000 1.0000
33.9600 355.0000 1.0000
33.9800 340.0000 1.0000
34.0000 351.0000 1.0000
34.0200 362.0000 1.0000
34.0400 351.0000 1.0000
34.0600 308.0000 1.0000
34.0800 296.0000 1.0000
34.1000 291.0000 1.0000
34.1200 241.0000 1.0000
34.1400 227.0000 1.0000
34.1600 229.0000 1.0000
34.1800 233.0000 1.0000
34.2000 216.0000 1.0000
34.2200 196.0000 1.0000
34.2400 195.0000 1.0000
34.2600 180.0000 1.0000
34.2800 180.0000 1.0000
34.3000 210.0000 1.0000
34.3200 199.0000 1.0000
34.3400 199.0000 1.0000
34.3600 228.0000 1.0000
34.3800 226.0000 1.0000
34.4000 236.0000 1.0000
34.4200 240.0000 1.0000
34.4400 240.0000 1.0000
34.4600 261.0000 1.0000
34.4800 252.0000 1.0000
34.5000 271.0000 1.0000
34.5200 270.0000 1.0000
34.5400 241.0000 1.0000
34.5600 230.0000 1.0000
34.5800 234.0000 1.0000
34.6000 252.0000 1.0000
34.6200 247.0000 1.0000
34.6400 279.0000 1.0000
34.6600 288.0000 1.0000
34.6800 279.0000 1.0000
34.7000 294.0000 1.0000
34.7200 321.0000 1.0000
34.7400 367.0000 1.0000
34.7600 384.0000 1.0000
34.7800 440.0000 1.0000
34.8000 513.0000 1.0000
34.8200 560.0000 1.0000
34.8400 709.0000 1.0000
34.8600 857.0000 1.0000
34.8800 1008.0000 1.0000
34.9000 1239.0000 1.0000
34.9200 1432.0000 1.0000
34.9400 1706.0000 1.0000
34.9600 1750.0000 1.0000
34.9800 1813.0000 1.0000
35.0000 1822.0000 1.0000
35.0200 1820.0000 1.0000
35.0400 1622.0000 1.0000
35.0600 1391.0000 1.0000
35.0800 1240.0000 1.0000
35.1000 1013.0000 1.0000
35.1200 854.0000 1.0000
35.1400 726.0000 1.0000
35.1600 591.0000 1.0000
35.1800 516.0000 1.0000
35.2000 473.0000 1.0000
35.2200 453.0000 1.0000
35.2400 447.0000 1.0000
35.2600 414.0000 1.0000
35.2800 407.0000 1.0000
35.3000 445.0000 1.0000
35.3200 424.0000 1.0000
35.3400 403.0000 1.0000
35.3600 459.0000 1.0000
35.3800 410.0000 1.0000
35.4000 427.0000 1.0000
35.4200 359.0000 1.0000
35.4400 357.0000 1.0000
35.4600 345.0000 1.0000
35.4800 350.0000 1.0000
35.5000 333.0000 1.0000
35.5200 320.0000 1.0000
35.5400 272.0000 1.0000
35.5600 266.0000 1.0000
35.5800 236.0000 1.0000
35.6000 247.0000 1.0000
35.6200 241.0000 1.0000
35.6400 232.0000 1.0000
35.6600 218.0000 1.0000
35.6800 201.0000 1.0000
35.7000 205.0000 1.0000
35.7200 211.0000 1.0000
35.7400 185.0000 1.0000
35.7600 202.0000 1.0000
35.7800 190.0000 1.0000
35.8000 204.0000 1.0000
35.8200 179.0000 1.0000
35.8400 173.0000 1.0000
35.8600 178.0000 1.0000
35.8800 188.0000 1.0000
35.9000 168.0000 1.0000
35.9200 173.0000 1.0000
35.9400 191.0000 1.0000
35.9600 173.0000 1.0000
35.9800 202.0000 1.0000
36.0000 219.0000 1.0000
36.0200 239.0000 1.0000
36.0400 217.0000 1.0000
36.0600 228.0000 1.0000
36.0800 243.0000 1.0000
36.1000 249.0000 1.0000
36.1200 259.0000 1.0000
36.1400 278.0000 1.0000
36.1600 288.0000 1.0000
36.1800 309.0000 1.0000
36.2000 316.0000 1.0000
36.2200 370.0000 1.0000
36.2400 391.0000 1.0000
36.2600 487.0000 1.0000
36.2800 530.0000 1.0000
36.3000 650.0000 1.0000
36.3200 782.0000 1.0000
36.3400 833.0000 1.0000
36.3600 860.0000 1.0000
36.3800 855.0000 1.0000
36.4000 887.0000 1.0000
36.4200 782.0000 1.0000
36.4400 734.0000 1.0000
36.4600 643.0000 1.0000
36.4800 580.0000 1.0000
36.5000 485.0000 1.0000
36.5200 451.0000 1.0000
36.5400 396.0000 1.0000
36.5600 381.0000 1.0000
36.5800 301.0000 1.0000
36.6000 251.0000 1.0000
36.6200 241.0000 1.0000
36.6400 292.0000 1.0000
36.6600 263.0000 1.0000
36.6800 279.0000 1.0000
36.7000 271.0000 1.0000
36.7200 303.0000 1.0000
36.7400 305.0000 1.0000
36.7600 303.0000 1.0000
36.7800 360.0000 1.0000
36.8000 370.0000 1.0000
36.8200 340.0000 1.0000
36.8400 376.0000 1.0000
36.8600 349.0000 1.0000
36.8800 360.0000 1.0000
36.9000 312.0000 1.0000
36.9200 264.0000 1.0000
36.9400 271.0000 1.0000
36.9600 250.0000 1.0000
36.9800 221.0000 1.0000
37.0000 206.0000 1.0000
37.0200 189.0000 1.0000
37.0400 204.0000 1.0000
37.0600 192.0000 1.0000
37.0800 162.0000 1.0000
37.1000 174.0000 1.0000
37.1200 180.0000 1.0000
37.1400 184.0000 1.0000
37.1600 190.0000 1.0000
37.1800 184.0000 1.0000
37.2000 176.0000 1.0000
37.2200 196.0000 1.0000
37.2400 237.0000 1.0000
37.2600 255.0000 1.0000
37.2800 239.0000 1.0000
37.3000 233.0000 1.0000
37.3200 233.0000 1.0000
37.3400 270.0000 1.0000
37.3600 272.0000 1.0000
37.3800 296.0000 1.0000
37.4000 314.0000 1.0000
37.4200 330.0000 1.0000
37.4400 349.0000 1.0000
37.4600 356.0000 1.0000
37.4800 431.0000 1.0000
37.5000 497.0000 1.0000
37.5200 544.0000 1.0000
37.5400 646.0000 1.0000
37.5600 716.0000 1.0000
37.5800 744.0000 1.0000
37.6000 755.0000 1.0000
37.6200 756.0000 1.0000
37.6400 697.0000 1.0000
37.6600 664.0000 1.0000
37.6800 576.0000 1.0000
37.7000 481.0000 1.0000
37.7200 443.0000 1.0000
37.7400 350.0000 1.0000
37.7600 279.0000 1.0000
37.7800 224.0000 1.0000
37.8000 189.0000 1.0000
37.8200 181.0000 1.0000
37.8400 143.0000 1.0000
37.8600 136.0000 1.0000
37.8800 119.0000 1.0000
37.9000 124.0000 1.0000
37.9200 129.0000 1.0000
37.9400 139.0000 1.0000
37.9600 116.0000 1.0000
37.9800 113.0000 1.0000
38.0000 129.0000 1.0000
38.0200 125.0000 1.0000
38.0400 122.0000 1.0000
38.0600 121.0000 1.0000
38.0800 116.0000 1.0000
38.1000 110.0000 1.0000
38.1200 114.0000 1.0000
38.1400 135.0000 1.0000
38.1600 138.0000 1.0000
38.1800 131.0000 1.0000
38.2000 134.0000 1.0000
38.2200 140.0000 1.0000
38.2400 163.0000 1.0000
38.2600 154.0000 1.0000
38.2800 178.0000 1.0000
38.3000 171.0000 1.0000
38.3200 187.0000 1.0000
38.3400 212.0000 1.0000
38.3600 214.0000 1.0000
38.3800 221.0000 1.0000
38.4000 214.0000 1.0000
38.4200 215.0000 1.0000
38.4400 198.0000 1.0000
38.4600 184.0000 1.0000
38.4800 177.0000 1.0000
38.5000 179.0000 1.0000
38.5200 177.0000 1.0000
38.5400 169.0000 1.0000
38.5600 165.0000 1.0000
38.5800 156.0000 1.0000
38.6000 149.0000 1.0000
38.6200 147.0000 1.0000
38.6400 153.0000 1.0000
38.6600 162.0000 1.0000
38.6800 180.0000 1.0000
38.7000 169.0000 1.0000
38.7200 166.0000 1.0000
38.7400 171.0000 1.0000
38.7600 181.0000 1.0000
38.7800 190.0000 1.0000
38.8000 193.0000 1.0000
38.8200 194.0000 1.0000
38.8400 194.0000 1.0000
38.8600 193.0000 1.0000
38.8800 206.0000 1.0000
38.9000 198.0000 1.0000
38.9200 201.0000 1.0000
38.9400 195.0000 1.0000
38.9600 197.0000 1.0000
38.9800 207.0000 1.0000
39.0000 190.0000 1.0000
39.0200 195.0000 1.0000
39.0400 185.0000 1.0000
39.0600 162.0000 1.0000
39.0800 178.0000 1.0000
39.1000 200.0000 1.0000
39.1200 223.0000 1.0000
39.1400 235.0000 1.0000
39.1600 254.0000 1.0000
39.1800 283.0000 1.0000
39.2000 347.0000 1.0000
39.2200 422.0000 1.0000
39.2400 499.0000 1.0000
39.2600 581.0000 1.0000
39.2800 656.0000 1.0000
39.3000 676.0000 1.0000
39.3200 627.0000 1.0000
39.3400 607.0000 1.0000
39.3600 572.0000 1.0000
39.3800 498.0000 1.0000
39.4000 448.0000 1.0000
39.4200 419.0000 1.0000
39.4400 369.0000 1.0000
39.4600 314.0000 1.0000
39.4800 282.0000 1.0000
39.5000 246.0000 1.0000
39.5200 223.0000 1.0000
39.5400 213.0000 1.0000
39.5600 192.0000 1.0000
39.5800 182.0000 1.0000
39.6000 160.0000 1.0000
39.6200 152.0000 1.0000
39.6400 160.0000 1.0000
39.6600 150.0000 1.0000
39.6800 129.0000 1.0000
39.7000 125.0000 1.0000
39.7200 145.0000 1.0000
39.7400 156.0000 1.0000
39.7600 150.0000 1.0000
39.7800 146.0000 1.0000
39.8000 145.0000 1.0000
39.8200 143.0000 1.0000
39.8400 152.0000 1.0000
39.8600 174.0000 1.0000
39.8800 177.0000 1.0000
39.9000 156.0000 1.0000
39.9200 145.0000 1.0000
39.9400 152.0000 1.0000
39.9600 165.0000 1.0000
39.9800 181.0000 1.0000
40.0000 207.0000 1.0000
40.0200 233.0000 1.0000
40.0400 249.0000 1.0000
40.0600 294.0000 1.0000
40.0800 349.0000 1.0000
40.1000 398.0000 1.0000
40.1200 414.0000 1.0000
40.1400 379.0000 1.0000
40.1600 352.0000 1.0000
40.1800 346.0000 1.0000
40.2000 326.0000 1.0000
40.2200 287.0000 1.0000
40.2400 251.0000 1.0000
40.2600 228.0000 1.0000
40.2800 220.0000 1.0000
40.3000 196.0000 1.0000
40.3200 167.0000 1.0000
40.3400 162.0000 1.0000
40.3600 158.0000 1.0000
40.3800 151.0000 1.0000
40.4000 136.0000 1.0000
40.4200 133.0000 1.0000
40.4400 138.0000 1.0000
40.4600 132.0000 1.0000
40.4800 122.0000 1.0000
40.5000 115.0000 1.0000
40.5200 128.0000 1.0000
40.5400 137.0000 1.0000
40.5600 133.0000 1.0000
40.5800 132.0000 1.0000
40.6000 135.0000 1.0000
40.6200 137.0000 1.0000
40.6400 126.0000 1.0000
40.6600 136.0000 1.0000
40.6800 146.0000 1.0000
40.7000 139.0000 1.0000
40.7200 148.0000 1.0000
40.7400 156.0000 1.0000
40.7600 155.0000 1.0000
40.7800 154.0000 1.0000
40.8000 159.0000 1.0000
40.8200 166.0000 1.0000
40.8400 165.0000 1.0000
40.8600 159.0000 1.0000
40.8800 168.0000 1.0000
40.9000 171.0000 1.0000
40.9200 157.0000 1.0000
40.9400 160.0000 1.0000
40.9600 170.0000 1.0000
40.9800 161.0000 1.0000
41.0000 170.0000 1.0000
41.0200 174.0000 1.0000
41.0400 166.0000 1.0000
41.0600 176.0000 1.0000
41.0800 177.0000 1.0000
41.1000 175.0000 1.0000
41.1200 176.0000 1.0000
41.1400 170.0000 1.0000
41.1600 180.0000 1.0000
41.1800 194.0000 1.0000
41.2000 173.0000 1.0000
41.2200 166.0000 1.0000
41.2400 176.0000 1.0000
41.2600 167.0000 1.0000
41.2800 162.0000 1.0000
41.3000 178.0000 1.0000
41.3200 160.0000 1.0000
41.3400 161.0000 1.0000
41.3600 181.0000 1.0000
41.3800 173.0000 1.0000
41.4000 182.0000 1.0000
41.4200 195.0000 1.0000
41.4400 215.0000 1.0000
41.4600 222.0000 1.0000
41.4800 239.0000 1.0000
41.5000 252.0000 1.0000
41.5200 267.0000 1.0000
41.5400 306.0000 1.0000
41.5600 353.0000 1.0000
41.5800 394.0000 1.0000
41.6000 403.0000 1.0000
41.6200 406.0000 1.0000
41.6400 405.0000 1.0000
41.6600 401.0000 1.0000
41.6800 396.0000 1.0000
41.7000 366.0000 1.0000
41.7200 344.0000 1.0000
41.7400 326.0000 1.0000
41.7600 287.0000 1.0000
41.7800 242.0000 1.0000
41.8000 244.0000 1.0000
41.8200 228.0000 1.0000
41.8400 200.0000 1.0000
41.8600 189.0000 1.0000
41.8800 189.0000 1.0000
41.9000 174.0000 1.0000
41.9200 157.0000 1.0000
41.9400 156.0000 1.0000
41.9600 155.0000 1.0000
41.9800 171.0000 1.0000
42.0000 168.0000 1.0000
42.0200 179.0000 1.0000
42.0400 186.0000 1.0000
42.0600 192.0000 1.0000
42.0800 193.0000 1.0000
42.1000 246.0000 1.0000
42.1200 278.0000 1.0000
42.1400 304.0000 1.0000
42.1600 356.0000 1.0000
42.1800 397.0000 1.0000
42.2000 465.0000 1.0000
42.2200 545.0000 1.0000
42.2400 610.0000 1.0000
42.2600 639.0000 1.0000
42.2800 660.0000 1.0000
42.3000 651.0000 1.0000
42.3200 621.0000 1.0000
42.3400 576.0000 1.0000
42.3600 516.0000 1.0000
42.3800 450.0000 1.0000
42.4000 418.0000 1.0000
42.4200 401.0000 1.0000
42.4400 364.0000 1.0000
42.4600 351.0000 1.0000
42.4800 307.0000 1.0000
42.5000 269.0000 1.0000
42.5200 245.0000 1.0000
42.5400 254.0000 1.0000
42.5600 271.0000 1.0000
42.5800 276.0000 1.0000
42.6000 283.0000 1.0000
42.6200 266.0000 1.0000
42.6400 285.0000 1.0000
42.6600 285.0000 1.0000
42.6800 264.0000 1.0000
42.7000 261.0000 1.0000
42.7200 256.0000 1.0000
42.7400 250.0000 1.0000
42.7600 247.0000 1.0000
42.7800 243.0000 1.0000
42.8000 264.0000 1.0000
42.8200 257.0000 1.0000
42.8400 264.0000 1.0000
42.8600 283.0000 1.0000
42.8800 277.0000 1.0000
42.9000 282.0000 1.0000
42.9200 292.0000 1.0000
42.9400 321.0000 1.0000
42.9600 348.0000 1.0000
42.9800 381.0000 1.0000
43.0000 432.0000 1.0000
43.0200 514.0000 1.0000
43.0400 599.0000 1.0000
43.0600 682.0000 1.0000
43.0800 843.0000 1.0000
43.1000 1015.0000 1.0000
43.1200 1257.0000 1.0000
43.1400 1408.0000 1.0000
43.1600 1620.0000 1.0000
43.1800 1701.0000 1.0000
43.2000 1689.0000 1.0000
43.2200 1596.0000 1.0000
43.2400 1484.0000 1.0000
43.2600 1365.0000 1.0000
43.2800 1163.0000 1.0000
43.3000 1038.0000 1.0000
43.3200 884.0000 1.0000
43.3400 758.0000 1.0000
43.3600 594.0000 1.0000
43.3800 451.0000 1.0000
43.4000 356.0000 1.0000
43.4200 280.0000 1.0000
43.4400 250.0000 1.0000
43.4600 246.0000 1.0000
43.4800 213.0000 1.0000
43.5000 212.0000 1.0000
43.5200 184.0000 1.0000
43.5400 177.0000 1.0000
43.5600 147.0000 1.0000
43.5800 158.0000 1.0000
43.6000 146.0000 1.0000
43.6200 135.0000 1.0000
43.6400 140.0000 1.0000
43.6600 140.0000 1.0000
43.6800 129.0000 1.0000
43.7000 129.0000 1.0000
43.7200 131.0000 1.0000
43.7400 153.0000 1.0000
43.7600 131.0000 1.0000
43.7800 131.0000 1.0000
43.8000 129.0000 1.0000
43.8200 132.0000 1.0000
43.8400 126.0000 1.0000
43.8600 139.0000 1.0000
43.8800 128.0000 1.0000
43.9000 132.0000 1.0000
43.9200 130.0000 1.0000
43.9400 117.0000 1.0000
43.9600 134.0000 1.0000
43.9800 129.0000 1.0000
44.0000 134.0000 1.0000
44.0200 125.0000 1.0000
44.0400 127.0000 1.0000
44.0600 127.0000 1.0000
44.0800 143.0000 1.0000
44.1000 138.0000 1.0000
44.1200 140.0000 1.0000
44.1400 132.0000 1.0000
44.1600 142.0000 1.0000
44.1800 124.0000 1.0000
44.2000 124.0000 1.0000
44.2200 135.0000 1.0000
44.2400 115.0000 1.0000
44.2600 134.0000 1.0000
44.2800 147.0000 1.0000
44.3000 153.0000 1.0000
44.3200 136.0000 1.0000
44.3400 123.0000 1.0000
44.3600 144.0000 1.0000
44.3800 155.0000 1.0000
44.4000 146.0000 1.0000
44.4200 149.0000 1.0000
44.4400 155.0000 1.0000
44.4600 145.0000 1.0000
44.4800 148.0000 1.0000
44.5000 153.0000 1.0000
44.5200 137.0000 1.0000
44.5400 134.0000 1.0000
44.5600 144.0000 1.0000
44.5800 125.0000 1.0000
44.6000 149.0000 1.0000
44.6200 142.0000 1.0000
44.6400 161.0000 1.0000
44.6600 137.0000 1.0000
44.6800 136.0000 1.0000
44.7000 157.0000 1.0000
44.7200 169.0000 1.0000
44.7400 172.0000 1.0000
44.7600 143.0000 1.0000
44.7800 160.0000 1.0000
44.8000 142.0000 1.0000
44.8200 145.0000 1.0000
44.8400 161.0000 1.0000
44.8600 131.0000 1.0000
44.8800 148.0000 1.0000
44.9000 157.0000 1.0000
44.9200 178.0000 1.0000
44.9400 165.0000 1.0000
44.9600 157.0000 1.0000
44.9800 185.0000 1.0000
45.0000 156.0000 1.0000
45.0200 172.0000 1.0000
45.0400 162.0000 1.0000
45.0600 155.0000 1.0000
45.0800 185.0000 1.0000
45.1000 176.0000 1.0000
45.1200 142.0000 1.0000
45.1400 167.0000 1.0000
45.1600 164.0000 1.0000
45.1800 175.0000 1.0000
45.2000 196.0000 1.0000
45.2200 197.0000 1.0000
45.2400 184.0000 1.0000
45.2600 219.0000 1.0000
45.2800 215.0000 1.0000
45.3000 222.0000 1.0000
45.3200 215.0000 1.0000
45.3400 228.0000 1.0000
45.3600 213.0000 1.0000
45.3800 220.0000 1.0000
45.4000 256.0000 1.0000
45.4200 220.0000 1.0000
45.4400 266.0000 1.0000
45.4600 259.0000 1.0000
45.4800 272.0000 1.0000
45.5000 320.0000 1.0000
45.5200 331.0000 1.0000
45.5400 344.0000 1.0000
45.5600 391.0000 1.0000
45.5800 457.0000 1.0000
45.6000 462.0000 1.0000
45.6200 452.0000 1.0000
45.6400 474.0000 1.0000
45.6600 481.0000 1.0000
45.6800 441.0000 1.0000
45.7000 412.0000 1.0000
45.7200 348.0000 1.0000
45.7400 331.0000 1.0000
45.7600 277.0000 1.0000
45.7800 249.0000 1.0000
45.8000 224.0000 1.0000
45.8200 219.0000 1.0000
45.8400 189.0000 1.0000
45.8600 167.0000 1.0000
45.8800 147.0000 1.0000
45.9000 161.0000 1.0000
45.9200 146.0000 1.0000
45.9400 156.0000 1.0000
45.9600 185.0000 1.0000
45.9800 185.0000 1.0000
46.0000 166.0000 1.0000
46.0200 175.0000 1.0000
46.0400 188.0000 1.0000
46.0600 193.0000 1.0000
46.0800 187.0000 1.0000
46.1000 176.0000 1.0000
46.1200 186.0000 1.0000
46.1400 159.0000 1.0000
46.1600 164.0000 1.0000
46.1800 163.0000 1.0000
46.2000 148.0000 1.0000
46.2200 154.0000 1.0000
46.2400 140.0000 1.0000
46.2600 116.0000 1.0000
46.2800 121.0000 1.0000
46.3000 97.0000 1.0000
46.3200 114.0000 1.0000
46.3400 118.0000 1.0000
46.3600 112.0000 1.0000
46.3800 109.0000 1.0000
46.4000 98.0000 1.0000
46.4200 114.0000 1.0000
46.4400 104.0000 1.0000
46.4600 110.0000 1.0000
46.4800 101.0000 1.0000
46.5000 129.0000 1.0000
46.5200 129.0000 1.0000
46.5400 124.0000 1.0000
46.5600 112.0000 1.0000
46.5800 129.0000 1.0000
46.6000 125.0000 1.0000
46.6200 125.0000 1.0000
46.6400 136.0000 1.0000
46.6600 120.0000 1.0000
46.6800 140.0000 1.0000
46.7000 137.0000 1.0000
46.7200 144.0000 1.0000
46.7400 141.0000 1.0000
46.7600 138.0000 1.0000
46.7800 153.0000 1.0000
46.8000 155.0000 1.0000
46.8200 173.0000 1.0000
46.8400 179.0000 1.0000
46.8600 152.0000 1.0000
46.8800 170.0000 1.0000
46.9000 194.0000 1.0000
46.9200 197.0000 1.0000
46.9400 201.0000 1.0000
46.9600 215.0000 1.0000
46.9800 202.0000 1.0000
47.0000 179.0000 1.0000
47.0200 186.0000 1.0000
47.0400 178.0000 1.0000
47.0600 160.0000 1.0000
47.0800 152.0000 1.0000
47.1000 155.0000 1.0000
47.1200 141.0000 1.0000
47.1400 139.0000 1.0000
47.1600 152.0000 1.0000
47.1800 152.0000 1.0000
47.2000 146.0000 1.0000
47.2200 138.0000 1.0000
47.2400 144.0000 1.0000
47.2600 165.0000 1.0000
47.2800 177.0000 1.0000
47.3000 177.0000 1.0000
47.3200 177.0000 1.0000
47.3400 179.0000 1.0000
47.3600 184.0000 1.0000
47.3800 185.0000 1.0000
47.4000 198.0000 1.0000
47.4200 209.0000 1.0000
47.4400 217.0000 1.0000
47.4600 193.0000 1.0000
47.4800 180.0000 1.0000
47.5000 178.0000 1.0000
47.5200 162.0000 1.0000
47.5400 174.0000 1.0000
47.5600 165.0000 1.0000
47.5800 158.0000 1.0000
47.6000 168.0000 1.0000
47.6200 157.0000 1.0000
47.6400 141.0000 1.0000
47.6600 158.0000 1.0000
47.6800 149.0000 1.0000
47.7000 144.0000 1.0000
47.7200 145.0000 1.0000
47.7400 150.0000 1.0000
47.7600 144.0000 1.0000
47.7800 144.0000 1.0000
47.8000 131.0000 1.0000
47.8200 133.0000 1.0000
47.8400 140.0000 1.0000
47.8600 140.0000 1.0000
47.8800 148.0000 1.0000
47.9000 158.0000 1.0000
47.9200 154.0000 1.0000
47.9400 164.0000 1.0000
47.9600 162.0000 1.0000
47.9800 172.0000 1.0000
48.0000 177.0000 1.0000
48.0200 179.0000 1.0000
48.0400 194.0000 1.0000
48.0600 211.0000 1.0000
48.0800 218.0000 1.0000
48.1000 215.0000 1.0000
48.1200 224.0000 1.0000
48.1400 217.0000 1.0000
48.1600 200.0000 1.0000
48.1800 197.0000 1.0000
48.2000 201.0000 1.0000
48.2200 191.0000 1.0000
48.2400 173.0000 1.0000
48.2600 163.0000 1.0000
48.2800 165.0000 1.0000
48.3000 168.0000 1.0000
48.3200 161.0000 1.0000
48.3400 151.0000 1.0000
48.3600 146.0000 1.0000
48.3800 135.0000 1.0000
48.4000 130.0000 1.0000
48.4200 133.0000 1.0000
48.4400 129.0000 1.0000
48.4600 130.0000 1.0000
48.4800 132.0000 1.0000
48.5000 136.0000 1.0000
48.5200 136.0000 1.0000
48.5400 143.0000 1.0000
48.5600 161.0000 1.0000
48.5800 174.0000 1.0000
48.6000 168.0000 1.0000
48.6200 158.0000 1.0000
48.6400 163.0000 1.0000
48.6600 163.0000 1.0000
48.6800 164.0000 1.0000
48.7000 179.0000 1.0000
48.7200 189.0000 1.0000
48.7400 175.0000 1.0000
48.7600 168.0000 1.0000
48.7800 176.0000 1.0000
48.8000 189.0000 1.0000
48.8200 196.0000 1.0000
48.8400 182.0000 1.0000
48.8600 189.0000 1.0000
48.8800 218.0000 1.0000
48.9000 225.0000 1.0000
48.9200 211.0000 1.0000
48.9400 228.0000 1.0000
48.9600 260.0000 1.0000
48.9800 280.0000 1.0000
49.0000 306.0000 1.0000
49.0200 314.0000 1.0000
49.0400 311.0000 1.0000
49.0600 298.0000 1.0000
49.0800 302.0000 1.0000
49.1000 304.0000 1.0000
49.1200 280.0000 1.0000
49.1400 244.0000 1.0000
49.1600 243.0000 1.0000
49.1800 250.0000 1.0000
49.2000 221.0000 1.0000
49.2200 217.0000 1.0000
49.2400 221.0000 1.0000
49.2600 207.0000 1.0000
49.2800 183.0000 1.0000
49.3000 183.0000 1.0000
49.3200 189.0000 1.0000
49.3400 188.0000 1.0000
49.3600 193.0000 1.0000
49.3800 196.0000 1.0000
49.4000 203.0000 1.0000
49.4200 221.0000 1.0000
49.4400 221.0000 1.0000
49.4600 227.0000 1.0000
49.4800 241.0000 1.0000
49.5000 233.0000 1.0000
49.5200 237.0000 1.0000
49.5400 256.0000 1.0000
49.5600 297.0000 1.0000
49.5800 344.0000 1.0000
49.6000 362.0000 1.0000
49.6200 368.0000 1.0000
49.6400 369.0000 1.0000
49.6600 377.0000 1.0000
49.6800 377.0000 1.0000
49.7000 414.0000 1.0000
49.7200 412.0000 1.0000
49.7400 437.0000 1.0000
49.7600 464.0000 1.0000
49.7800 487.0000 1.0000
49.8000 521.0000 1.0000
49.8200 549.0000 1.0000
49.8400 558.0000 1.0000
49.8600 589.0000 1.0000
49.8800 696.0000 1.0000
49.9000 837.0000 1.0000
49.9200 966.0000 1.0000
49.9400 1063.0000 1.0000
49.9600 1153.0000 1.0000
49.9800 1184.0000 1.0000
50.0000 1131.0000 1.0000
50.0200 1009.0000 1.0000
50.0400 889.0000 1.0000
50.0600 845.0000 1.0000
50.0800 778.0000 1.0000
50.1000 669.0000 1.0000
50.1200 610.0000 1.0000
50.1400 595.0000 1.0000
50.1600 519.0000 1.0000
50.1800 425.0000 1.0000
50.2000 370.0000 1.0000
50.2200 319.0000 1.0000
50.2400 319.0000 1.0000
50.2600 314.0000 1.0000
50.2800 344.0000 1.0000
50.3000 380.0000 1.0000
50.3200 403.0000 1.0000
50.3400 405.0000 1.0000
50.3600 433.0000 1.0000
50.3800 438.0000 1.0000
50.4000 424.0000 1.0000
50.4200 441.0000 1.0000
50.4400 416.0000 1.0000
50.4600 445.0000 1.0000
50.4800 443.0000 1.0000
50.5000 428.0000 1.0000
50.5200 377.0000 1.0000
50.5400 378.0000 1.0000
50.5600 367.0000 1.0000
50.5800 315.0000 1.0000
50.6000 305.0000 1.0000
50.6200 306.0000 1.0000
50.6400 303.0000 1.0000
50.6600 288.0000 1.0000
50.6800 270.0000 1.0000
50.7000 283.0000 1.0000
50.7200 279.0000 1.0000
50.7400 259.0000 1.0000
50.7600 236.0000 1.0000
50.7800 241.0000 1.0000
50.8000 246.0000 1.0000
50.8200 231.0000 1.0000
50.8400 223.0000 1.0000
50.8600 202.0000 1.0000
50.8800 225.0000 1.0000
50.9000 219.0000 1.0000
50.9200 219.0000 1.0000
50.9400 229.0000 1.0000
50.9600 241.0000 1.0000
50.9800 280.0000 1.0000
51.0000 311.0000 1.0000
51.0200 317.0000 1.0000
51.0400 312.0000 1.0000
51.0600 322.0000 1.0000
51.0800 353.0000 1.0000
51.1000 376.0000 1.0000
51.1200 377.0000 1.0000
51.1400 367.0000 1.0000
51.1600 355.0000 1.0000
51.1800 351.0000 1.0000
51.2000 379.0000 1.0000
51.2200 307.0000 1.0000
51.2400 278.0000 1.0000
51.2600 226.0000 1.0000
51.2800 230.0000 1.0000
51.3000 251.0000 1.0000
51.3200 191.0000 1.0000
51.3400 178.0000 1.0000
51.3600 191.0000 1.0000
51.3800 170.0000 1.0000
51.4000 173.0000 1.0000
51.4200 164.0000 1.0000
51.4400 167.0000 1.0000
51.4600 134.0000 1.0000
51.4800 149.0000 1.0000
51.5000 119.0000 1.0000
51.5200 130.0000 1.0000
51.5400 117.0000 1.0000
51.5600 120.0000 1.0000
51.5800 112.0000 1.0000
51.6000 119.0000 1.0000
51.6200 150.0000 1.0000
51.6400 119.0000 1.0000
51.6600 107.0000 1.0000
51.6800 119.0000 1.0000
51.7000 116.0000 1.0000
51.7200 114.0000 1.0000
51.7400 106.0000 1.0000
51.7600 126.0000 1.0000
51.7800 117.0000 1.0000
51.8000 131.0000 1.0000
51.8200 124.0000 1.0000
51.8400 132.0000 1.0000
51.8600 115.0000 1.0000
51.8800 138.0000 1.0000
51.9000 128.0000 1.0000
51.9200 135.0000 1.0000
51.9400 147.0000 1.0000
51.9600 178.0000 1.0000
51.9800 174.0000 1.0000
52.0000 153.0000 1.0000
52.0200 181.0000 1.0000
52.0400 183.0000 1.0000
52.0600 193.0000 1.0000
52.0800 216.0000 1.0000
52.1000 192.0000 1.0000
52.1200 203.0000 1.0000
52.1400 203.0000 1.0000
52.1600 242.0000 1.0000
52.1800 253.0000 1.0000
52.2000 243.0000 1.0000
52.2200 250.0000 1.0000
52.2400 299.0000 1.0000
52.2600 376.0000 1.0000
52.2800 412.0000 1.0000
52.3000 425.0000 1.0000
52.3200 497.0000 1.0000
52.3400 658.0000 1.0000
52.3600 724.0000 1.0000
52.3800 777.0000 1.0000
52.4000 787.0000 1.0000
52.4200 721.0000 1.0000
52.4400 772.0000 1.0000
52.4600 681.0000 1.0000
52.4800 666.0000 1.0000
52.5000 663.0000 1.0000
52.5200 589.0000 1.0000
52.5400 519.0000 1.0000
52.5600 477.0000 1.0000
52.5800 469.0000 1.0000
52.6000 407.0000 1.0000
52.6200 358.0000 1.0000
52.6400 313.0000 1.0000
52.6600 282.0000 1.0000
52.6800 269.0000 1.0000
52.7000 263.0000 1.0000
52.7200 252.0000 1.0000
52.7400 220.0000 1.0000
52.7600 246.0000 1.0000
52.7800 207.0000 1.0000
52.8000 222.0000 1.0000
52.8200 204.0000 1.0000
52.8400 181.0000 1.0000
52.8600 168.0000 1.0000
52.8800 166.0000 1.0000
52.9000 178.0000 1.0000
52.9200 198.0000 1.0000
52.9400 179.0000 1.0000
52.9600 215.0000 1.0000
52.9800 192.0000 1.0000
53.0000 200.0000 1.0000
53.0200 201.0000 1.0000
53.0400 168.0000 1.0000
53.0600 195.0000 1.0000
53.0800 185.0000 1.0000
53.1000 181.0000 1.0000
53.1200 174.0000 1.0000
53.1400 175.0000 1.0000
53.1600 181.0000 1.0000
53.1800 164.0000 1.0000
53.2000 166.0000 1.0000
53.2200 175.0000 1.0000
53.2400 162.0000 1.0000
53.2600 154.0000 1.0000
53.2800 162.0000 1.0000
53.3000 141.0000 1.0000
53.3200 126.0000 1.0000
53.3400 129.0000 1.0000
53.3600 127.0000 1.0000
53.3800 143.0000 1.0000
53.4000 124.0000 1.0000
53.4200 122.0000 1.0000
53.4400 144.0000 1.0000
53.4600 149.0000 1.0000
53.4800 120.0000 1.0000
53.5000 119.0000 1.0000
53.5200 122.0000 1.0000
53.5400 138.0000 1.0000
53.5600 103.0000 1.0000
53.5800 131.0000 1.0000
53.6000 134.0000 1.0000
53.6200 123.0000 1.0000
53.6400 123.0000 1.0000
53.6600 124.0000 1.0000
53.6800 121.0000 1.0000
53.7000 107.0000 1.0000
53.7200 133.0000 1.0000
53.7400 143.0000 1.0000
53.7600 141.0000 1.0000
53.7800 142.0000 1.0000
53.8000 142.0000 1.0000
53.8200 144.0000 1.0000
53.8400 143.0000 1.0000
53.8600 154.0000 1.0000
53.8800 163.0000 1.0000
53.9000 158.0000 1.0000
53.9200 140.0000 1.0000
53.9400 140.0000 1.0000
53.9600 133.0000 1.0000
53.9800 137.0000 1.0000
54.0000 147.0000 1.0000
54.0200 147.0000 1.0000
54.0400 149.0000 1.0000
54.0600 131.0000 1.0000
54.0800 157.0000 1.0000
54.1000 152.0000 1.0000
54.1200 145.0000 1.0000
54.1400 152.0000 1.0000
54.1600 165.0000 1.0000
54.1800 166.0000 1.0000
54.2000 181.0000 1.0000
54.2200 186.0000 1.0000
54.2400 196.0000 1.0000
54.2600 187.0000 1.0000
54.2800 189.0000 1.0000
54.3000 174.0000 1.0000
54.3200 180.0000 1.0000
54.3400 178.0000 1.0000
54.3600 174.0000 1.0000
54.3800 174.0000 1.0000
54.4000 182.0000 1.0000
54.4200 177.0000 1.0000
54.4400 194.0000 1.0000
54.4600 196.0000 1.0000
54.4800 173.0000 1.0000
54.5000 172.0000 1.0000
54.5200 178.0000 1.0000
54.5400 174.0000 1.0000
54.5600 210.0000 1.0000
54.5800 226.0000 1.0000
54.6000 231.0000 1.0000
54.6200 248.0000 1.0000
54.6400 294.0000 1.0000
54.6600 370.0000 1.0000
54.6800 386.0000 1.0000
54.7000 414.0000 1.0000
54.7200 415.0000 1.0000
54.7400 421.0000 1.0000
54.7600 369.0000 1.0000
54.7800 365.0000 1.0000
54.8000 350.0000 1.0000
54.8200 319.0000 1.0000
54.8400 308.0000 1.0000
54.8600 295.0000 1.0000
54.8800 281.0000 1.0000
54.9000 249.0000 1.0000
54.9200 238.0000 1.0000
54.9400 214.0000 1.0000
54.9600 191.0000 1.0000
54.9800 188.0000 1.0000
55.0000 195.0000 1.0000
55.0200 185.0000 1.0000
55.0400 190.0000 1.0000
55.0600 214.0000 1.0000
55.0800 225.0000 1.0000
55.1000 239.0000 1.0000
55.1200 261.0000 1.0000
55.1400 267.0000 1.0000
55.1600 264.0000 1.0000
55.1800 272.0000 1.0000
55.2000 273.0000 1.0000
55.2200 258.0000 1.0000
55.2400 258.0000 1.0000
55.2600 239.0000 1.0000
55.2800 209.0000 1.0000
55.3000 201.0000 1.0000
55.3200 210.0000 1.0000
55.3400 213.0000 1.0000
55.3600 210.0000 1.0000
55.3800 176.0000 1.0000
55.4000 160.0000 1.0000
55.4200 157.0000 1.0000
55.4400 142.0000 1.0000
55.4600 139.0000 1.0000
55.4800 133.0000 1.0000
55.5000 137.0000 1.0000
55.5200 151.0000 1.0000
55.5400 136.0000 1.0000
55.5600 131.0000 1.0000
55.5800 137.0000 1.0000
55.6000 129.0000 1.0000
55.6200 128.0000 1.0000
55.6400 131.0000 1.0000
55.6600 126.0000 1.0000
55.6800 121.0000 1.0000
55.7000 122.0000 1.0000
55.7200 126.0000 1.0000
55.7400 119.0000 1.0000
55.7600 117.0000 1.0000
55.7800 113.0000 1.0000
55.8000 109.0000 1.0000
55.8200 124.0000 1.0000
55.8400 122.0000 1.0000
55.8600 122.0000 1.0000
55.8800 124.0000 1.0000
55.9000 115.0000 1.0000
55.9200 124.0000 1.0000
55.9400 126.0000 1.0000
55.9600 113.0000 1.0000
55.9800 114.0000 1.0000
56.0000 126.0000 1.0000
56.0200 119.0000 1.0000
56.0400 107.0000 1.0000
56.0600 108.0000 1.0000
56.0800 106.0000 1.0000
56.1000 108.0000 1.0000
56.1200 114.0000 1.0000
56.1400 114.0000 1.0000
56.1600 114.0000 1.0000
56.1800 120.0000 1.0000
56.2000 116.0000 1.0000
56.2200 109.0000 1.0000
56.2400 114.0000 1.0000
56.2600 123.0000 1.0000
56.2800 116.0000 1.0000
56.3000 113.0000 1.0000
56.3200 106.0000 1.0000
56.3400 107.0000 1.0000
56.3600 122.0000 1.0000
56.3800 114.0000 1.0000
56.4000 112.0000 1.0000
56.4200 121.0000 1.0000
56.4400 116.0000 1.0000
56.4600 117.0000 1.0000
56.4800 114.0000 1.0000
56.5000 101.0000 1.0000
56.5200 106.0000 1.0000
56.5400 133.0000 1.0000
56.5600 130.0000 1.0000
56.5800 122.0000 1.0000
56.6000 119.0000 1.0000
56.6200 116.0000 1.0000
56.6400 137.0000 1.0000
56.6600 139.0000 1.0000
56.6800 124.0000 1.0000
56.7000 135.0000 1.0000
56.7200 146.0000 1.0000
56.7400 150.0000 1.0000
56.7600 151.0000 1.0000
56.7800 137.0000 1.0000
56.8000 130.0000 1.0000
56.8200 136.0000 1.0000
56.8400 127.0000 1.0000
56.8600 128.0000 1.0000
56.8800 134.0000 1.0000
56.9000 158.0000 1.0000
56.9200 150.0000 1.0000
56.9400 156.0000 1.0000
56.9600 156.0000 1.0000
56.9800 171.0000 1.0000
57.0000 180.0000 1.0000
57.0200 193.0000 1.0000
57.0400 208.0000 1.0000
57.0600 215.0000 1.0000
57.0800 210.0000 1.0000
57.1000 211.0000 1.0000
57.1200 254.0000 1.0000
57.1400 287.0000 1.0000
57.1600 326.0000 1.0000
57.1800 382.0000 1.0000
57.2000 454.0000 1.0000
57.2200 527.0000 1.0000
57.2400 661.0000 1.0000
57.2600 839.0000 1.0000
57.2800 977.0000 1.0000
57.3000 1159.0000 1.0000
57.3200 1302.0000 1.0000
57.3400 1357.0000 1.0000
57.3600 1370.0000 1.0000
57.3800 1301.0000 1.0000
57.4000 1198.0000 1.0000
57.4200 1066.0000 1.0000
57.4400 964.0000 1.0000
57.4600 947.0000 1.0000
57.4800 914.0000 1.0000
57.5000 893.0000 1.0000
57.5200 790.0000 1.0000
57.5400 675.0000 1.0000
57.5600 592.0000 1.0000
57.5800 497.0000 1.0000
57.6000 416.0000 1.0000
57.6200 361.0000 1.0000
57.6400 281.0000 1.0000
57.6600 248.0000 1.0000
57.6800 229.0000 1.0000
57.7000 212.0000 1.0000
57.7200 203.0000 1.0000
57.7400 207.0000 1.0000
57.7600 185.0000 1.0000
57.7800 179.0000 1.0000
57.8000 164.0000 1.0000
57.8200 185.0000 1.0000
57.8400 160.0000 1.0000
57.8600 161.0000 1.0000
57.8800 153.0000 1.0000
57.9000 161.0000 1.0000
57.9200 149.0000 1.0000
57.9400 147.0000 1.0000
57.9600 169.0000 1.0000
57.9800 151.0000 1.0000
58.0000 134.0000 1.0000
58.0200 155.0000 1.0000
58.0400 179.0000 1.0000
58.0600 169.0000 1.0000
58.0800 146.0000 1.0000
58.1000 137.0000 1.0000
58.1200 147.0000 1.0000
58.1400 144.0000 1.0000
58.1600 149.0000 1.0000
58.1800 138.0000 1.0000
58.2000 148.0000 1.0000
58.2200 169.0000 1.0000
58.2400 176.0000 1.0000
58.2600 176.0000 1.0000
58.2800 153.0000 1.0000
58.3000 170.0000 1.0000
58.3200 182.0000 1.0000
58.3400 171.0000 1.0000
58.3600 161.0000 1.0000
58.3800 174.0000 1.0000
58.4000 184.0000 1.0000
58.4200 190.0000 1.0000
58.4400 203.0000 1.0000
58.4600 202.0000 1.0000
58.4800 182.0000 1.0000
58.5000 209.0000 1.0000
58.5200 202.0000 1.0000
58.5400 211.0000 1.0000
58.5600 199.0000 1.0000
58.5800 204.0000 1.0000
58.6000 209.0000 1.0000
58.6200 189.0000 1.0000
58.6400 209.0000 1.0000
58.6600 155.0000 1.0000
58.6800 164.0000 1.0000
58.7000 170.0000 1.0000
58.7200 195.0000 1.0000
58.7400 174.0000 1.0000
58.7600 151.0000 1.0000
58.7800 167.0000 1.0000
58.8000 128.0000 1.0000
58.8200 134.0000 1.0000
58.8400 136.0000 1.0000
58.8600 139.0000 1.0000
58.8800 135.0000 1.0000
58.9000 132.0000 1.0000
58.9200 129.0000 1.0000
58.9400 125.0000 1.0000
58.9600 132.0000 1.0000
58.9800 113.0000 1.0000
59.0000 127.0000 1.0000
59.0200 132.0000 1.0000
59.0400 132.0000 1.0000
59.0600 138.0000 1.0000
59.0800 132.0000 1.0000
59.1000 132.0000 1.0000
59.1200 131.0000 1.0000
59.1400 136.0000 1.0000
59.1600 136.0000 1.0000
59.1800 148.0000 1.0000
59.2000 159.0000 1.0000
59.2200 165.0000 1.0000
59.2400 164.0000 1.0000
59.2600 150.0000 1.0000
59.2800 178.0000 1.0000
59.3000 179.0000 1.0000
59.3200 205.0000 1.0000
59.3400 186.0000 1.0000
59.3600 192.0000 1.0000
59.3800 188.0000 1.0000
59.4000 184.0000 1.0000
59.4200 200.0000 1.0000
59.4400 205.0000 1.0000
59.4600 210.0000 1.0000
59.4800 220.0000 1.0000
59.5000 210.0000 1.0000
59.5200 229.0000 1.0000
59.5400 208.0000 1.0000
59.5600 236.0000 1.0000
59.5800 244.0000 1.0000
59.6000 264.0000 1.0000
59.6200 287.0000 1.0000
59.6400 313.0000 1.0000
59.6600 357.0000 1.0000
59.6800 365.0000 1.0000
59.7000 429.0000 1.0000
59.7200 506.0000 1.0000
59.7400 575.0000 1.0000
59.7600 663.0000 1.0000
59.7800 716.0000 1.0000
59.8000 790.0000 1.0000
59.8200 761.0000 1.0000
59.8400 684.0000 1.0000
59.8600 659.0000 1.0000
59.8800 582.0000 1.0000
59.9000 547.0000 1.0000
59.9200 507.0000 1.0000
59.9400 475.0000 1.0000
59.9600 467.0000 1.0000
59.9800 471.0000 1.0000
60.0000 444.0000 1.0000
60.0200 414.0000 1.0000
60.0400 327.0000 1.0000
60.0600 310.0000 1.0000
60.0800 276.0000 1.0000
60.1000 216.0000 1.0000
60.1200 197.0000 1.0000
60.1400 190.0000 1.0000
60.1600 211.0000 1.0000
60.1800 188.0000 1.0000
60.2000 203.0000 1.0000
60.2200 203.0000 1.0000
60.2400 168.0000 1.0000
60.2600 192.0000 1.0000
60.2800 166.0000 1.0000
60.3000 164.0000 1.0000
60.3200 148.0000 1.0000
60.3400 175.0000 1.0000
60.3600 159.0000 1.0000
60.3800 149.0000 1.0000
60.4000 155.0000 1.0000
60.4200 149.0000 1.0000
60.4400 147.0000 1.0000
60.4600 170.0000 1.0000
60.4800 156.0000 1.0000
60.5000 162.0000 1.0000
60.5200 164.0000 1.0000
60.5400 152.0000 1.0000
60.5600 149.0000 1.0000
60.5800 156.0000 1.0000
60.6000 147.0000 1.0000
60.6200 151.0000 1.0000
60.6400 159.0000 1.0000
60.6600 141.0000 1.0000
60.6800 136.0000 1.0000
60.7000 174.0000 1.0000
60.7200 140.0000 1.0000
60.7400 126.0000 1.0000
60.7600 144.0000 1.0000
60.7800 157.0000 1.0000
60.8000 159.0000 1.0000
60.8200 153.0000 1.0000
60.8400 180.0000 1.0000
60.8600 178.0000 1.0000
60.8800 166.0000 1.0000
60.9000 204.0000 1.0000
60.9200 224.0000 1.0000
60.9400 233.0000 1.0000
60.9600 249.0000 1.0000
60.9800 275.0000 1.0000
61.0000 266.0000 1.0000
61.0200 289.0000 1.0000
61.0400 303.0000 1.0000
61.0600 271.0000 1.0000
61.0800 269.0000 1.0000
61.1000 298.0000 1.0000
61.1200 302.0000 1.0000
61.1400 304.0000 1.0000
61.1600 302.0000 1.0000
61.1800 300.0000 1.0000
61.2000 283.0000 1.0000
61.2200 232.0000 1.0000
61.2400 219.0000 1.0000
61.2600 232.0000 1.0000
61.2800 182.0000 1.0000
61.3000 209.0000 1.0000
61.3200 203.0000 1.0000
61.3400 203.0000 1.0000
61.3600 190.0000 1.0000
61.3800 160.0000 1.0000
61.4000 172.0000 1.0000
61.4200 171.0000 1.0000
61.4400 164.0000 1.0000
61.4600 165.0000 1.0000
61.4800 155.0000 1.0000
61.5000 172.0000 1.0000
61.5200 167.0000 1.0000
61.5400 159.0000 1.0000
61.5600 152.0000 1.0000
61.5800 165.0000 1.0000
61.6000 149.0000 1.0000
61.6200 192.0000 1.0000
61.6400 163.0000 1.0000
61.6600 180.0000 1.0000
61.6800 150.0000 1.0000
61.7000 155.0000 1.0000
61.7200 164.0000 1.0000
61.7400 158.0000 1.0000
61.7600 170.0000 1.0000
61.7800 150.0000 1.0000
61.8000 161.0000 1.0000
61.8200 171.0000 1.0000
61.8400 173.0000 1.0000
61.8600 172.0000 1.0000
61.8800 164.0000 1.0000
61.9000 147.0000 1.0000
61.9200 152.0000 1.0000
61.9400 154.0000 1.0000
61.9600 158.0000 1.0000
61.9800 145.0000 1.0000
62.0000 168.0000 1.0000
62.0200 154.0000 1.0000
62.0400 145.0000 1.0000
62.0600 146.0000 1.0000
62.0800 134.0000 1.0000
62.1000 170.0000 1.0000
62.1200 167.0000 1.0000
62.1400 161.0000 1.0000
62.1600 127.0000 1.0000
62.1800 134.0000 1.0000
62.2000 140.0000 1.0000
62.2200 133.0000 1.0000
62.2400 148.0000 1.0000
62.2600 142.0000 1.0000
62.2800 132.0000 1.0000
62.3000 148.0000 1.0000
62.3200 134.0000 1.0000
62.3400 137.0000 1.0000
62.3600 135.0000 1.0000
62.3800 146.0000 1.0000
62.4000 129.0000 1.0000
62.4200 137.0000 1.0000
62.4400 162.0000 1.0000
62.4600 147.0000 1.0000
62.4800 152.0000 1.0000
62.5000 152.0000 1.0000
62.5200 154.0000 1.0000
62.5400 144.0000 1.0000
62.5600 160.0000 1.0000
62.5800 138.0000 1.0000
62.6000 147.0000 1.0000
62.6200 145.0000 1.0000
62.6400 155.0000 1.0000
62.6600 168.0000 1.0000
62.6800 160.0000 1.0000
62.7000 150.0000 1.0000
62.7200 165.0000 1.0000
62.7400 164.0000 1.0000
62.7600 167.0000 1.0000
62.7800 178.0000 1.0000
62.8000 171.0000 1.0000
62.8200 169.0000 1.0000
62.8400 172.0000 1.0000
62.8600 183.0000 1.0000
62.8800 187.0000 1.0000
62.9000 184.0000 1.0000
62.9200 209.0000 1.0000
62.9400 196.0000 1.0000
62.9600 213.0000 1.0000
62.9800 222.0000 1.0000
63.0000 236.0000 1.0000
63.0200 216.0000 1.0000
63.0400 227.0000 1.0000
63.0600 217.0000 1.0000
63.0800 193.0000 1.0000
63.1000 204.0000 1.0000
63.1200 191.0000 1.0000
63.1400 203.0000 1.0000
63.1600 220.0000 1.0000
63.1800 208.0000 1.0000
63.2000 215.0000 1.0000
63.2200 216.0000 1.0000
63.2400 185.0000 1.0000
63.2600 196.0000 1.0000
63.2800 173.0000 1.0000
63.3000 188.0000 1.0000
63.3200 205.0000 1.0000
63.3400 195.0000 1.0000
63.3600 187.0000 1.0000
63.3800 185.0000 1.0000
63.4000 180.0000 1.0000
63.4200 191.0000 1.0000
63.4400 211.0000 1.0000
63.4600 226.0000 1.0000
63.4800 208.0000 1.0000
63.5000 239.0000 1.0000
63.5200 245.0000 1.0000
63.5400 251.0000 1.0000
63.5600 249.0000 1.0000
63.5800 240.0000 1.0000
63.6000 284.0000 1.0000
63.6200 274.0000 1.0000
63.6400 272.0000 1.0000
63.6600 281.0000 1.0000
63.6800 270.0000 1.0000
63.7000 301.0000 1.0000
63.7200 294.0000 1.0000
63.7400 295.0000 1.0000
63.7600 308.0000 1.0000
63.7800 293.0000 1.0000
63.8000 303.0000 1.0000
63.8200 337.0000 1.0000
63.8400 351.0000 1.0000
63.8600 362.0000 1.0000
63.8800 337.0000 1.0000
63.9000 317.0000 1.0000
63.9200 292.0000 1.0000
63.9400 290.0000 1.0000
63.9600 285.0000 1.0000
63.9800 231.0000 1.0000
64.0000 216.0000 1.0000
64.0200 231.0000 1.0000
64.0400 227.0000 1.0000
64.0600 212.0000 1.0000
64.0800 190.0000 1.0000
64.1000 210.0000 1.0000
64.1200 196.0000 1.0000
64.1400 170.0000 1.0000
64.1600 171.0000 1.0000
64.1800 161.0000 1.0000
64.2000 170.0000 1.0000
64.2200 162.0000 1.0000
64.2400 141.0000 1.0000
64.2600 130.0000 1.0000
64.2800 137.0000 1.0000
64.3000 149.0000 1.0000
64.3200 134.0000 1.0000
64.3400 154.0000 1.0000
64.3600 150.0000 1.0000
64.3800 149.0000 1.0000
64.4000 136.0000 1.0000
64.4200 132.0000 1.0000
64.4400 129.0000 1.0000
64.4600 124.0000 1.0000
64.4800 152.0000 1.0000
64.5000 144.0000 1.0000
64.5200 140.0000 1.0000
64.5400 154.0000 1.0000
64.5600 147.0000 1.0000
64.5800 141.0000 1.0000
64.6000 129.0000 1.0000
64.6200 132.0000 1.0000
64.6400 136.0000 1.0000
64.6600 141.0000 1.0000
64.6800 138.0000 1.0000
64.7000 138.0000 1.0000
64.7200 144.0000 1.0000
64.7400 142.0000 1.0000
64.7600 141.0000 1.0000
64.7800 140.0000 1.0000
64.8000 168.0000 1.0000
64.8200 176.0000 1.0000
64.8400 173.0000 1.0000
64.8600 165.0000 1.0000
64.8800 181.0000 1.0000
64.9000 195.0000 1.0000
64.9200 191.0000 1.0000
64.9400 180.0000 1.0000
64.9600 176.0000 1.0000
64.9800 176.0000 1.0000
65.0000 176.0000 1.0000
*RAS_INT_END
*RAS_DATA_END
