*RAS_DATA_START
*RAS_HEADER_START
*CORR_POS_DB_NAME "Angle Correction ASC6 SC WITH Mono_04082019"
*CORR_POS_GONIO_RADIUS ""
*CORR_POS_NODE_INDEX01 ""
*CORR_POS_NODE_INDEX02 ""
*CORR_POS_NODE_INDEX03 ""
*CORR_POS_NODE_INDEX04 ""
*CORR_POS_NODE_INDEX05 ""
*CORR_POS_NODE_INDEX06 ""
*CORR_POS_NODE_INDEX07 ""
*CORR_POS_NODE_INDEX08 ""
*CORR_POS_NODE_INDEX09 ""
*CORR_POS_NODE_INDEX10 ""
*CORR_POS_NODE_INDEX11 ""
*CORR_POS_NODE_LABEL01 "Si(111)"
*CORR_POS_NODE_LABEL02 "Si(220)"
*CORR_POS_NODE_LABEL03 "Si(311)"
*CORR_POS_NODE_LABEL04 "Si(400)"
*CORR_POS_NODE_LABEL05 "Si(331)"
*CORR_POS_NODE_LABEL06 "Si(422)"
*CORR_POS_NODE_LABEL07 "Si(511)"
*CORR_POS_NODE_LABEL08 "Si(440)"
*CORR_POS_NODE_LABEL09 "Si(531)"
*CORR_POS_NODE_LABEL10 "Si(620)"
*CORR_POS_NODE_LABEL11 "Si(533)"
*CORR_POS_NODE_POS_CALC01 "28.377"
*CORR_POS_NODE_POS_CALC02 "47.2506"
*CORR_POS_NODE_POS_CALC03 "56.0725"
*CORR_POS_NODE_POS_CALC04 "69.0822"
*CORR_POS_NODE_POS_CALC05 "76.3294"
*CORR_POS_NODE_POS_CALC06 "87.9853"
*CORR_POS_NODE_POS_CALC07 "94.9091"
*CORR_POS_NODE_POS_CALC08 "106.668"
*CORR_POS_NODE_POS_CALC09 "114.054"
*CORR_POS_NODE_POS_CALC10 "127.511"
*CORR_POS_NODE_POS_CALC11 "136.864"
*CORR_POS_NODE_POS_MEAS01 "28.5058"
*CORR_POS_NODE_POS_MEAS02 "47.345"
*CORR_POS_NODE_POS_MEAS03 "56.1421"
*CORR_POS_NODE_POS_MEAS04 "69.1304"
*CORR_POS_NODE_POS_MEAS05 "76.366"
*CORR_POS_NODE_POS_MEAS06 "88.0213"
*CORR_POS_NODE_POS_MEAS07 "94.9406"
*CORR_POS_NODE_POS_MEAS08 "106.689"
*CORR_POS_NODE_POS_MEAS09 "114.065"
*CORR_POS_NODE_POS_MEAS10 "127.518"
*CORR_POS_NODE_POS_MEAS11 "136.869"
*CORR_POS_OPT_ATTR "集中法"
*CORR_POS_PARAM_MU ""
*CORR_POS_PARAM_PL ""
*CORR_POS_SEMODEL_TYPE "0"
*CORR_POS_STANDARD_TYPE ""
*CORR_POS_VALUE_ANALYZER "None"
*CORR_POS_VALUE_CMONO "None"
*CORR_POS_VALUE_IMONO "None"
*CORR_POS_VALUE_IS "1.250deg"
*CORR_POS_VALUE_ISL "10.0mm"
*CORR_POS_VALUE_ISOLLER "5.0deg"
*CORR_POS_VALUE_RS1 "1.250deg"
*CORR_POS_VALUE_RS2 "0.3mm"
*CORR_POS_VALUE_RSOLLER "5.0deg"
*CORR_POS_XG_FOCUS_L ""
*CORR_POS_XG_WAVE_TYPE ""
*CORR_POS_XG_WAVE_VALUE ""
*DISP_FMT_X "%.2f"
*DISP_FMT_Y "%.0f"
*DISP_FULLSCALE "6834.6000000000"
*DISP_LINE_COLOR "255.0000000000"
*DISP_LINE_STYLE "0.0000000000"
*DISP_LINE_WIDTH "0.2500000000"
*DISP_NOTE "Collected Data-23"
*DISP_OFFSET_Y "0.0000000000"
*DISP_PEAKSEARCH_UNIT_Y "CPS"
*DISP_RANGE_BOTTOM "0.0000000000"
*DISP_RANGE_LEFT "5.0000000000"
*DISP_RANGE_LOGCUTOFF "0.0100000000"
*DISP_RANGE_RIGHT "65.0000000000"
*DISP_RANGE_TOP "6834.6000000000"
*DISP_SCALE_MODE_Y "0.0000000000"
*DISP_TAB_NAME "Theta/2-Theta"
*DISP_TITLE_Y "Intensity"
*DISP_UNIT_Y "CPS"
*DISP_WINDOW_NAME "MSG_MACROENGINE"
*FILE_COMMENT " "
*FILE_MD5 ""
*FILE_MEMO " "
*FILE_OPERATOR "administrator"
*FILE_PART_ID "MEAS_PBEA_00223"
*FILE_SAMPLE " "
*FILE_TYPE "RAS_RAW"
*FILE_USERGROUP "System Manager"
*FILE_VERSION "1.0000000000"
*HW_ATTACHMENT_ID "ATT1031"
*HW_ATTACHMENT_NAME "6サンプルチェンジャ|ASC-6"
*HW_COUNTER_ID-0 "CUT0021"
*HW_COUNTER_ID-1 "CUT0020"
*HW_COUNTER_ID-2 "CUT0020"
*HW_COUNTER_ID-3 "CMC0021"
*HW_COUNTER_NAME-0 "SC-70|SC-70"
*HW_COUNTER_NAME-1 "None|None"
*HW_COUNTER_NAME-2 "None|None"
*HW_COUNTER_NAME-3 "検出器モノクロメータ|Detector monochromator"
*HW_COUNTER_SELECT_NAME "SC-70|SC-70"
*HW_ECP_HV "671.5000000000"
*HW_ECP_HV_UNIT "V"
*HW_GONIOMETER_ID "GON0070"
*HW_GONIOMETER_NAME "MiniFlex 300/600|MiniFlex 300/600"
*HW_GONIOMETER_RADIUS-0 "79.0"
*HW_GONIOMETER_RADIUS-1 "91.5"
*HW_GONIOMETER_RADIUS-2 "150.0"
*HW_GONIOMETER_RADIUS-3 "0"
*HW_GONIOMETER_RADIUS-4 "103.4"
*HW_GONIOMETER_RADIUS-5 "150.0"
*HW_GONIOMETER_RADIUS-6 "46.6"
*HW_GONIOMETER_RADIUS-7 "160.0"
*HW_I_OPT_ID-0 "ISL0021"
*HW_I_OPT_ID-1 "ISO0021"
*HW_I_OPT_NAME-0 "発散スリット|Divergence slit"
*HW_I_OPT_NAME-1 "入射平行スリット|Incident parallel slit"
*HW_R_ATTENUATER_AUTOMODE "0"
*HW_R_OPT_ID-0 "RSS0021"
*HW_R_OPT_ID-1 "RSO0021"
*HW_R_OPT_ID-2 "RRS0021"
*HW_R_OPT_NAME-0 "散乱スリット|Scattering slit"
*HW_R_OPT_NAME-1 "受光平行スリット|Receiving soller slit"
*HW_R_OPT_NAME-2 "受光スリット|Receiving slit"
*HW_SAMPLE_HOLDER_ID "SMP0000"
*HW_SAMPLE_HOLDER_NAME "無し|None"
*HW_XG_CURRENT_MAX "15"
*HW_XG_CURRENT_MIN "2"
*HW_XG_CURRENT_RESOLUTION "1"
*HW_XG_CURRENT_UNIT "mA"
*HW_XG_FOCUS "1mm x 10mm"
*HW_XG_FOCUS_TYPE "Normal"
*HW_XG_ID "1060"
*HW_XG_NAME "300W/600W 封入管-B|300W/600W Sealed tube-B"
*HW_XG_TARGET_ATOMIC_NUMBER "29.0000000000"
*HW_XG_TARGET_NAME "Cu"
*HW_XG_TYPE "Hermetic"
*HW_XG_VOLTAGE_MAX "40"
*HW_XG_VOLTAGE_MIN "20"
*HW_XG_VOLTAGE_RESOLUTION "1"
*HW_XG_VOLTAGE_UNIT "kV"
*HW_XG_WATT_MAX "0.600"
*HW_XG_WATT_UNIT "kW"
*HW_XG_WAVE_LENGTH_ALPHA1 "1.540593"
*HW_XG_WAVE_LENGTH_ALPHA2 "1.544414"
*HW_XG_WAVE_LENGTH_BETA "1.392250"
*MEAS_COND_AXIS_NAME-0 "Theta/2-Theta"
*MEAS_COND_AXIS_NAME-1 "Spin"
*MEAS_COND_AXIS_NAME-2 "Change"
*MEAS_COND_AXIS_NAME-3 "Soller(inc.)"
*MEAS_COND_AXIS_NAME-4 "IHS"
*MEAS_COND_AXIS_NAME-5 "DS"
*MEAS_COND_AXIS_NAME-6 "SS"
*MEAS_COND_AXIS_NAME-7 "Soller(rec.)"
*MEAS_COND_AXIS_NAME-8 "RS"
*MEAS_COND_AXIS_NAME-9 "Filter"
*MEAS_COND_AXIS_NAME-10 "Monochromator"
*MEAS_COND_AXIS_NAME-11 "HV"
*MEAS_COND_AXIS_NAME-12 "PHA"
*MEAS_COND_AXIS_NAME_INTERNAL-0 "TwoThetaTheta"
*MEAS_COND_AXIS_NAME_INTERNAL-1 "Spin"
*MEAS_COND_AXIS_NAME_INTERNAL-2 "Change"
*MEAS_COND_AXIS_NAME_INTERNAL-3 "IncidentSollerSlit"
*MEAS_COND_AXIS_NAME_INTERNAL-4 "IncidentAxdSlit"
*MEAS_COND_AXIS_NAME_INTERNAL-5 "IncidentSlitBox"
*MEAS_COND_AXIS_NAME_INTERNAL-6 "ReceivingSlitBox1"
*MEAS_COND_AXIS_NAME_INTERNAL-7 "ReceivingSollerSlit"
*MEAS_COND_AXIS_NAME_INTERNAL-8 "ReceivingSlitBox2"
*MEAS_COND_AXIS_NAME_INTERNAL-9 "Filter"
*MEAS_COND_AXIS_NAME_INTERNAL-10 "CounterMonochromator"
*MEAS_COND_AXIS_NAME_INTERNAL-11 "HV"
*MEAS_COND_AXIS_NAME_INTERNAL-12 "PHA"
*MEAS_COND_AXIS_NAME_MAGICNO-0 "268632064.0000000000"
*MEAS_COND_AXIS_NAME_MAGICNO-1 "16842752.0000000000"
*MEAS_COND_AXIS_NAME_MAGICNO-2 "16842752.0000000000"
*MEAS_COND_AXIS_NAME_MAGICNO-3 "20971521.0000000000"
*MEAS_COND_AXIS_NAME_MAGICNO-4 "22020097.0000000000"
*MEAS_COND_AXIS_NAME_MAGICNO-5 "22020097.0000000000"
*MEAS_COND_AXIS_NAME_MAGICNO-6 "23068673.0000000000"
*MEAS_COND_AXIS_NAME_MAGICNO-7 "20971521.0000000000"
*MEAS_COND_AXIS_NAME_MAGICNO-8 "23068673.0000000000"
*MEAS_COND_AXIS_NAME_MAGICNO-9 "20971521.0000000000"
*MEAS_COND_AXIS_NAME_MAGICNO-10 "20971521.0000000000"
*MEAS_COND_AXIS_NAME_MAGICNO-11 "0.0000000000"
*MEAS_COND_AXIS_NAME_MAGICNO-12 "0.0000000000"
*MEAS_COND_AXIS_OFFSET-0 "0.0000000000"
*MEAS_COND_AXIS_OFFSET-1 "-"
*MEAS_COND_AXIS_OFFSET-2 "-"
*MEAS_COND_AXIS_OFFSET-3 "-"
*MEAS_COND_AXIS_OFFSET-4 "-"
*MEAS_COND_AXIS_OFFSET-5 "-"
*MEAS_COND_AXIS_OFFSET-6 "-"
*MEAS_COND_AXIS_OFFSET-7 "-"
*MEAS_COND_AXIS_OFFSET-8 "-"
*MEAS_COND_AXIS_OFFSET-9 "-"
*MEAS_COND_AXIS_OFFSET-10 "-"
*MEAS_COND_AXIS_OFFSET-11 "-"
*MEAS_COND_AXIS_OFFSET-12 "-"
*MEAS_COND_AXIS_POSITION-0 "10.0000000000"
*MEAS_COND_AXIS_POSITION-1 "0.0000000000"
*MEAS_COND_AXIS_POSITION-2 "1.0000000000"
*MEAS_COND_AXIS_POSITION-3 "5.0deg"
*MEAS_COND_AXIS_POSITION-4 "10.0mm"
*MEAS_COND_AXIS_POSITION-5 "1.250deg"
*MEAS_COND_AXIS_POSITION-6 "1.250deg"
*MEAS_COND_AXIS_POSITION-7 "5.0deg"
*MEAS_COND_AXIS_POSITION-8 "0.3mm"
*MEAS_COND_AXIS_POSITION-9 "None"
*MEAS_COND_AXIS_POSITION-10 "Bent"
*MEAS_COND_AXIS_POSITION-11 "671.5000000000"
*MEAS_COND_AXIS_POSITION-12 "551.2500000000"
*MEAS_COND_AXIS_UNIT-0 "deg"
*MEAS_COND_AXIS_UNIT-1 ""
*MEAS_COND_AXIS_UNIT-2 ""
*MEAS_COND_AXIS_UNIT-3 ""
*MEAS_COND_AXIS_UNIT-4 ""
*MEAS_COND_AXIS_UNIT-5 ""
*MEAS_COND_AXIS_UNIT-6 ""
*MEAS_COND_AXIS_UNIT-7 ""
*MEAS_COND_AXIS_UNIT-8 ""
*MEAS_COND_AXIS_UNIT-9 ""
*MEAS_COND_AXIS_UNIT-10 ""
*MEAS_COND_AXIS_UNIT-11 "V"
*MEAS_COND_AXIS_UNIT-12 "mV"
*MEAS_COND_CORRECTION_SLIT_COUNTERMONO "None"
*MEAS_COND_CORRECTION_SLIT_DS "1.250deg"
*MEAS_COND_CORRECTION_SLIT_FILTER "None"
*MEAS_COND_CORRECTION_SLIT_IHS "10.0mm"
*MEAS_COND_CORRECTION_SLIT_RS "0.3mm"
*MEAS_COND_CORRECTION_SLIT_SOLLER_INC "5.0deg"
*MEAS_COND_CORRECTION_SLIT_SOLLER_REC "5.0deg"
*MEAS_COND_CORRECTION_SLIT_SS "1.250deg"
*MEAS_COND_COUNTER_CNTLOSS_CORR "0.0000000000"
*MEAS_COND_COUNTER_PHABASE "551.2500000000"
*MEAS_COND_COUNTER_PHAWINDOW "926.2500000000"
*MEAS_COND_COUNTER_PHA_UNIT "mV"
*MEAS_COND_COUNTER_TAUDIFF "0.2500000000"
*MEAS_COND_COUNTER_TAUINT "0.7500000000"
*MEAS_COND_IRRADIATION_MODE "OFF"
*MEAS_COND_IRRADIATION_WIDTH ""
*MEAS_COND_OPT_ATTR " "
*MEAS_COND_OPT_NAME ""
*MEAS_COND_UNSYMMETRIC_MODE "OFF"
*MEAS_COND_XG_CURRENT "15.0000000000"
*MEAS_COND_XG_VOLTAGE "40.0000000000"
*MEAS_COND_XG_WAVE_TYPE "Ka"
*MEAS_DATA_COUNT "3001.0000000000"
*MEAS_SCAN_AXIS_X "Theta/2-Theta"
*MEAS_SCAN_AXIS_X_INTERNAL "TwoThetaTheta"
*MEAS_SCAN_END_TIME "06/17/25 19:27:35"
*MEAS_SCAN_MODE "STEP"
*MEAS_SCAN_MONITOR "0"
*MEAS_SCAN_RESOLUTION_X "0.0025"
*MEAS_SCAN_SPEED "2.00"
*MEAS_SCAN_SPEED_UNIT "sec."
*MEAS_SCAN_SPEED_USER "2.00"
*MEAS_SCAN_START "5.0000000000"
*MEAS_SCAN_START_TIME "06/17/25 17:42:25"
*MEAS_SCAN_STEP "0.0200000000"
*MEAS_SCAN_STOP "65.0000000000"
*MEAS_SCAN_UNIT_X "deg"
*MEAS_SCAN_UNIT_Y "counts"
*SLIT_SYSTEM "0"
*RAS_HEADER_END
*RAS_INT_START
5.0000 1016.0000 1.0000
5.0200 975.0000 1.0000
5.0400 878.0000 1.0000
5.0600 875.0000 1.0000
5.0800 912.0000 1.0000
5.1000 959.0000 1.0000
5.1200 1010.0000 1.0000
5.1400 999.0000 1.0000
5.1600 934.0000 1.0000
5.1800 890.0000 1.0000
5.2000 948.0000 1.0000
5.2200 927.0000 1.0000
5.2400 841.0000 1.0000
5.2600 909.0000 1.0000
5.2800 905.0000 1.0000
5.3000 930.0000 1.0000
5.3200 930.0000 1.0000
5.3400 934.0000 1.0000
5.3600 847.0000 1.0000
5.3800 868.0000 1.0000
5.4000 833.0000 1.0000
5.4200 941.0000 1.0000
5.4400 824.0000 1.0000
5.4600 899.0000 1.0000
5.4800 876.0000 1.0000
5.5000 845.0000 1.0000
5.5200 788.0000 1.0000
5.5400 839.0000 1.0000
5.5600 856.0000 1.0000
5.5800 870.0000 1.0000
5.6000 810.0000 1.0000
5.6200 821.0000 1.0000
5.6400 748.0000 1.0000
5.6600 739.0000 1.0000
5.6800 717.0000 1.0000
5.7000 754.0000 1.0000
5.7200 819.0000 1.0000
5.7400 810.0000 1.0000
5.7600 846.0000 1.0000
5.7800 863.0000 1.0000
5.8000 837.0000 1.0000
5.8200 825.0000 1.0000
5.8400 803.0000 1.0000
5.8600 832.0000 1.0000
5.8800 832.0000 1.0000
5.9000 820.0000 1.0000
5.9200 845.0000 1.0000
5.9400 883.0000 1.0000
5.9600 846.0000 1.0000
5.9800 896.0000 1.0000
6.0000 847.0000 1.0000
6.0200 810.0000 1.0000
6.0400 826.0000 1.0000
6.0600 884.0000 1.0000
6.0800 885.0000 1.0000
6.1000 851.0000 1.0000
6.1200 848.0000 1.0000
6.1400 903.0000 1.0000
6.1600 855.0000 1.0000
6.1800 828.0000 1.0000
6.2000 825.0000 1.0000
6.2200 817.0000 1.0000
6.2400 784.0000 1.0000
6.2600 752.0000 1.0000
6.2800 782.0000 1.0000
6.3000 771.0000 1.0000
6.3200 754.0000 1.0000
6.3400 745.0000 1.0000
6.3600 743.0000 1.0000
6.3800 820.0000 1.0000
6.4000 765.0000 1.0000
6.4200 724.0000 1.0000
6.4400 763.0000 1.0000
6.4600 726.0000 1.0000
6.4800 686.0000 1.0000
6.5000 707.0000 1.0000
6.5200 690.0000 1.0000
6.5400 674.0000 1.0000
6.5600 680.0000 1.0000
6.5800 670.0000 1.0000
6.6000 707.0000 1.0000
6.6200 722.0000 1.0000
6.6400 669.0000 1.0000
6.6600 681.0000 1.0000
6.6800 688.0000 1.0000
6.7000 647.0000 1.0000
6.7200 662.0000 1.0000
6.7400 648.0000 1.0000
6.7600 613.0000 1.0000
6.7800 617.0000 1.0000
6.8000 643.0000 1.0000
6.8200 633.0000 1.0000
6.8400 603.0000 1.0000
6.8600 629.0000 1.0000
6.8800 614.0000 1.0000
6.9000 617.0000 1.0000
6.9200 626.0000 1.0000
6.9400 595.0000 1.0000
6.9600 590.0000 1.0000
6.9800 615.0000 1.0000
7.0000 630.0000 1.0000
7.0200 604.0000 1.0000
7.0400 602.0000 1.0000
7.0600 593.0000 1.0000
7.0800 620.0000 1.0000
7.1000 621.0000 1.0000
7.1200 582.0000 1.0000
7.1400 581.0000 1.0000
7.1600 569.0000 1.0000
7.1800 580.0000 1.0000
7.2000 581.0000 1.0000
7.2200 595.0000 1.0000
7.2400 632.0000 1.0000
7.2600 620.0000 1.0000
7.2800 590.0000 1.0000
7.3000 599.0000 1.0000
7.3200 615.0000 1.0000
7.3400 565.0000 1.0000
7.3600 551.0000 1.0000
7.3800 590.0000 1.0000
7.4000 588.0000 1.0000
7.4200 569.0000 1.0000
7.4400 555.0000 1.0000
7.4600 546.0000 1.0000
7.4800 567.0000 1.0000
7.5000 565.0000 1.0000
7.5200 527.0000 1.0000
7.5400 538.0000 1.0000
7.5600 571.0000 1.0000
7.5800 599.0000 1.0000
7.6000 590.0000 1.0000
7.6200 601.0000 1.0000
7.6400 567.0000 1.0000
7.6600 527.0000 1.0000
7.6800 567.0000 1.0000
7.7000 582.0000 1.0000
7.7200 537.0000 1.0000
7.7400 538.0000 1.0000
7.7600 583.0000 1.0000
7.7800 567.0000 1.0000
7.8000 541.0000 1.0000
7.8200 528.0000 1.0000
7.8400 581.0000 1.0000
7.8600 616.0000 1.0000
7.8800 612.0000 1.0000
7.9000 615.0000 1.0000
7.9200 543.0000 1.0000
7.9400 532.0000 1.0000
7.9600 580.0000 1.0000
7.9800 576.0000 1.0000
8.0000 525.0000 1.0000
8.0200 582.0000 1.0000
8.0400 600.0000 1.0000
8.0600 589.0000 1.0000
8.0800 654.0000 1.0000
8.1000 618.0000 1.0000
8.1200 628.0000 1.0000
8.1400 627.0000 1.0000
8.1600 614.0000 1.0000
8.1800 653.0000 1.0000
8.2000 654.0000 1.0000
8.2200 630.0000 1.0000
8.2400 694.0000 1.0000
8.2600 672.0000 1.0000
8.2800 697.0000 1.0000
8.3000 768.0000 1.0000
8.3200 770.0000 1.0000
8.3400 708.0000 1.0000
8.3600 760.0000 1.0000
8.3800 769.0000 1.0000
8.4000 805.0000 1.0000
8.4200 872.0000 1.0000
8.4400 910.0000 1.0000
8.4600 947.0000 1.0000
8.4800 932.0000 1.0000
8.5000 925.0000 1.0000
8.5200 1046.0000 1.0000
8.5400 1114.0000 1.0000
8.5600 1155.0000 1.0000
8.5800 1209.0000 1.0000
8.6000 1247.0000 1.0000
8.6200 1311.0000 1.0000
8.6400 1367.0000 1.0000
8.6600 1405.0000 1.0000
8.6800 1401.0000 1.0000
8.7000 1377.0000 1.0000
8.7200 1354.0000 1.0000
8.7400 1169.0000 1.0000
8.7600 1009.0000 1.0000
8.7800 919.0000 1.0000
8.8000 760.0000 1.0000
8.8200 697.0000 1.0000
8.8400 607.0000 1.0000
8.8600 591.0000 1.0000
8.8800 497.0000 1.0000
8.9000 460.0000 1.0000
8.9200 452.0000 1.0000
8.9400 418.0000 1.0000
8.9600 457.0000 1.0000
8.9800 418.0000 1.0000
9.0000 409.0000 1.0000
9.0200 396.0000 1.0000
9.0400 387.0000 1.0000
9.0600 375.0000 1.0000
9.0800 375.0000 1.0000
9.1000 376.0000 1.0000
9.1200 328.0000 1.0000
9.1400 374.0000 1.0000
9.1600 377.0000 1.0000
9.1800 389.0000 1.0000
9.2000 355.0000 1.0000
9.2200 343.0000 1.0000
9.2400 356.0000 1.0000
9.2600 361.0000 1.0000
9.2800 348.0000 1.0000
9.3000 315.0000 1.0000
9.3200 337.0000 1.0000
9.3400 328.0000 1.0000
9.3600 305.0000 1.0000
9.3800 271.0000 1.0000
9.4000 282.0000 1.0000
9.4200 311.0000 1.0000
9.4400 341.0000 1.0000
9.4600 332.0000 1.0000
9.4800 310.0000 1.0000
9.5000 362.0000 1.0000
9.5200 273.0000 1.0000
9.5400 325.0000 1.0000
9.5600 326.0000 1.0000
9.5800 310.0000 1.0000
9.6000 319.0000 1.0000
9.6200 363.0000 1.0000
9.6400 335.0000 1.0000
9.6600 315.0000 1.0000
9.6800 276.0000 1.0000
9.7000 301.0000 1.0000
9.7200 304.0000 1.0000
9.7400 307.0000 1.0000
9.7600 281.0000 1.0000
9.7800 298.0000 1.0000
9.8000 229.0000 1.0000
9.8200 276.0000 1.0000
9.8400 256.0000 1.0000
9.8600 318.0000 1.0000
9.8800 289.0000 1.0000
9.9000 259.0000 1.0000
9.9200 275.0000 1.0000
9.9400 308.0000 1.0000
9.9600 308.0000 1.0000
9.9800 320.0000 1.0000
10.0000 299.0000 1.0000
10.0200 351.0000 1.0000
10.0400 337.0000 1.0000
10.0600 294.0000 1.0000
10.0800 341.0000 1.0000
10.1000 378.0000 1.0000
10.1200 410.0000 1.0000
10.1400 422.0000 1.0000
10.1600 453.0000 1.0000
10.1800 457.0000 1.0000
10.2000 500.0000 1.0000
10.2200 567.0000 1.0000
10.2400 632.0000 1.0000
10.2600 700.0000 1.0000
10.2800 942.0000 1.0000
10.3000 900.0000 1.0000
10.3200 994.0000 1.0000
10.3400 1020.0000 1.0000
10.3600 1066.0000 1.0000
10.3800 913.0000 1.0000
10.4000 798.0000 1.0000
10.4200 687.0000 1.0000
10.4400 496.0000 1.0000
10.4600 400.0000 1.0000
10.4800 284.0000 1.0000
10.5000 272.0000 1.0000
10.5200 288.0000 1.0000
10.5400 277.0000 1.0000
10.5600 267.0000 1.0000
10.5800 265.0000 1.0000
10.6000 279.0000 1.0000
10.6200 231.0000 1.0000
10.6400 232.0000 1.0000
10.6600 200.0000 1.0000
10.6800 278.0000 1.0000
10.7000 241.0000 1.0000
10.7200 230.0000 1.0000
10.7400 289.0000 1.0000
10.7600 214.0000 1.0000
10.7800 246.0000 1.0000
10.8000 222.0000 1.0000
10.8200 244.0000 1.0000
10.8400 229.0000 1.0000
10.8600 220.0000 1.0000
10.8800 203.0000 1.0000
10.9000 175.0000 1.0000
10.9200 193.0000 1.0000
10.9400 212.0000 1.0000
10.9600 200.0000 1.0000
10.9800 218.0000 1.0000
11.0000 201.0000 1.0000
11.0200 214.0000 1.0000
11.0400 208.0000 1.0000
11.0600 189.0000 1.0000
11.0800 192.0000 1.0000
11.1000 189.0000 1.0000
11.1200 188.0000 1.0000
11.1400 203.0000 1.0000
11.1600 161.0000 1.0000
11.1800 177.0000 1.0000
11.2000 197.0000 1.0000
11.2200 185.0000 1.0000
11.2400 178.0000 1.0000
11.2600 161.0000 1.0000
11.2800 171.0000 1.0000
11.3000 179.0000 1.0000
11.3200 180.0000 1.0000
11.3400 162.0000 1.0000
11.3600 193.0000 1.0000
11.3800 179.0000 1.0000
11.4000 180.0000 1.0000
11.4200 170.0000 1.0000
11.4400 199.0000 1.0000
11.4600 166.0000 1.0000
11.4800 176.0000 1.0000
11.5000 164.0000 1.0000
11.5200 172.0000 1.0000
11.5400 177.0000 1.0000
11.5600 173.0000 1.0000
11.5800 187.0000 1.0000
11.6000 182.0000 1.0000
11.6200 163.0000 1.0000
11.6400 175.0000 1.0000
11.6600 194.0000 1.0000
11.6800 168.0000 1.0000
11.7000 173.0000 1.0000
11.7200 169.0000 1.0000
11.7400 169.0000 1.0000
11.7600 159.0000 1.0000
11.7800 141.0000 1.0000
11.8000 157.0000 1.0000
11.8200 195.0000 1.0000
11.8400 166.0000 1.0000
11.8600 178.0000 1.0000
11.8800 187.0000 1.0000
11.9000 185.0000 1.0000
11.9200 198.0000 1.0000
11.9400 163.0000 1.0000
11.9600 178.0000 1.0000
11.9800 181.0000 1.0000
12.0000 187.0000 1.0000
12.0200 162.0000 1.0000
12.0400 165.0000 1.0000
12.0600 164.0000 1.0000
12.0800 176.0000 1.0000
12.1000 184.0000 1.0000
12.1200 179.0000 1.0000
12.1400 162.0000 1.0000
12.1600 194.0000 1.0000
12.1800 213.0000 1.0000
12.2000 227.0000 1.0000
12.2200 193.0000 1.0000
12.2400 182.0000 1.0000
12.2600 182.0000 1.0000
12.2800 216.0000 1.0000
12.3000 214.0000 1.0000
12.3200 217.0000 1.0000
12.3400 238.0000 1.0000
12.3600 230.0000 1.0000
12.3800 255.0000 1.0000
12.4000 246.0000 1.0000
12.4200 253.0000 1.0000
12.4400 287.0000 1.0000
12.4600 255.0000 1.0000
12.4800 223.0000 1.0000
12.5000 196.0000 1.0000
12.5200 169.0000 1.0000
12.5400 191.0000 1.0000
12.5600 191.0000 1.0000
12.5800 180.0000 1.0000
12.6000 184.0000 1.0000
12.6200 141.0000 1.0000
12.6400 142.0000 1.0000
12.6600 158.0000 1.0000
12.6800 149.0000 1.0000
12.7000 147.0000 1.0000
12.7200 150.0000 1.0000
12.7400 147.0000 1.0000
12.7600 157.0000 1.0000
12.7800 164.0000 1.0000
12.8000 145.0000 1.0000
12.8200 153.0000 1.0000
12.8400 153.0000 1.0000
12.8600 147.0000 1.0000
12.8800 148.0000 1.0000
12.9000 152.0000 1.0000
12.9200 136.0000 1.0000
12.9400 168.0000 1.0000
12.9600 160.0000 1.0000
12.9800 153.0000 1.0000
13.0000 160.0000 1.0000
13.0200 154.0000 1.0000
13.0400 133.0000 1.0000
13.0600 168.0000 1.0000
13.0800 162.0000 1.0000
13.1000 140.0000 1.0000
13.1200 135.0000 1.0000
13.1400 147.0000 1.0000
13.1600 149.0000 1.0000
13.1800 155.0000 1.0000
13.2000 136.0000 1.0000
13.2200 143.0000 1.0000
13.2400 172.0000 1.0000
13.2600 164.0000 1.0000
13.2800 168.0000 1.0000
13.3000 166.0000 1.0000
13.3200 143.0000 1.0000
13.3400 157.0000 1.0000
13.3600 178.0000 1.0000
13.3800 175.0000 1.0000
13.4000 169.0000 1.0000
13.4200 167.0000 1.0000
13.4400 195.0000 1.0000
13.4600 203.0000 1.0000
13.4800 225.0000 1.0000
13.5000 212.0000 1.0000
13.5200 217.0000 1.0000
13.5400 249.0000 1.0000
13.5600 264.0000 1.0000
13.5800 243.0000 1.0000
13.6000 256.0000 1.0000
13.6200 302.0000 1.0000
13.6400 288.0000 1.0000
13.6600 315.0000 1.0000
13.6800 376.0000 1.0000
13.7000 440.0000 1.0000
13.7200 491.0000 1.0000
13.7400 535.0000 1.0000
13.7600 578.0000 1.0000
13.7800 610.0000 1.0000
13.8000 580.0000 1.0000
13.8200 540.0000 1.0000
13.8400 461.0000 1.0000
13.8600 394.0000 1.0000
13.8800 287.0000 1.0000
13.9000 237.0000 1.0000
13.9200 223.0000 1.0000
13.9400 203.0000 1.0000
13.9600 190.0000 1.0000
13.9800 181.0000 1.0000
14.0000 182.0000 1.0000
14.0200 166.0000 1.0000
14.0400 143.0000 1.0000
14.0600 148.0000 1.0000
14.0800 142.0000 1.0000
14.1000 141.0000 1.0000
14.1200 135.0000 1.0000
14.1400 134.0000 1.0000
14.1600 135.0000 1.0000
14.1800 139.0000 1.0000
14.2000 148.0000 1.0000
14.2200 145.0000 1.0000
14.2400 139.0000 1.0000
14.2600 130.0000 1.0000
14.2800 134.0000 1.0000
14.3000 137.0000 1.0000
14.3200 125.0000 1.0000
14.3400 145.0000 1.0000
14.3600 142.0000 1.0000
14.3800 137.0000 1.0000
14.4000 149.0000 1.0000
14.4200 149.0000 1.0000
14.4400 144.0000 1.0000
14.4600 148.0000 1.0000
14.4800 143.0000 1.0000
14.5000 129.0000 1.0000
14.5200 131.0000 1.0000
14.5400 130.0000 1.0000
14.5600 127.0000 1.0000
14.5800 135.0000 1.0000
14.6000 126.0000 1.0000
14.6200 104.0000 1.0000
14.6400 111.0000 1.0000
14.6600 128.0000 1.0000
14.6800 142.0000 1.0000
14.7000 145.0000 1.0000
14.7200 154.0000 1.0000
14.7400 159.0000 1.0000
14.7600 141.0000 1.0000
14.7800 137.0000 1.0000
14.8000 143.0000 1.0000
14.8200 150.0000 1.0000
14.8400 163.0000 1.0000
14.8600 152.0000 1.0000
14.8800 162.0000 1.0000
14.9000 202.0000 1.0000
14.9200 211.0000 1.0000
14.9400 213.0000 1.0000
14.9600 227.0000 1.0000
14.9800 220.0000 1.0000
15.0000 190.0000 1.0000
15.0200 173.0000 1.0000
15.0400 177.0000 1.0000
15.0600 163.0000 1.0000
15.0800 149.0000 1.0000
15.1000 140.0000 1.0000
15.1200 136.0000 1.0000
15.1400 146.0000 1.0000
15.1600 153.0000 1.0000
15.1800 154.0000 1.0000
15.2000 135.0000 1.0000
15.2200 129.0000 1.0000
15.2400 133.0000 1.0000
15.2600 126.0000 1.0000
15.2800 135.0000 1.0000
15.3000 137.0000 1.0000
15.3200 123.0000 1.0000
15.3400 127.0000 1.0000
15.3600 124.0000 1.0000
15.3800 117.0000 1.0000
15.4000 117.0000 1.0000
15.4200 113.0000 1.0000
15.4400 116.0000 1.0000
15.4600 120.0000 1.0000
15.4800 126.0000 1.0000
15.5000 139.0000 1.0000
15.5200 140.0000 1.0000
15.5400 130.0000 1.0000
15.5600 146.0000 1.0000
15.5800 153.0000 1.0000
15.6000 152.0000 1.0000
15.6200 163.0000 1.0000
15.6400 169.0000 1.0000
15.6600 173.0000 1.0000
15.6800 167.0000 1.0000
15.7000 157.0000 1.0000
15.7200 161.0000 1.0000
15.7400 165.0000 1.0000
15.7600 150.0000 1.0000
15.7800 138.0000 1.0000
15.8000 135.0000 1.0000
15.8200 135.0000 1.0000
15.8400 127.0000 1.0000
15.8600 132.0000 1.0000
15.8800 142.0000 1.0000
15.9000 127.0000 1.0000
15.9200 112.0000 1.0000
15.9400 120.0000 1.0000
15.9600 124.0000 1.0000
15.9800 115.0000 1.0000
16.0000 115.0000 1.0000
16.0200 118.0000 1.0000
16.0400 124.0000 1.0000
16.0600 121.0000 1.0000
16.0800 105.0000 1.0000
16.1000 106.0000 1.0000
16.1200 117.0000 1.0000
16.1400 123.0000 1.0000
16.1600 131.0000 1.0000
16.1800 134.0000 1.0000
16.2000 129.0000 1.0000
16.2200 109.0000 1.0000
16.2400 105.0000 1.0000
16.2600 112.0000 1.0000
16.2800 113.0000 1.0000
16.3000 107.0000 1.0000
16.3200 106.0000 1.0000
16.3400 118.0000 1.0000
16.3600 119.0000 1.0000
16.3800 128.0000 1.0000
16.4000 133.0000 1.0000
16.4200 118.0000 1.0000
16.4400 111.0000 1.0000
16.4600 112.0000 1.0000
16.4800 102.0000 1.0000
16.5000 102.0000 1.0000
16.5200 117.0000 1.0000
16.5400 133.0000 1.0000
16.5600 124.0000 1.0000
16.5800 99.0000 1.0000
16.6000 94.0000 1.0000
16.6200 112.0000 1.0000
16.6400 113.0000 1.0000
16.6600 121.0000 1.0000
16.6800 112.0000 1.0000
16.7000 116.0000 1.0000
16.7200 133.0000 1.0000
16.7400 129.0000 1.0000
16.7600 121.0000 1.0000
16.7800 112.0000 1.0000
16.8000 118.0000 1.0000
16.8200 121.0000 1.0000
16.8400 97.0000 1.0000
16.8600 99.0000 1.0000
16.8800 100.0000 1.0000
16.9000 100.0000 1.0000
16.9200 110.0000 1.0000
16.9400 102.0000 1.0000
16.9600 101.0000 1.0000
16.9800 105.0000 1.0000
17.0000 109.0000 1.0000
17.0200 110.0000 1.0000
17.0400 124.0000 1.0000
17.0600 108.0000 1.0000
17.0800 128.0000 1.0000
17.1000 135.0000 1.0000
17.1200 124.0000 1.0000
17.1400 133.0000 1.0000
17.1600 120.0000 1.0000
17.1800 117.0000 1.0000
17.2000 102.0000 1.0000
17.2200 103.0000 1.0000
17.2400 108.0000 1.0000
17.2600 126.0000 1.0000
17.2800 136.0000 1.0000
17.3000 122.0000 1.0000
17.3200 114.0000 1.0000
17.3400 102.0000 1.0000
17.3600 109.0000 1.0000
17.3800 118.0000 1.0000
17.4000 118.0000 1.0000
17.4200 117.0000 1.0000
17.4400 136.0000 1.0000
17.4600 127.0000 1.0000
17.4800 123.0000 1.0000
17.5000 139.0000 1.0000
17.5200 144.0000 1.0000
17.5400 139.0000 1.0000
17.5600 128.0000 1.0000
17.5800 132.0000 1.0000
17.6000 144.0000 1.0000
17.6200 141.0000 1.0000
17.6400 135.0000 1.0000
17.6600 151.0000 1.0000
17.6800 123.0000 1.0000
17.7000 120.0000 1.0000
17.7200 130.0000 1.0000
17.7400 118.0000 1.0000
17.7600 111.0000 1.0000
17.7800 122.0000 1.0000
17.8000 131.0000 1.0000
17.8200 135.0000 1.0000
17.8400 152.0000 1.0000
17.8600 142.0000 1.0000
17.8800 118.0000 1.0000
17.9000 131.0000 1.0000
17.9200 132.0000 1.0000
17.9400 129.0000 1.0000
17.9600 117.0000 1.0000
17.9800 131.0000 1.0000
18.0000 123.0000 1.0000
18.0200 107.0000 1.0000
18.0400 119.0000 1.0000
18.0600 127.0000 1.0000
18.0800 123.0000 1.0000
18.1000 134.0000 1.0000
18.1200 135.0000 1.0000
18.1400 112.0000 1.0000
18.1600 114.0000 1.0000
18.1800 127.0000 1.0000
18.2000 114.0000 1.0000
18.2200 132.0000 1.0000
18.2400 120.0000 1.0000
18.2600 120.0000 1.0000
18.2800 121.0000 1.0000
18.3000 129.0000 1.0000
18.3200 117.0000 1.0000
18.3400 144.0000 1.0000
18.3600 150.0000 1.0000
18.3800 114.0000 1.0000
18.4000 116.0000 1.0000
18.4200 139.0000 1.0000
18.4400 132.0000 1.0000
18.4600 120.0000 1.0000
18.4800 149.0000 1.0000
18.5000 155.0000 1.0000
18.5200 135.0000 1.0000
18.5400 124.0000 1.0000
18.5600 134.0000 1.0000
18.5800 126.0000 1.0000
18.6000 126.0000 1.0000
18.6200 128.0000 1.0000
18.6400 140.0000 1.0000
18.6600 139.0000 1.0000
18.6800 139.0000 1.0000
18.7000 124.0000 1.0000
18.7200 145.0000 1.0000
18.7400 133.0000 1.0000
18.7600 157.0000 1.0000
18.7800 138.0000 1.0000
18.8000 146.0000 1.0000
18.8200 138.0000 1.0000
18.8400 132.0000 1.0000
18.8600 137.0000 1.0000
18.8800 141.0000 1.0000
18.9000 153.0000 1.0000
18.9200 165.0000 1.0000
18.9400 153.0000 1.0000
18.9600 147.0000 1.0000
18.9800 161.0000 1.0000
19.0000 148.0000 1.0000
19.0200 150.0000 1.0000
19.0400 144.0000 1.0000
19.0600 150.0000 1.0000
19.0800 158.0000 1.0000
19.1000 160.0000 1.0000
19.1200 154.0000 1.0000
19.1400 153.0000 1.0000
19.1600 155.0000 1.0000
19.1800 153.0000 1.0000
19.2000 156.0000 1.0000
19.2200 175.0000 1.0000
19.2400 151.0000 1.0000
19.2600 163.0000 1.0000
19.2800 165.0000 1.0000
19.3000 145.0000 1.0000
19.3200 138.0000 1.0000
19.3400 143.0000 1.0000
19.3600 154.0000 1.0000
19.3800 159.0000 1.0000
19.4000 162.0000 1.0000
19.4200 181.0000 1.0000
19.4400 180.0000 1.0000
19.4600 185.0000 1.0000
19.4800 195.0000 1.0000
19.5000 177.0000 1.0000
19.5200 202.0000 1.0000
19.5400 180.0000 1.0000
19.5600 173.0000 1.0000
19.5800 155.0000 1.0000
19.6000 168.0000 1.0000
19.6200 154.0000 1.0000
19.6400 184.0000 1.0000
19.6600 165.0000 1.0000
19.6800 185.0000 1.0000
19.7000 173.0000 1.0000
19.7200 169.0000 1.0000
19.7400 151.0000 1.0000
19.7600 160.0000 1.0000
19.7800 185.0000 1.0000
19.8000 176.0000 1.0000
19.8200 167.0000 1.0000
19.8400 178.0000 1.0000
19.8600 177.0000 1.0000
19.8800 160.0000 1.0000
19.9000 151.0000 1.0000
19.9200 139.0000 1.0000
19.9400 178.0000 1.0000
19.9600 158.0000 1.0000
19.9800 157.0000 1.0000
20.0000 165.0000 1.0000
20.0200 160.0000 1.0000
20.0400 162.0000 1.0000
20.0600 146.0000 1.0000
20.0800 142.0000 1.0000
20.1000 153.0000 1.0000
20.1200 157.0000 1.0000
20.1400 150.0000 1.0000
20.1600 162.0000 1.0000
20.1800 168.0000 1.0000
20.2000 152.0000 1.0000
20.2200 133.0000 1.0000
20.2400 180.0000 1.0000
20.2600 146.0000 1.0000
20.2800 159.0000 1.0000
20.3000 167.0000 1.0000
20.3200 191.0000 1.0000
20.3400 207.0000 1.0000
20.3600 182.0000 1.0000
20.3800 198.0000 1.0000
20.4000 194.0000 1.0000
20.4200 208.0000 1.0000
20.4400 193.0000 1.0000
20.4600 220.0000 1.0000
20.4800 247.0000 1.0000
20.5000 286.0000 1.0000
20.5200 319.0000 1.0000
20.5400 321.0000 1.0000
20.5600 389.0000 1.0000
20.5800 422.0000 1.0000
20.6000 476.0000 1.0000
20.6200 563.0000 1.0000
20.6400 711.0000 1.0000
20.6600 818.0000 1.0000
20.6800 1021.0000 1.0000
20.7000 1306.0000 1.0000
20.7200 1536.0000 1.0000
20.7400 1933.0000 1.0000
20.7600 2258.0000 1.0000
20.7800 2432.0000 1.0000
20.8000 2413.0000 1.0000
20.8200 2204.0000 1.0000
20.8400 1858.0000 1.0000
20.8600 1396.0000 1.0000
20.8800 1069.0000 1.0000
20.9000 716.0000 1.0000
20.9200 521.0000 1.0000
20.9400 425.0000 1.0000
20.9600 406.0000 1.0000
20.9800 326.0000 1.0000
21.0000 286.0000 1.0000
21.0200 278.0000 1.0000
21.0400 252.0000 1.0000
21.0600 257.0000 1.0000
21.0800 206.0000 1.0000
21.1000 217.0000 1.0000
21.1200 197.0000 1.0000
21.1400 178.0000 1.0000
21.1600 198.0000 1.0000
21.1800 196.0000 1.0000
21.2000 181.0000 1.0000
21.2200 177.0000 1.0000
21.2400 201.0000 1.0000
21.2600 193.0000 1.0000
21.2800 172.0000 1.0000
21.3000 175.0000 1.0000
21.3200 164.0000 1.0000
21.3400 167.0000 1.0000
21.3600 164.0000 1.0000
21.3800 158.0000 1.0000
21.4000 191.0000 1.0000
21.4200 196.0000 1.0000
21.4400 164.0000 1.0000
21.4600 188.0000 1.0000
21.4800 185.0000 1.0000
21.5000 203.0000 1.0000
21.5200 206.0000 1.0000
21.5400 172.0000 1.0000
21.5600 209.0000 1.0000
21.5800 217.0000 1.0000
21.6000 213.0000 1.0000
21.6200 222.0000 1.0000
21.6400 233.0000 1.0000
21.6600 262.0000 1.0000
21.6800 270.0000 1.0000
21.7000 306.0000 1.0000
21.7200 341.0000 1.0000
21.7400 370.0000 1.0000
21.7600 450.0000 1.0000
21.7800 477.0000 1.0000
21.8000 584.0000 1.0000
21.8200 701.0000 1.0000
21.8400 849.0000 1.0000
21.8600 968.0000 1.0000
21.8800 1135.0000 1.0000
21.9000 1261.0000 1.0000
21.9200 1352.0000 1.0000
21.9400 1339.0000 1.0000
21.9600 1245.0000 1.0000
21.9800 1092.0000 1.0000
22.0000 899.0000 1.0000
22.0200 681.0000 1.0000
22.0400 540.0000 1.0000
22.0600 423.0000 1.0000
22.0800 341.0000 1.0000
22.1000 258.0000 1.0000
22.1200 248.0000 1.0000
22.1400 221.0000 1.0000
22.1600 216.0000 1.0000
22.1800 227.0000 1.0000
22.2000 212.0000 1.0000
22.2200 212.0000 1.0000
22.2400 223.0000 1.0000
22.2600 207.0000 1.0000
22.2800 214.0000 1.0000
22.3000 211.0000 1.0000
22.3200 203.0000 1.0000
22.3400 177.0000 1.0000
22.3600 200.0000 1.0000
22.3800 183.0000 1.0000
22.4000 160.0000 1.0000
22.4200 153.0000 1.0000
22.4400 195.0000 1.0000
22.4600 178.0000 1.0000
22.4800 178.0000 1.0000
22.5000 197.0000 1.0000
22.5200 196.0000 1.0000
22.5400 188.0000 1.0000
22.5600 177.0000 1.0000
22.5800 188.0000 1.0000
22.6000 196.0000 1.0000
22.6200 189.0000 1.0000
22.6400 205.0000 1.0000
22.6600 189.0000 1.0000
22.6800 213.0000 1.0000
22.7000 205.0000 1.0000
22.7200 211.0000 1.0000
22.7400 246.0000 1.0000
22.7600 275.0000 1.0000
22.7800 321.0000 1.0000
22.8000 360.0000 1.0000
22.8200 376.0000 1.0000
22.8400 449.0000 1.0000
22.8600 477.0000 1.0000
22.8800 474.0000 1.0000
22.9000 466.0000 1.0000
22.9200 458.0000 1.0000
22.9400 441.0000 1.0000
22.9600 364.0000 1.0000
22.9800 326.0000 1.0000
23.0000 297.0000 1.0000
23.0200 255.0000 1.0000
23.0400 266.0000 1.0000
23.0600 253.0000 1.0000
23.0800 225.0000 1.0000
23.1000 205.0000 1.0000
23.1200 228.0000 1.0000
23.1400 228.0000 1.0000
23.1600 236.0000 1.0000
23.1800 242.0000 1.0000
23.2000 235.0000 1.0000
23.2200 272.0000 1.0000
23.2400 292.0000 1.0000
23.2600 260.0000 1.0000
23.2800 276.0000 1.0000
23.3000 276.0000 1.0000
23.3200 289.0000 1.0000
23.3400 336.0000 1.0000
23.3600 379.0000 1.0000
23.3800 381.0000 1.0000
23.4000 402.0000 1.0000
23.4200 510.0000 1.0000
23.4400 605.0000 1.0000
23.4600 698.0000 1.0000
23.4800 771.0000 1.0000
23.5000 880.0000 1.0000
23.5200 960.0000 1.0000
23.5400 993.0000 1.0000
23.5600 1014.0000 1.0000
23.5800 896.0000 1.0000
23.6000 739.0000 1.0000
23.6200 638.0000 1.0000
23.6400 506.0000 1.0000
23.6600 455.0000 1.0000
23.6800 367.0000 1.0000
23.7000 340.0000 1.0000
23.7200 351.0000 1.0000
23.7400 344.0000 1.0000
23.7600 359.0000 1.0000
23.7800 414.0000 1.0000
23.8000 428.0000 1.0000
23.8200 454.0000 1.0000
23.8400 531.0000 1.0000
23.8600 630.0000 1.0000
23.8800 695.0000 1.0000
23.9000 748.0000 1.0000
23.9200 798.0000 1.0000
23.9400 812.0000 1.0000
23.9600 865.0000 1.0000
23.9800 834.0000 1.0000
24.0000 790.0000 1.0000
24.0200 755.0000 1.0000
24.0400 701.0000 1.0000
24.0600 656.0000 1.0000
24.0800 658.0000 1.0000
24.1000 672.0000 1.0000
24.1200 706.0000 1.0000
24.1400 788.0000 1.0000
24.1600 819.0000 1.0000
24.1800 913.0000 1.0000
24.2000 896.0000 1.0000
24.2200 895.0000 1.0000
24.2400 886.0000 1.0000
24.2600 815.0000 1.0000
24.2800 706.0000 1.0000
24.3000 618.0000 1.0000
24.3200 537.0000 1.0000
24.3400 454.0000 1.0000
24.3600 396.0000 1.0000
24.3800 351.0000 1.0000
24.4000 307.0000 1.0000
24.4200 258.0000 1.0000
24.4400 249.0000 1.0000
24.4600 232.0000 1.0000
24.4800 225.0000 1.0000
24.5000 216.0000 1.0000
24.5200 213.0000 1.0000
24.5400 207.0000 1.0000
24.5600 199.0000 1.0000
24.5800 204.0000 1.0000
24.6000 212.0000 1.0000
24.6200 178.0000 1.0000
24.6400 172.0000 1.0000
24.6600 177.0000 1.0000
24.6800 183.0000 1.0000
24.7000 177.0000 1.0000
24.7200 177.0000 1.0000
24.7400 185.0000 1.0000
24.7600 175.0000 1.0000
24.7800 184.0000 1.0000
24.8000 199.0000 1.0000
24.8200 190.0000 1.0000
24.8400 191.0000 1.0000
24.8600 180.0000 1.0000
24.8800 184.0000 1.0000
24.9000 175.0000 1.0000
24.9200 179.0000 1.0000
24.9400 177.0000 1.0000
24.9600 190.0000 1.0000
24.9800 201.0000 1.0000
25.0000 194.0000 1.0000
25.0200 216.0000 1.0000
25.0400 243.0000 1.0000
25.0600 222.0000 1.0000
25.0800 208.0000 1.0000
25.1000 247.0000 1.0000
25.1200 253.0000 1.0000
25.1400 230.0000 1.0000
25.1600 215.0000 1.0000
25.1800 246.0000 1.0000
25.2000 255.0000 1.0000
25.2200 252.0000 1.0000
25.2400 297.0000 1.0000
25.2600 349.0000 1.0000
25.2800 386.0000 1.0000
25.3000 425.0000 1.0000
25.3200 474.0000 1.0000
25.3400 586.0000 1.0000
25.3600 718.0000 1.0000
25.3800 802.0000 1.0000
25.4000 963.0000 1.0000
25.4200 1164.0000 1.0000
25.4400 1268.0000 1.0000
25.4600 1368.0000 1.0000
25.4800 1488.0000 1.0000
25.5000 1509.0000 1.0000
25.5200 1429.0000 1.0000
25.5400 1349.0000 1.0000
25.5600 1178.0000 1.0000
25.5800 981.0000 1.0000
25.6000 833.0000 1.0000
25.6200 707.0000 1.0000
25.6400 607.0000 1.0000
25.6600 515.0000 1.0000
25.6800 428.0000 1.0000
25.7000 356.0000 1.0000
25.7200 358.0000 1.0000
25.7400 348.0000 1.0000
25.7600 316.0000 1.0000
25.7800 283.0000 1.0000
25.8000 280.0000 1.0000
25.8200 290.0000 1.0000
25.8400 282.0000 1.0000
25.8600 297.0000 1.0000
25.8800 297.0000 1.0000
25.9000 286.0000 1.0000
25.9200 299.0000 1.0000
25.9400 320.0000 1.0000
25.9600 354.0000 1.0000
25.9800 346.0000 1.0000
26.0000 366.0000 1.0000
26.0200 397.0000 1.0000
26.0400 415.0000 1.0000
26.0600 427.0000 1.0000
26.0800 451.0000 1.0000
26.1000 469.0000 1.0000
26.1200 534.0000 1.0000
26.1400 566.0000 1.0000
26.1600 579.0000 1.0000
26.1800 629.0000 1.0000
26.2000 706.0000 1.0000
26.2200 781.0000 1.0000
26.2400 878.0000 1.0000
26.2600 978.0000 1.0000
26.2800 1126.0000 1.0000
26.3000 1268.0000 1.0000
26.3200 1430.0000 1.0000
26.3400 1663.0000 1.0000
26.3600 1900.0000 1.0000
26.3800 2193.0000 1.0000
26.4000 2654.0000 1.0000
26.4200 3198.0000 1.0000
26.4400 3855.0000 1.0000
26.4600 4807.0000 1.0000
26.4800 6020.0000 1.0000
26.5000 7552.0000 1.0000
26.5200 9159.0000 1.0000
26.5400 10417.0000 1.0000
26.5600 11260.0000 1.0000
26.5800 11391.0000 1.0000
26.6000 10972.0000 1.0000
26.6200 9622.0000 1.0000
26.6400 7505.0000 1.0000
26.6600 5522.0000 1.0000
26.6800 3868.0000 1.0000
26.7000 2584.0000 1.0000
26.7200 1718.0000 1.0000
26.7400 1198.0000 1.0000
26.7600 952.0000 1.0000
26.7800 825.0000 1.0000
26.8000 760.0000 1.0000
26.8200 712.0000 1.0000
26.8400 667.0000 1.0000
26.8600 678.0000 1.0000
26.8800 667.0000 1.0000
26.9000 630.0000 1.0000
26.9200 637.0000 1.0000
26.9400 630.0000 1.0000
26.9600 609.0000 1.0000
26.9800 579.0000 1.0000
27.0000 549.0000 1.0000
27.0200 515.0000 1.0000
27.0400 488.0000 1.0000
27.0600 474.0000 1.0000
27.0800 468.0000 1.0000
27.1000 465.0000 1.0000
27.1200 419.0000 1.0000
27.1400 398.0000 1.0000
27.1600 397.0000 1.0000
27.1800 396.0000 1.0000
27.2000 404.0000 1.0000
27.2200 431.0000 1.0000
27.2400 446.0000 1.0000
27.2600 443.0000 1.0000
27.2800 491.0000 1.0000
27.3000 529.0000 1.0000
27.3200 555.0000 1.0000
27.3400 613.0000 1.0000
27.3600 682.0000 1.0000
27.3800 739.0000 1.0000
27.4000 776.0000 1.0000
27.4200 778.0000 1.0000
27.4400 787.0000 1.0000
27.4600 773.0000 1.0000
27.4800 764.0000 1.0000
27.5000 786.0000 1.0000
27.5200 802.0000 1.0000
27.5400 836.0000 1.0000
27.5600 924.0000 1.0000
27.5800 1088.0000 1.0000
27.6000 1268.0000 1.0000
27.6200 1454.0000 1.0000
27.6400 1697.0000 1.0000
27.6600 1963.0000 1.0000
27.6800 2211.0000 1.0000
27.7000 2491.0000 1.0000
27.7200 2684.0000 1.0000
27.7400 2849.0000 1.0000
27.7600 3065.0000 1.0000
27.7800 3301.0000 1.0000
27.8000 3565.0000 1.0000
27.8200 3791.0000 1.0000
27.8400 4056.0000 1.0000
27.8600 4257.0000 1.0000
27.8800 4411.0000 1.0000
27.9000 4506.0000 1.0000
27.9200 4364.0000 1.0000
27.9400 4046.0000 1.0000
27.9600 3634.0000 1.0000
27.9800 3090.0000 1.0000
28.0000 2474.0000 1.0000
28.0200 1945.0000 1.0000
28.0400 1498.0000 1.0000
28.0600 1211.0000 1.0000
28.0800 1038.0000 1.0000
28.1000 957.0000 1.0000
28.1200 972.0000 1.0000
28.1400 997.0000 1.0000
28.1600 1048.0000 1.0000
28.1800 1085.0000 1.0000
28.2000 1074.0000 1.0000
28.2200 1074.0000 1.0000
28.2400 1019.0000 1.0000
28.2600 931.0000 1.0000
28.2800 861.0000 1.0000
28.3000 776.0000 1.0000
28.3200 707.0000 1.0000
28.3400 614.0000 1.0000
28.3600 549.0000 1.0000
28.3800 526.0000 1.0000
28.4000 457.0000 1.0000
28.4200 387.0000 1.0000
28.4400 343.0000 1.0000
28.4600 317.0000 1.0000
28.4800 288.0000 1.0000
28.5000 255.0000 1.0000
28.5200 233.0000 1.0000
28.5400 217.0000 1.0000
28.5600 222.0000 1.0000
28.5800 208.0000 1.0000
28.6000 194.0000 1.0000
28.6200 189.0000 1.0000
28.6400 175.0000 1.0000
28.6600 168.0000 1.0000
28.6800 183.0000 1.0000
28.7000 182.0000 1.0000
28.7200 173.0000 1.0000
28.7400 164.0000 1.0000
28.7600 164.0000 1.0000
28.7800 172.0000 1.0000
28.8000 177.0000 1.0000
28.8200 170.0000 1.0000
28.8400 159.0000 1.0000
28.8600 153.0000 1.0000
28.8800 163.0000 1.0000
28.9000 150.0000 1.0000
28.9200 150.0000 1.0000
28.9400 152.0000 1.0000
28.9600 163.0000 1.0000
28.9800 155.0000 1.0000
29.0000 148.0000 1.0000
29.0200 153.0000 1.0000
29.0400 156.0000 1.0000
29.0600 154.0000 1.0000
29.0800 155.0000 1.0000
29.1000 163.0000 1.0000
29.1200 182.0000 1.0000
29.1400 184.0000 1.0000
29.1600 172.0000 1.0000
29.1800 178.0000 1.0000
29.2000 167.0000 1.0000
29.2200 158.0000 1.0000
29.2400 170.0000 1.0000
29.2600 190.0000 1.0000
29.2800 198.0000 1.0000
29.3000 208.0000 1.0000
29.3200 202.0000 1.0000
29.3400 205.0000 1.0000
29.3600 214.0000 1.0000
29.3800 236.0000 1.0000
29.4000 218.0000 1.0000
29.4200 211.0000 1.0000
29.4400 213.0000 1.0000
29.4600 215.0000 1.0000
29.4800 228.0000 1.0000
29.5000 200.0000 1.0000
29.5200 200.0000 1.0000
29.5400 206.0000 1.0000
29.5600 214.0000 1.0000
29.5800 231.0000 1.0000
29.6000 248.0000 1.0000
29.6200 276.0000 1.0000
29.6400 311.0000 1.0000
29.6600 309.0000 1.0000
29.6800 342.0000 1.0000
29.7000 394.0000 1.0000
29.7200 485.0000 1.0000
29.7400 531.0000 1.0000
29.7600 538.0000 1.0000
29.7800 570.0000 1.0000
29.8000 570.0000 1.0000
29.8200 543.0000 1.0000
29.8400 536.0000 1.0000
29.8600 479.0000 1.0000
29.8800 434.0000 1.0000
29.9000 392.0000 1.0000
29.9200 368.0000 1.0000
29.9400 336.0000 1.0000
29.9600 300.0000 1.0000
29.9800 316.0000 1.0000
30.0000 302.0000 1.0000
30.0200 305.0000 1.0000
30.0400 318.0000 1.0000
30.0600 317.0000 1.0000
30.0800 332.0000 1.0000
30.1000 347.0000 1.0000
30.1200 360.0000 1.0000
30.1400 354.0000 1.0000
30.1600 367.0000 1.0000
30.1800 425.0000 1.0000
30.2000 449.0000 1.0000
30.2200 514.0000 1.0000
30.2400 601.0000 1.0000
30.2600 690.0000 1.0000
30.2800 778.0000 1.0000
30.3000 823.0000 1.0000
30.3200 891.0000 1.0000
30.3400 890.0000 1.0000
30.3600 891.0000 1.0000
30.3800 902.0000 1.0000
30.4000 813.0000 1.0000
30.4200 756.0000 1.0000
30.4400 676.0000 1.0000
30.4600 549.0000 1.0000
30.4800 449.0000 1.0000
30.5000 396.0000 1.0000
30.5200 349.0000 1.0000
30.5400 322.0000 1.0000
30.5600 286.0000 1.0000
30.5800 263.0000 1.0000
30.6000 258.0000 1.0000
30.6200 249.0000 1.0000
30.6400 239.0000 1.0000
30.6600 213.0000 1.0000
30.6800 243.0000 1.0000
30.7000 258.0000 1.0000
30.7200 231.0000 1.0000
30.7400 234.0000 1.0000
30.7600 222.0000 1.0000
30.7800 218.0000 1.0000
30.8000 239.0000 1.0000
30.8200 237.0000 1.0000
30.8400 225.0000 1.0000
30.8600 201.0000 1.0000
30.8800 200.0000 1.0000
30.9000 180.0000 1.0000
30.9200 157.0000 1.0000
30.9400 162.0000 1.0000
30.9600 161.0000 1.0000
30.9800 173.0000 1.0000
31.0000 160.0000 1.0000
31.0200 141.0000 1.0000
31.0400 174.0000 1.0000
31.0600 181.0000 1.0000
31.0800 162.0000 1.0000
31.1000 178.0000 1.0000
31.1200 197.0000 1.0000
31.1400 199.0000 1.0000
31.1600 245.0000 1.0000
31.1800 259.0000 1.0000
31.2000 306.0000 1.0000
31.2200 362.0000 1.0000
31.2400 368.0000 1.0000
31.2600 406.0000 1.0000
31.2800 478.0000 1.0000
31.3000 468.0000 1.0000
31.3200 471.0000 1.0000
31.3400 419.0000 1.0000
31.3600 408.0000 1.0000
31.3800 381.0000 1.0000
31.4000 325.0000 1.0000
31.4200 319.0000 1.0000
31.4400 285.0000 1.0000
31.4600 277.0000 1.0000
31.4800 247.0000 1.0000
31.5000 247.0000 1.0000
31.5200 228.0000 1.0000
31.5400 245.0000 1.0000
31.5600 243.0000 1.0000
31.5800 221.0000 1.0000
31.6000 219.0000 1.0000
31.6200 199.0000 1.0000
31.6400 190.0000 1.0000
31.6600 190.0000 1.0000
31.6800 181.0000 1.0000
31.7000 188.0000 1.0000
31.7200 161.0000 1.0000
31.7400 168.0000 1.0000
31.7600 171.0000 1.0000
31.7800 165.0000 1.0000
31.8000 150.0000 1.0000
31.8200 140.0000 1.0000
31.8400 139.0000 1.0000
31.8600 159.0000 1.0000
31.8800 169.0000 1.0000
31.9000 161.0000 1.0000
31.9200 139.0000 1.0000
31.9400 169.0000 1.0000
31.9600 159.0000 1.0000
31.9800 143.0000 1.0000
32.0000 165.0000 1.0000
32.0200 145.0000 1.0000
32.0400 141.0000 1.0000
32.0600 138.0000 1.0000
32.0800 141.0000 1.0000
32.1000 143.0000 1.0000
32.1200 147.0000 1.0000
32.1400 162.0000 1.0000
32.1600 138.0000 1.0000
32.1800 161.0000 1.0000
32.2000 173.0000 1.0000
32.2200 177.0000 1.0000
32.2400 171.0000 1.0000
32.2600 160.0000 1.0000
32.2800 159.0000 1.0000
32.3000 170.0000 1.0000
32.3200 169.0000 1.0000
32.3400 181.0000 1.0000
32.3600 191.0000 1.0000
32.3800 173.0000 1.0000
32.4000 180.0000 1.0000
32.4200 177.0000 1.0000
32.4400 159.0000 1.0000
32.4600 157.0000 1.0000
32.4800 158.0000 1.0000
32.5000 160.0000 1.0000
32.5200 137.0000 1.0000
32.5400 135.0000 1.0000
32.5600 171.0000 1.0000
32.5800 158.0000 1.0000
32.6000 163.0000 1.0000
32.6200 162.0000 1.0000
32.6400 149.0000 1.0000
32.6600 190.0000 1.0000
32.6800 167.0000 1.0000
32.7000 209.0000 1.0000
32.7200 225.0000 1.0000
32.7400 222.0000 1.0000
32.7600 232.0000 1.0000
32.7800 230.0000 1.0000
32.8000 233.0000 1.0000
32.8200 240.0000 1.0000
32.8400 230.0000 1.0000
32.8600 258.0000 1.0000
32.8800 255.0000 1.0000
32.9000 254.0000 1.0000
32.9200 246.0000 1.0000
32.9400 218.0000 1.0000
32.9600 215.0000 1.0000
32.9800 217.0000 1.0000
33.0000 199.0000 1.0000
33.0200 176.0000 1.0000
33.0400 144.0000 1.0000
33.0600 148.0000 1.0000
33.0800 154.0000 1.0000
33.1000 142.0000 1.0000
33.1200 146.0000 1.0000
33.1400 153.0000 1.0000
33.1600 138.0000 1.0000
33.1800 162.0000 1.0000
33.2000 148.0000 1.0000
33.2200 142.0000 1.0000
33.2400 136.0000 1.0000
33.2600 153.0000 1.0000
33.2800 133.0000 1.0000
33.3000 122.0000 1.0000
33.3200 133.0000 1.0000
33.3400 146.0000 1.0000
33.3600 118.0000 1.0000
33.3800 126.0000 1.0000
33.4000 110.0000 1.0000
33.4200 129.0000 1.0000
33.4400 133.0000 1.0000
33.4600 137.0000 1.0000
33.4800 128.0000 1.0000
33.5000 130.0000 1.0000
33.5200 143.0000 1.0000
33.5400 134.0000 1.0000
33.5600 168.0000 1.0000
33.5800 141.0000 1.0000
33.6000 182.0000 1.0000
33.6200 176.0000 1.0000
33.6400 157.0000 1.0000
33.6600 193.0000 1.0000
33.6800 184.0000 1.0000
33.7000 223.0000 1.0000
33.7200 269.0000 1.0000
33.7400 294.0000 1.0000
33.7600 315.0000 1.0000
33.7800 359.0000 1.0000
33.8000 329.0000 1.0000
33.8200 391.0000 1.0000
33.8400 351.0000 1.0000
33.8600 317.0000 1.0000
33.8800 289.0000 1.0000
33.9000 296.0000 1.0000
33.9200 280.0000 1.0000
33.9400 258.0000 1.0000
33.9600 221.0000 1.0000
33.9800 222.0000 1.0000
34.0000 176.0000 1.0000
34.0200 216.0000 1.0000
34.0400 205.0000 1.0000
34.0600 208.0000 1.0000
34.0800 217.0000 1.0000
34.1000 250.0000 1.0000
34.1200 235.0000 1.0000
34.1400 227.0000 1.0000
34.1600 236.0000 1.0000
34.1800 244.0000 1.0000
34.2000 241.0000 1.0000
34.2200 239.0000 1.0000
34.2400 220.0000 1.0000
34.2600 255.0000 1.0000
34.2800 231.0000 1.0000
34.3000 217.0000 1.0000
34.3200 221.0000 1.0000
34.3400 212.0000 1.0000
34.3600 225.0000 1.0000
34.3800 191.0000 1.0000
34.4000 219.0000 1.0000
34.4200 197.0000 1.0000
34.4400 216.0000 1.0000
34.4600 200.0000 1.0000
34.4800 190.0000 1.0000
34.5000 176.0000 1.0000
34.5200 193.0000 1.0000
34.5400 182.0000 1.0000
34.5600 202.0000 1.0000
34.5800 211.0000 1.0000
34.6000 211.0000 1.0000
34.6200 210.0000 1.0000
34.6400 200.0000 1.0000
34.6600 208.0000 1.0000
34.6800 221.0000 1.0000
34.7000 229.0000 1.0000
34.7200 225.0000 1.0000
34.7400 236.0000 1.0000
34.7600 253.0000 1.0000
34.7800 291.0000 1.0000
34.8000 287.0000 1.0000
34.8200 320.0000 1.0000
34.8400 330.0000 1.0000
34.8600 379.0000 1.0000
34.8800 392.0000 1.0000
34.9000 444.0000 1.0000
34.9200 570.0000 1.0000
34.9400 631.0000 1.0000
34.9600 797.0000 1.0000
34.9800 922.0000 1.0000
35.0000 1208.0000 1.0000
35.0200 1413.0000 1.0000
35.0400 1684.0000 1.0000
35.0600 1826.0000 1.0000
35.0800 1944.0000 1.0000
35.1000 1948.0000 1.0000
35.1200 1873.0000 1.0000
35.1400 1736.0000 1.0000
35.1600 1531.0000 1.0000
35.1800 1370.0000 1.0000
35.2000 1146.0000 1.0000
35.2200 1045.0000 1.0000
35.2400 858.0000 1.0000
35.2600 725.0000 1.0000
35.2800 620.0000 1.0000
35.3000 592.0000 1.0000
35.3200 468.0000 1.0000
35.3400 435.0000 1.0000
35.3600 429.0000 1.0000
35.3800 368.0000 1.0000
35.4000 371.0000 1.0000
35.4200 359.0000 1.0000
35.4400 335.0000 1.0000
35.4600 372.0000 1.0000
35.4800 364.0000 1.0000
35.5000 303.0000 1.0000
35.5200 329.0000 1.0000
35.5400 300.0000 1.0000
35.5600 316.0000 1.0000
35.5800 323.0000 1.0000
35.6000 298.0000 1.0000
35.6200 300.0000 1.0000
35.6400 303.0000 1.0000
35.6600 246.0000 1.0000
35.6800 257.0000 1.0000
35.7000 267.0000 1.0000
35.7200 227.0000 1.0000
35.7400 234.0000 1.0000
35.7600 208.0000 1.0000
35.7800 196.0000 1.0000
35.8000 191.0000 1.0000
35.8200 190.0000 1.0000
35.8400 187.0000 1.0000
35.8600 186.0000 1.0000
35.8800 186.0000 1.0000
35.9000 199.0000 1.0000
35.9200 184.0000 1.0000
35.9400 190.0000 1.0000
35.9600 180.0000 1.0000
35.9800 198.0000 1.0000
36.0000 196.0000 1.0000
36.0200 188.0000 1.0000
36.0400 175.0000 1.0000
36.0600 220.0000 1.0000
36.0800 224.0000 1.0000
36.1000 222.0000 1.0000
36.1200 237.0000 1.0000
36.1400 255.0000 1.0000
36.1600 266.0000 1.0000
36.1800 304.0000 1.0000
36.2000 318.0000 1.0000
36.2200 353.0000 1.0000
36.2400 364.0000 1.0000
36.2600 389.0000 1.0000
36.2800 363.0000 1.0000
36.3000 415.0000 1.0000
36.3200 444.0000 1.0000
36.3400 427.0000 1.0000
36.3600 450.0000 1.0000
36.3800 559.0000 1.0000
36.4000 600.0000 1.0000
36.4200 679.0000 1.0000
36.4400 794.0000 1.0000
36.4600 863.0000 1.0000
36.4800 928.0000 1.0000
36.5000 918.0000 1.0000
36.5200 902.0000 1.0000
36.5400 837.0000 1.0000
36.5600 739.0000 1.0000
36.5800 633.0000 1.0000
36.6000 582.0000 1.0000
36.6200 482.0000 1.0000
36.6400 378.0000 1.0000
36.6600 321.0000 1.0000
36.6800 277.0000 1.0000
36.7000 243.0000 1.0000
36.7200 242.0000 1.0000
36.7400 211.0000 1.0000
36.7600 240.0000 1.0000
36.7800 240.0000 1.0000
36.8000 207.0000 1.0000
36.8200 217.0000 1.0000
36.8400 233.0000 1.0000
36.8600 237.0000 1.0000
36.8800 251.0000 1.0000
36.9000 261.0000 1.0000
36.9200 269.0000 1.0000
36.9400 277.0000 1.0000
36.9600 309.0000 1.0000
36.9800 316.0000 1.0000
37.0000 303.0000 1.0000
37.0200 270.0000 1.0000
37.0400 250.0000 1.0000
37.0600 265.0000 1.0000
37.0800 230.0000 1.0000
37.1000 222.0000 1.0000
37.1200 209.0000 1.0000
37.1400 210.0000 1.0000
37.1600 216.0000 1.0000
37.1800 170.0000 1.0000
37.2000 177.0000 1.0000
37.2200 185.0000 1.0000
37.2400 177.0000 1.0000
37.2600 191.0000 1.0000
37.2800 193.0000 1.0000
37.3000 190.0000 1.0000
37.3200 227.0000 1.0000
37.3400 232.0000 1.0000
37.3600 238.0000 1.0000
37.3800 238.0000 1.0000
37.4000 267.0000 1.0000
37.4200 272.0000 1.0000
37.4400 313.0000 1.0000
37.4600 315.0000 1.0000
37.4800 311.0000 1.0000
37.5000 350.0000 1.0000
37.5200 370.0000 1.0000
37.5400 372.0000 1.0000
37.5600 390.0000 1.0000
37.5800 448.0000 1.0000
37.6000 491.0000 1.0000
37.6200 512.0000 1.0000
37.6400 600.0000 1.0000
37.6600 690.0000 1.0000
37.6800 766.0000 1.0000
37.7000 788.0000 1.0000
37.7200 771.0000 1.0000
37.7400 742.0000 1.0000
37.7600 721.0000 1.0000
37.7800 621.0000 1.0000
37.8000 545.0000 1.0000
37.8200 456.0000 1.0000
37.8400 363.0000 1.0000
37.8600 310.0000 1.0000
37.8800 256.0000 1.0000
37.9000 209.0000 1.0000
37.9200 177.0000 1.0000
37.9400 162.0000 1.0000
37.9600 159.0000 1.0000
37.9800 166.0000 1.0000
38.0000 167.0000 1.0000
38.0200 176.0000 1.0000
38.0400 169.0000 1.0000
38.0600 159.0000 1.0000
38.0800 163.0000 1.0000
38.1000 170.0000 1.0000
38.1200 166.0000 1.0000
38.1400 192.0000 1.0000
38.1600 173.0000 1.0000
38.1800 161.0000 1.0000
38.2000 157.0000 1.0000
38.2200 150.0000 1.0000
38.2400 154.0000 1.0000
38.2600 144.0000 1.0000
38.2800 147.0000 1.0000
38.3000 149.0000 1.0000
38.3200 151.0000 1.0000
38.3400 155.0000 1.0000
38.3600 152.0000 1.0000
38.3800 153.0000 1.0000
38.4000 168.0000 1.0000
38.4200 158.0000 1.0000
38.4400 166.0000 1.0000
38.4600 178.0000 1.0000
38.4800 163.0000 1.0000
38.5000 162.0000 1.0000
38.5200 183.0000 1.0000
38.5400 178.0000 1.0000
38.5600 175.0000 1.0000
38.5800 160.0000 1.0000
38.6000 160.0000 1.0000
38.6200 149.0000 1.0000
38.6400 142.0000 1.0000
38.6600 145.0000 1.0000
38.6800 159.0000 1.0000
38.7000 140.0000 1.0000
38.7200 145.0000 1.0000
38.7400 152.0000 1.0000
38.7600 150.0000 1.0000
38.7800 153.0000 1.0000
38.8000 162.0000 1.0000
38.8200 152.0000 1.0000
38.8400 168.0000 1.0000
38.8600 179.0000 1.0000
38.8800 195.0000 1.0000
38.9000 219.0000 1.0000
38.9200 230.0000 1.0000
38.9400 220.0000 1.0000
38.9600 243.0000 1.0000
38.9800 252.0000 1.0000
39.0000 249.0000 1.0000
39.0200 258.0000 1.0000
39.0400 254.0000 1.0000
39.0600 247.0000 1.0000
39.0800 235.0000 1.0000
39.1000 225.0000 1.0000
39.1200 221.0000 1.0000
39.1400 211.0000 1.0000
39.1600 189.0000 1.0000
39.1800 191.0000 1.0000
39.2000 197.0000 1.0000
39.2200 218.0000 1.0000
39.2400 235.0000 1.0000
39.2600 280.0000 1.0000
39.2800 327.0000 1.0000
39.3000 372.0000 1.0000
39.3200 449.0000 1.0000
39.3400 528.0000 1.0000
39.3600 621.0000 1.0000
39.3800 719.0000 1.0000
39.4000 766.0000 1.0000
39.4200 740.0000 1.0000
39.4400 737.0000 1.0000
39.4600 678.0000 1.0000
39.4800 637.0000 1.0000
39.5000 584.0000 1.0000
39.5200 517.0000 1.0000
39.5400 450.0000 1.0000
39.5600 389.0000 1.0000
39.5800 337.0000 1.0000
39.6000 287.0000 1.0000
39.6200 265.0000 1.0000
39.6400 256.0000 1.0000
39.6600 238.0000 1.0000
39.6800 210.0000 1.0000
39.7000 193.0000 1.0000
39.7200 191.0000 1.0000
39.7400 171.0000 1.0000
39.7600 143.0000 1.0000
39.7800 145.0000 1.0000
39.8000 155.0000 1.0000
39.8200 150.0000 1.0000
39.8400 151.0000 1.0000
39.8600 148.0000 1.0000
39.8800 146.0000 1.0000
39.9000 140.0000 1.0000
39.9200 142.0000 1.0000
39.9400 154.0000 1.0000
39.9600 156.0000 1.0000
39.9800 164.0000 1.0000
40.0000 162.0000 1.0000
40.0200 157.0000 1.0000
40.0400 158.0000 1.0000
40.0600 158.0000 1.0000
40.0800 193.0000 1.0000
40.1000 225.0000 1.0000
40.1200 243.0000 1.0000
40.1400 274.0000 1.0000
40.1600 318.0000 1.0000
40.1800 372.0000 1.0000
40.2000 423.0000 1.0000
40.2200 455.0000 1.0000
40.2400 466.0000 1.0000
40.2600 442.0000 1.0000
40.2800 379.0000 1.0000
40.3000 342.0000 1.0000
40.3200 331.0000 1.0000
40.3400 298.0000 1.0000
40.3600 265.0000 1.0000
40.3800 235.0000 1.0000
40.4000 204.0000 1.0000
40.4200 184.0000 1.0000
40.4400 155.0000 1.0000
40.4600 129.0000 1.0000
40.4800 119.0000 1.0000
40.5000 130.0000 1.0000
40.5200 142.0000 1.0000
40.5400 143.0000 1.0000
40.5600 141.0000 1.0000
40.5800 131.0000 1.0000
40.6000 125.0000 1.0000
40.6200 128.0000 1.0000
40.6400 141.0000 1.0000
40.6600 154.0000 1.0000
40.6800 153.0000 1.0000
40.7000 155.0000 1.0000
40.7200 156.0000 1.0000
40.7400 170.0000 1.0000
40.7600 189.0000 1.0000
40.7800 188.0000 1.0000
40.8000 181.0000 1.0000
40.8200 174.0000 1.0000
40.8400 194.0000 1.0000
40.8600 205.0000 1.0000
40.8800 195.0000 1.0000
40.9000 186.0000 1.0000
40.9200 174.0000 1.0000
40.9400 153.0000 1.0000
40.9600 156.0000 1.0000
40.9800 155.0000 1.0000
41.0000 153.0000 1.0000
41.0200 159.0000 1.0000
41.0400 155.0000 1.0000
41.0600 148.0000 1.0000
41.0800 148.0000 1.0000
41.1000 154.0000 1.0000
41.1200 162.0000 1.0000
41.1400 166.0000 1.0000
41.1600 165.0000 1.0000
41.1800 181.0000 1.0000
41.2000 183.0000 1.0000
41.2200 183.0000 1.0000
41.2400 181.0000 1.0000
41.2600 173.0000 1.0000
41.2800 163.0000 1.0000
41.3000 162.0000 1.0000
41.3200 161.0000 1.0000
41.3400 169.0000 1.0000
41.3600 175.0000 1.0000
41.3800 181.0000 1.0000
41.4000 193.0000 1.0000
41.4200 175.0000 1.0000
41.4400 167.0000 1.0000
41.4600 172.0000 1.0000
41.4800 173.0000 1.0000
41.5000 179.0000 1.0000
41.5200 173.0000 1.0000
41.5400 169.0000 1.0000
41.5600 193.0000 1.0000
41.5800 199.0000 1.0000
41.6000 187.0000 1.0000
41.6200 190.0000 1.0000
41.6400 198.0000 1.0000
41.6600 208.0000 1.0000
41.6800 220.0000 1.0000
41.7000 222.0000 1.0000
41.7200 214.0000 1.0000
41.7400 221.0000 1.0000
41.7600 219.0000 1.0000
41.7800 201.0000 1.0000
41.8000 205.0000 1.0000
41.8200 223.0000 1.0000
41.8400 217.0000 1.0000
41.8600 197.0000 1.0000
41.8800 210.0000 1.0000
41.9000 195.0000 1.0000
41.9200 178.0000 1.0000
41.9400 187.0000 1.0000
41.9600 165.0000 1.0000
41.9800 153.0000 1.0000
42.0000 172.0000 1.0000
42.0200 162.0000 1.0000
42.0400 145.0000 1.0000
42.0600 160.0000 1.0000
42.0800 166.0000 1.0000
42.1000 190.0000 1.0000
42.1200 227.0000 1.0000
42.1400 231.0000 1.0000
42.1600 239.0000 1.0000
42.1800 273.0000 1.0000
42.2000 297.0000 1.0000
42.2200 347.0000 1.0000
42.2400 407.0000 1.0000
42.2600 452.0000 1.0000
42.2800 488.0000 1.0000
42.3000 554.0000 1.0000
42.3200 607.0000 1.0000
42.3400 670.0000 1.0000
42.3600 708.0000 1.0000
42.3800 743.0000 1.0000
42.4000 715.0000 1.0000
42.4200 719.0000 1.0000
42.4400 670.0000 1.0000
42.4600 552.0000 1.0000
42.4800 501.0000 1.0000
42.5000 454.0000 1.0000
42.5200 402.0000 1.0000
42.5400 332.0000 1.0000
42.5600 296.0000 1.0000
42.5800 277.0000 1.0000
42.6000 236.0000 1.0000
42.6200 218.0000 1.0000
42.6400 242.0000 1.0000
42.6600 221.0000 1.0000
42.6800 236.0000 1.0000
42.7000 250.0000 1.0000
42.7200 253.0000 1.0000
42.7400 252.0000 1.0000
42.7600 259.0000 1.0000
42.7800 269.0000 1.0000
42.8000 275.0000 1.0000
42.8200 273.0000 1.0000
42.8400 293.0000 1.0000
42.8600 292.0000 1.0000
42.8800 278.0000 1.0000
42.9000 285.0000 1.0000
42.9200 308.0000 1.0000
42.9400 316.0000 1.0000
42.9600 313.0000 1.0000
42.9800 336.0000 1.0000
43.0000 348.0000 1.0000
43.0200 353.0000 1.0000
43.0400 349.0000 1.0000
43.0600 374.0000 1.0000
43.0800 425.0000 1.0000
43.1000 457.0000 1.0000
43.1200 491.0000 1.0000
43.1400 550.0000 1.0000
43.1600 640.0000 1.0000
43.1800 779.0000 1.0000
43.2000 985.0000 1.0000
43.2200 1203.0000 1.0000
43.2400 1352.0000 1.0000
43.2600 1585.0000 1.0000
43.2800 1691.0000 1.0000
43.3000 1674.0000 1.0000
43.3200 1664.0000 1.0000
43.3400 1530.0000 1.0000
43.3600 1384.0000 1.0000
43.3800 1228.0000 1.0000
43.4000 1040.0000 1.0000
43.4200 950.0000 1.0000
43.4400 766.0000 1.0000
43.4600 630.0000 1.0000
43.4800 509.0000 1.0000
43.5000 380.0000 1.0000
43.5200 283.0000 1.0000
43.5400 236.0000 1.0000
43.5600 202.0000 1.0000
43.5800 181.0000 1.0000
43.6000 166.0000 1.0000
43.6200 198.0000 1.0000
43.6400 181.0000 1.0000
43.6600 167.0000 1.0000
43.6800 154.0000 1.0000
43.7000 167.0000 1.0000
43.7200 145.0000 1.0000
43.7400 157.0000 1.0000
43.7600 148.0000 1.0000
43.7800 164.0000 1.0000
43.8000 147.0000 1.0000
43.8200 166.0000 1.0000
43.8400 159.0000 1.0000
43.8600 142.0000 1.0000
43.8800 146.0000 1.0000
43.9000 151.0000 1.0000
43.9200 139.0000 1.0000
43.9400 160.0000 1.0000
43.9600 141.0000 1.0000
43.9800 125.0000 1.0000
44.0000 132.0000 1.0000
44.0200 129.0000 1.0000
44.0400 134.0000 1.0000
44.0600 115.0000 1.0000
44.0800 123.0000 1.0000
44.1000 125.0000 1.0000
44.1200 142.0000 1.0000
44.1400 123.0000 1.0000
44.1600 116.0000 1.0000
44.1800 127.0000 1.0000
44.2000 110.0000 1.0000
44.2200 117.0000 1.0000
44.2400 113.0000 1.0000
44.2600 113.0000 1.0000
44.2800 112.0000 1.0000
44.3000 118.0000 1.0000
44.3200 122.0000 1.0000
44.3400 105.0000 1.0000
44.3600 132.0000 1.0000
44.3800 111.0000 1.0000
44.4000 118.0000 1.0000
44.4200 149.0000 1.0000
44.4400 148.0000 1.0000
44.4600 143.0000 1.0000
44.4800 164.0000 1.0000
44.5000 143.0000 1.0000
44.5200 155.0000 1.0000
44.5400 157.0000 1.0000
44.5600 143.0000 1.0000
44.5800 159.0000 1.0000
44.6000 170.0000 1.0000
44.6200 163.0000 1.0000
44.6400 152.0000 1.0000
44.6600 155.0000 1.0000
44.6800 158.0000 1.0000
44.7000 149.0000 1.0000
44.7200 168.0000 1.0000
44.7400 159.0000 1.0000
44.7600 177.0000 1.0000
44.7800 180.0000 1.0000
44.8000 168.0000 1.0000
44.8200 191.0000 1.0000
44.8400 160.0000 1.0000
44.8600 191.0000 1.0000
44.8800 194.0000 1.0000
44.9000 173.0000 1.0000
44.9200 177.0000 1.0000
44.9400 176.0000 1.0000
44.9600 162.0000 1.0000
44.9800 164.0000 1.0000
45.0000 192.0000 1.0000
45.0200 163.0000 1.0000
45.0400 188.0000 1.0000
45.0600 166.0000 1.0000
45.0800 193.0000 1.0000
45.1000 186.0000 1.0000
45.1200 184.0000 1.0000
45.1400 170.0000 1.0000
45.1600 175.0000 1.0000
45.1800 163.0000 1.0000
45.2000 145.0000 1.0000
45.2200 191.0000 1.0000
45.2400 190.0000 1.0000
45.2600 174.0000 1.0000
45.2800 176.0000 1.0000
45.3000 169.0000 1.0000
45.3200 150.0000 1.0000
45.3400 138.0000 1.0000
45.3600 197.0000 1.0000
45.3800 155.0000 1.0000
45.4000 195.0000 1.0000
45.4200 188.0000 1.0000
45.4400 173.0000 1.0000
45.4600 195.0000 1.0000
45.4800 167.0000 1.0000
45.5000 198.0000 1.0000
45.5200 210.0000 1.0000
45.5400 230.0000 1.0000
45.5600 237.0000 1.0000
45.5800 218.0000 1.0000
45.6000 269.0000 1.0000
45.6200 297.0000 1.0000
45.6400 344.0000 1.0000
45.6600 395.0000 1.0000
45.6800 387.0000 1.0000
45.7000 476.0000 1.0000
45.7200 504.0000 1.0000
45.7400 496.0000 1.0000
45.7600 513.0000 1.0000
45.7800 458.0000 1.0000
45.8000 434.0000 1.0000
45.8200 393.0000 1.0000
45.8400 363.0000 1.0000
45.8600 303.0000 1.0000
45.8800 277.0000 1.0000
45.9000 273.0000 1.0000
45.9200 229.0000 1.0000
45.9400 195.0000 1.0000
45.9600 140.0000 1.0000
45.9800 162.0000 1.0000
46.0000 166.0000 1.0000
46.0200 144.0000 1.0000
46.0400 160.0000 1.0000
46.0600 169.0000 1.0000
46.0800 160.0000 1.0000
46.1000 157.0000 1.0000
46.1200 176.0000 1.0000
46.1400 156.0000 1.0000
46.1600 158.0000 1.0000
46.1800 162.0000 1.0000
46.2000 138.0000 1.0000
46.2200 145.0000 1.0000
46.2400 138.0000 1.0000
46.2600 129.0000 1.0000
46.2800 126.0000 1.0000
46.3000 127.0000 1.0000
46.3200 142.0000 1.0000
46.3400 120.0000 1.0000
46.3600 109.0000 1.0000
46.3800 120.0000 1.0000
46.4000 130.0000 1.0000
46.4200 115.0000 1.0000
46.4400 114.0000 1.0000
46.4600 102.0000 1.0000
46.4800 112.0000 1.0000
46.5000 110.0000 1.0000
46.5200 106.0000 1.0000
46.5400 125.0000 1.0000
46.5600 101.0000 1.0000
46.5800 106.0000 1.0000
46.6000 121.0000 1.0000
46.6200 140.0000 1.0000
46.6400 119.0000 1.0000
46.6600 123.0000 1.0000
46.6800 142.0000 1.0000
46.7000 136.0000 1.0000
46.7200 142.0000 1.0000
46.7400 140.0000 1.0000
46.7600 152.0000 1.0000
46.7800 142.0000 1.0000
46.8000 157.0000 1.0000
46.8200 171.0000 1.0000
46.8400 164.0000 1.0000
46.8600 153.0000 1.0000
46.8800 158.0000 1.0000
46.9000 148.0000 1.0000
46.9200 151.0000 1.0000
46.9400 162.0000 1.0000
46.9600 142.0000 1.0000
46.9800 139.0000 1.0000
47.0000 144.0000 1.0000
47.0200 139.0000 1.0000
47.0400 136.0000 1.0000
47.0600 129.0000 1.0000
47.0800 134.0000 1.0000
47.1000 122.0000 1.0000
47.1200 109.0000 1.0000
47.1400 107.0000 1.0000
47.1600 118.0000 1.0000
47.1800 135.0000 1.0000
47.2000 114.0000 1.0000
47.2200 114.0000 1.0000
47.2400 133.0000 1.0000
47.2600 144.0000 1.0000
47.2800 135.0000 1.0000
47.3000 131.0000 1.0000
47.3200 130.0000 1.0000
47.3400 128.0000 1.0000
47.3600 129.0000 1.0000
47.3800 130.0000 1.0000
47.4000 145.0000 1.0000
47.4200 165.0000 1.0000
47.4400 171.0000 1.0000
47.4600 169.0000 1.0000
47.4800 181.0000 1.0000
47.5000 201.0000 1.0000
47.5200 198.0000 1.0000
47.5400 191.0000 1.0000
47.5600 208.0000 1.0000
47.5800 215.0000 1.0000
47.6000 208.0000 1.0000
47.6200 218.0000 1.0000
47.6400 193.0000 1.0000
47.6600 175.0000 1.0000
47.6800 182.0000 1.0000
47.7000 166.0000 1.0000
47.7200 134.0000 1.0000
47.7400 133.0000 1.0000
47.7600 138.0000 1.0000
47.7800 138.0000 1.0000
47.8000 132.0000 1.0000
47.8200 136.0000 1.0000
47.8400 125.0000 1.0000
47.8600 123.0000 1.0000
47.8800 124.0000 1.0000
47.9000 130.0000 1.0000
47.9200 141.0000 1.0000
47.9400 121.0000 1.0000
47.9600 120.0000 1.0000
47.9800 132.0000 1.0000
48.0000 135.0000 1.0000
48.0200 145.0000 1.0000
48.0400 131.0000 1.0000
48.0600 126.0000 1.0000
48.0800 138.0000 1.0000
48.1000 146.0000 1.0000
48.1200 156.0000 1.0000
48.1400 171.0000 1.0000
48.1600 187.0000 1.0000
48.1800 210.0000 1.0000
48.2000 232.0000 1.0000
48.2200 229.0000 1.0000
48.2400 237.0000 1.0000
48.2600 245.0000 1.0000
48.2800 249.0000 1.0000
48.3000 246.0000 1.0000
48.3200 233.0000 1.0000
48.3400 230.0000 1.0000
48.3600 220.0000 1.0000
48.3800 211.0000 1.0000
48.4000 206.0000 1.0000
48.4200 187.0000 1.0000
48.4400 169.0000 1.0000
48.4600 169.0000 1.0000
48.4800 154.0000 1.0000
48.5000 141.0000 1.0000
48.5200 145.0000 1.0000
48.5400 149.0000 1.0000
48.5600 140.0000 1.0000
48.5800 134.0000 1.0000
48.6000 125.0000 1.0000
48.6200 123.0000 1.0000
48.6400 125.0000 1.0000
48.6600 123.0000 1.0000
48.6800 130.0000 1.0000
48.7000 126.0000 1.0000
48.7200 130.0000 1.0000
48.7400 142.0000 1.0000
48.7600 144.0000 1.0000
48.7800 131.0000 1.0000
48.8000 132.0000 1.0000
48.8200 141.0000 1.0000
48.8400 136.0000 1.0000
48.8600 142.0000 1.0000
48.8800 150.0000 1.0000
48.9000 142.0000 1.0000
48.9200 144.0000 1.0000
48.9400 163.0000 1.0000
48.9600 173.0000 1.0000
48.9800 181.0000 1.0000
49.0000 201.0000 1.0000
49.0200 230.0000 1.0000
49.0400 240.0000 1.0000
49.0600 248.0000 1.0000
49.0800 272.0000 1.0000
49.1000 282.0000 1.0000
49.1200 311.0000 1.0000
49.1400 327.0000 1.0000
49.1600 328.0000 1.0000
49.1800 318.0000 1.0000
49.2000 291.0000 1.0000
49.2200 298.0000 1.0000
49.2400 279.0000 1.0000
49.2600 253.0000 1.0000
49.2800 233.0000 1.0000
49.3000 218.0000 1.0000
49.3200 217.0000 1.0000
49.3400 202.0000 1.0000
49.3600 184.0000 1.0000
49.3800 176.0000 1.0000
49.4000 165.0000 1.0000
49.4200 160.0000 1.0000
49.4400 176.0000 1.0000
49.4600 173.0000 1.0000
49.4800 179.0000 1.0000
49.5000 182.0000 1.0000
49.5200 195.0000 1.0000
49.5400 228.0000 1.0000
49.5600 219.0000 1.0000
49.5800 226.0000 1.0000
49.6000 250.0000 1.0000
49.6200 273.0000 1.0000
49.6400 282.0000 1.0000
49.6600 309.0000 1.0000
49.6800 356.0000 1.0000
49.7000 369.0000 1.0000
49.7200 417.0000 1.0000
49.7400 429.0000 1.0000
49.7600 452.0000 1.0000
49.7800 476.0000 1.0000
49.8000 505.0000 1.0000
49.8200 511.0000 1.0000
49.8400 525.0000 1.0000
49.8600 540.0000 1.0000
49.8800 532.0000 1.0000
49.9000 535.0000 1.0000
49.9200 549.0000 1.0000
49.9400 576.0000 1.0000
49.9600 627.0000 1.0000
49.9800 727.0000 1.0000
50.0000 893.0000 1.0000
50.0200 1036.0000 1.0000
50.0400 1149.0000 1.0000
50.0600 1281.0000 1.0000
50.0800 1288.0000 1.0000
50.1000 1279.0000 1.0000
50.1200 1226.0000 1.0000
50.1400 1068.0000 1.0000
50.1600 913.0000 1.0000
50.1800 846.0000 1.0000
50.2000 803.0000 1.0000
50.2200 726.0000 1.0000
50.2400 650.0000 1.0000
50.2600 579.0000 1.0000
50.2800 441.0000 1.0000
50.3000 336.0000 1.0000
50.3200 289.0000 1.0000
50.3400 229.0000 1.0000
50.3600 229.0000 1.0000
50.3800 209.0000 1.0000
50.4000 229.0000 1.0000
50.4200 213.0000 1.0000
50.4400 237.0000 1.0000
50.4600 260.0000 1.0000
50.4800 261.0000 1.0000
50.5000 269.0000 1.0000
50.5200 262.0000 1.0000
50.5400 277.0000 1.0000
50.5600 308.0000 1.0000
50.5800 309.0000 1.0000
50.6000 328.0000 1.0000
50.6200 359.0000 1.0000
50.6400 380.0000 1.0000
50.6600 387.0000 1.0000
50.6800 361.0000 1.0000
50.7000 352.0000 1.0000
50.7200 325.0000 1.0000
50.7400 277.0000 1.0000
50.7600 266.0000 1.0000
50.7800 233.0000 1.0000
50.8000 237.0000 1.0000
50.8200 231.0000 1.0000
50.8400 231.0000 1.0000
50.8600 214.0000 1.0000
50.8800 179.0000 1.0000
50.9000 187.0000 1.0000
50.9200 172.0000 1.0000
50.9400 176.0000 1.0000
50.9600 188.0000 1.0000
50.9800 187.0000 1.0000
51.0000 176.0000 1.0000
51.0200 159.0000 1.0000
51.0400 201.0000 1.0000
51.0600 215.0000 1.0000
51.0800 220.0000 1.0000
51.1000 240.0000 1.0000
51.1200 232.0000 1.0000
51.1400 286.0000 1.0000
51.1600 302.0000 1.0000
51.1800 332.0000 1.0000
51.2000 370.0000 1.0000
51.2200 422.0000 1.0000
51.2400 445.0000 1.0000
51.2600 459.0000 1.0000
51.2800 413.0000 1.0000
51.3000 411.0000 1.0000
51.3200 377.0000 1.0000
51.3400 327.0000 1.0000
51.3600 343.0000 1.0000
51.3800 324.0000 1.0000
51.4000 312.0000 1.0000
51.4200 282.0000 1.0000
51.4400 244.0000 1.0000
51.4600 227.0000 1.0000
51.4800 208.0000 1.0000
51.5000 177.0000 1.0000
51.5200 162.0000 1.0000
51.5400 162.0000 1.0000
51.5600 166.0000 1.0000
51.5800 151.0000 1.0000
51.6000 144.0000 1.0000
51.6200 129.0000 1.0000
51.6400 131.0000 1.0000
51.6600 129.0000 1.0000
51.6800 142.0000 1.0000
51.7000 118.0000 1.0000
51.7200 127.0000 1.0000
51.7400 119.0000 1.0000
51.7600 112.0000 1.0000
51.7800 122.0000 1.0000
51.8000 118.0000 1.0000
51.8200 138.0000 1.0000
51.8400 131.0000 1.0000
51.8600 128.0000 1.0000
51.8800 142.0000 1.0000
51.9000 113.0000 1.0000
51.9200 151.0000 1.0000
51.9400 146.0000 1.0000
51.9600 143.0000 1.0000
51.9800 129.0000 1.0000
52.0000 120.0000 1.0000
52.0200 142.0000 1.0000
52.0400 139.0000 1.0000
52.0600 133.0000 1.0000
52.0800 163.0000 1.0000
52.1000 181.0000 1.0000
52.1200 164.0000 1.0000
52.1400 183.0000 1.0000
52.1600 202.0000 1.0000
52.1800 188.0000 1.0000
52.2000 204.0000 1.0000
52.2200 183.0000 1.0000
52.2400 245.0000 1.0000
52.2600 206.0000 1.0000
52.2800 229.0000 1.0000
52.3000 263.0000 1.0000
52.3200 248.0000 1.0000
52.3400 293.0000 1.0000
52.3600 340.0000 1.0000
52.3800 398.0000 1.0000
52.4000 477.0000 1.0000
52.4200 573.0000 1.0000
52.4400 675.0000 1.0000
52.4600 687.0000 1.0000
52.4800 802.0000 1.0000
52.5000 803.0000 1.0000
52.5200 801.0000 1.0000
52.5400 773.0000 1.0000
52.5600 707.0000 1.0000
52.5800 604.0000 1.0000
52.6000 581.0000 1.0000
52.6200 568.0000 1.0000
52.6400 566.0000 1.0000
52.6600 542.0000 1.0000
52.6800 490.0000 1.0000
52.7000 459.0000 1.0000
52.7200 390.0000 1.0000
52.7400 351.0000 1.0000
52.7600 318.0000 1.0000
52.7800 321.0000 1.0000
52.8000 310.0000 1.0000
52.8200 307.0000 1.0000
52.8400 271.0000 1.0000
52.8600 266.0000 1.0000
52.8800 239.0000 1.0000
52.9000 216.0000 1.0000
52.9200 237.0000 1.0000
52.9400 218.0000 1.0000
52.9600 200.0000 1.0000
52.9800 189.0000 1.0000
53.0000 214.0000 1.0000
53.0200 198.0000 1.0000
53.0400 199.0000 1.0000
53.0600 230.0000 1.0000
53.0800 185.0000 1.0000
53.1000 198.0000 1.0000
53.1200 211.0000 1.0000
53.1400 194.0000 1.0000
53.1600 200.0000 1.0000
53.1800 213.0000 1.0000
53.2000 212.0000 1.0000
53.2200 211.0000 1.0000
53.2400 185.0000 1.0000
53.2600 175.0000 1.0000
53.2800 175.0000 1.0000
53.3000 188.0000 1.0000
53.3200 189.0000 1.0000
53.3400 161.0000 1.0000
53.3600 133.0000 1.0000
53.3800 139.0000 1.0000
53.4000 140.0000 1.0000
53.4200 151.0000 1.0000
53.4400 136.0000 1.0000
53.4600 139.0000 1.0000
53.4800 119.0000 1.0000
53.5000 128.0000 1.0000
53.5200 135.0000 1.0000
53.5400 142.0000 1.0000
53.5600 124.0000 1.0000
53.5800 160.0000 1.0000
53.6000 128.0000 1.0000
53.6200 144.0000 1.0000
53.6400 132.0000 1.0000
53.6600 144.0000 1.0000
53.6800 140.0000 1.0000
53.7000 136.0000 1.0000
53.7200 137.0000 1.0000
53.7400 149.0000 1.0000
53.7600 150.0000 1.0000
53.7800 141.0000 1.0000
53.8000 134.0000 1.0000
53.8200 137.0000 1.0000
53.8400 139.0000 1.0000
53.8600 156.0000 1.0000
53.8800 150.0000 1.0000
53.9000 144.0000 1.0000
53.9200 157.0000 1.0000
53.9400 153.0000 1.0000
53.9600 156.0000 1.0000
53.9800 185.0000 1.0000
54.0000 144.0000 1.0000
54.0200 153.0000 1.0000
54.0400 167.0000 1.0000
54.0600 183.0000 1.0000
54.0800 187.0000 1.0000
54.1000 191.0000 1.0000
54.1200 165.0000 1.0000
54.1400 196.0000 1.0000
54.1600 187.0000 1.0000
54.1800 181.0000 1.0000
54.2000 191.0000 1.0000
54.2200 181.0000 1.0000
54.2400 185.0000 1.0000
54.2600 187.0000 1.0000
54.2800 182.0000 1.0000
54.3000 197.0000 1.0000
54.3200 208.0000 1.0000
54.3400 216.0000 1.0000
54.3600 208.0000 1.0000
54.3800 205.0000 1.0000
54.4000 220.0000 1.0000
54.4200 207.0000 1.0000
54.4400 188.0000 1.0000
54.4600 184.0000 1.0000
54.4800 182.0000 1.0000
54.5000 179.0000 1.0000
54.5200 169.0000 1.0000
54.5400 171.0000 1.0000
54.5600 166.0000 1.0000
54.5800 167.0000 1.0000
54.6000 163.0000 1.0000
54.6200 175.0000 1.0000
54.6400 190.0000 1.0000
54.6600 212.0000 1.0000
54.6800 214.0000 1.0000
54.7000 241.0000 1.0000
54.7200 276.0000 1.0000
54.7400 332.0000 1.0000
54.7600 381.0000 1.0000
54.7800 431.0000 1.0000
54.8000 477.0000 1.0000
54.8200 477.0000 1.0000
54.8400 453.0000 1.0000
54.8600 427.0000 1.0000
54.8800 414.0000 1.0000
54.9000 365.0000 1.0000
54.9200 368.0000 1.0000
54.9400 353.0000 1.0000
54.9600 321.0000 1.0000
54.9800 312.0000 1.0000
55.0000 308.0000 1.0000
55.0200 281.0000 1.0000
55.0400 231.0000 1.0000
55.0600 196.0000 1.0000
55.0800 189.0000 1.0000
55.1000 187.0000 1.0000
55.1200 189.0000 1.0000
55.1400 198.0000 1.0000
55.1600 211.0000 1.0000
55.1800 225.0000 1.0000
55.2000 249.0000 1.0000
55.2200 280.0000 1.0000
55.2400 313.0000 1.0000
55.2600 320.0000 1.0000
55.2800 324.0000 1.0000
55.3000 319.0000 1.0000
55.3200 300.0000 1.0000
55.3400 263.0000 1.0000
55.3600 247.0000 1.0000
55.3800 231.0000 1.0000
55.4000 234.0000 1.0000
55.4200 242.0000 1.0000
55.4400 236.0000 1.0000
55.4600 226.0000 1.0000
55.4800 187.0000 1.0000
55.5000 160.0000 1.0000
55.5200 152.0000 1.0000
55.5400 151.0000 1.0000
55.5600 157.0000 1.0000
55.5800 153.0000 1.0000
55.6000 129.0000 1.0000
55.6200 125.0000 1.0000
55.6400 134.0000 1.0000
55.6600 117.0000 1.0000
55.6800 114.0000 1.0000
55.7000 130.0000 1.0000
55.7200 138.0000 1.0000
55.7400 133.0000 1.0000
55.7600 118.0000 1.0000
55.7800 123.0000 1.0000
55.8000 137.0000 1.0000
55.8200 135.0000 1.0000
55.8400 122.0000 1.0000
55.8600 121.0000 1.0000
55.8800 135.0000 1.0000
55.9000 139.0000 1.0000
55.9200 122.0000 1.0000
55.9400 116.0000 1.0000
55.9600 133.0000 1.0000
55.9800 123.0000 1.0000
56.0000 120.0000 1.0000
56.0200 129.0000 1.0000
56.0400 127.0000 1.0000
56.0600 124.0000 1.0000
56.0800 122.0000 1.0000
56.1000 122.0000 1.0000
56.1200 122.0000 1.0000
56.1400 128.0000 1.0000
56.1600 126.0000 1.0000
56.1800 126.0000 1.0000
56.2000 126.0000 1.0000
56.2200 122.0000 1.0000
56.2400 117.0000 1.0000
56.2600 121.0000 1.0000
56.2800 117.0000 1.0000
56.3000 108.0000 1.0000
56.3200 115.0000 1.0000
56.3400 125.0000 1.0000
56.3600 143.0000 1.0000
56.3800 143.0000 1.0000
56.4000 132.0000 1.0000
56.4200 129.0000 1.0000
56.4400 130.0000 1.0000
56.4600 124.0000 1.0000
56.4800 128.0000 1.0000
56.5000 134.0000 1.0000
56.5200 129.0000 1.0000
56.5400 132.0000 1.0000
56.5600 132.0000 1.0000
56.5800 125.0000 1.0000
56.6000 132.0000 1.0000
56.6200 138.0000 1.0000
56.6400 118.0000 1.0000
56.6600 118.0000 1.0000
56.6800 134.0000 1.0000
56.7000 140.0000 1.0000
56.7200 135.0000 1.0000
56.7400 129.0000 1.0000
56.7600 117.0000 1.0000
56.7800 126.0000 1.0000
56.8000 124.0000 1.0000
56.8200 117.0000 1.0000
56.8400 116.0000 1.0000
56.8600 121.0000 1.0000
56.8800 122.0000 1.0000
56.9000 133.0000 1.0000
56.9200 143.0000 1.0000
56.9400 134.0000 1.0000
56.9600 123.0000 1.0000
56.9800 128.0000 1.0000
57.0000 134.0000 1.0000
57.0200 135.0000 1.0000
57.0400 148.0000 1.0000
57.0600 165.0000 1.0000
57.0800 186.0000 1.0000
57.1000 191.0000 1.0000
57.1200 170.0000 1.0000
57.1400 177.0000 1.0000
57.1600 189.0000 1.0000
57.1800 222.0000 1.0000
57.2000 224.0000 1.0000
57.2200 258.0000 1.0000
57.2400 295.0000 1.0000
57.2600 344.0000 1.0000
57.2800 377.0000 1.0000
57.3000 419.0000 1.0000
57.3200 528.0000 1.0000
57.3400 676.0000 1.0000
57.3600 840.0000 1.0000
57.3800 992.0000 1.0000
57.4000 1208.0000 1.0000
57.4200 1350.0000 1.0000
57.4400 1419.0000 1.0000
57.4600 1460.0000 1.0000
57.4800 1411.0000 1.0000
57.5000 1287.0000 1.0000
57.5200 1100.0000 1.0000
57.5400 1020.0000 1.0000
57.5600 1015.0000 1.0000
57.5800 1008.0000 1.0000
57.6000 934.0000 1.0000
57.6200 858.0000 1.0000
57.6400 737.0000 1.0000
57.6600 638.0000 1.0000
57.6800 551.0000 1.0000
57.7000 434.0000 1.0000
57.7200 354.0000 1.0000
57.7400 325.0000 1.0000
57.7600 296.0000 1.0000
57.7800 264.0000 1.0000
57.8000 256.0000 1.0000
57.8200 221.0000 1.0000
57.8400 198.0000 1.0000
57.8600 208.0000 1.0000
57.8800 194.0000 1.0000
57.9000 185.0000 1.0000
57.9200 187.0000 1.0000
57.9400 171.0000 1.0000
57.9600 158.0000 1.0000
57.9800 152.0000 1.0000
58.0000 137.0000 1.0000
58.0200 138.0000 1.0000
58.0400 148.0000 1.0000
58.0600 144.0000 1.0000
58.0800 124.0000 1.0000
58.1000 140.0000 1.0000
58.1200 137.0000 1.0000
58.1400 129.0000 1.0000
58.1600 130.0000 1.0000
58.1800 124.0000 1.0000
58.2000 128.0000 1.0000
58.2200 126.0000 1.0000
58.2400 132.0000 1.0000
58.2600 134.0000 1.0000
58.2800 138.0000 1.0000
58.3000 146.0000 1.0000
58.3200 140.0000 1.0000
58.3400 154.0000 1.0000
58.3600 173.0000 1.0000
58.3800 170.0000 1.0000
58.4000 174.0000 1.0000
58.4200 168.0000 1.0000
58.4400 164.0000 1.0000
58.4600 158.0000 1.0000
58.4800 166.0000 1.0000
58.5000 185.0000 1.0000
58.5200 174.0000 1.0000
58.5400 191.0000 1.0000
58.5600 181.0000 1.0000
58.5800 209.0000 1.0000
58.6000 191.0000 1.0000
58.6200 206.0000 1.0000
58.6400 189.0000 1.0000
58.6600 200.0000 1.0000
58.6800 194.0000 1.0000
58.7000 202.0000 1.0000
58.7200 195.0000 1.0000
58.7400 186.0000 1.0000
58.7600 178.0000 1.0000
58.7800 193.0000 1.0000
58.8000 163.0000 1.0000
58.8200 151.0000 1.0000
58.8400 139.0000 1.0000
58.8600 151.0000 1.0000
58.8800 157.0000 1.0000
58.9000 140.0000 1.0000
58.9200 156.0000 1.0000
58.9400 153.0000 1.0000
58.9600 146.0000 1.0000
58.9800 144.0000 1.0000
59.0000 140.0000 1.0000
59.0200 129.0000 1.0000
59.0400 141.0000 1.0000
59.0600 135.0000 1.0000
59.0800 133.0000 1.0000
59.1000 122.0000 1.0000
59.1200 119.0000 1.0000
59.1400 127.0000 1.0000
59.1600 133.0000 1.0000
59.1800 163.0000 1.0000
59.2000 149.0000 1.0000
59.2200 142.0000 1.0000
59.2400 149.0000 1.0000
59.2600 152.0000 1.0000
59.2800 142.0000 1.0000
59.3000 130.0000 1.0000
59.3200 148.0000 1.0000
59.3400 150.0000 1.0000
59.3600 160.0000 1.0000
59.3800 151.0000 1.0000
59.4000 168.0000 1.0000
59.4200 160.0000 1.0000
59.4400 175.0000 1.0000
59.4600 188.0000 1.0000
59.4800 184.0000 1.0000
59.5000 180.0000 1.0000
59.5200 178.0000 1.0000
59.5400 184.0000 1.0000
59.5600 206.0000 1.0000
59.5800 203.0000 1.0000
59.6000 214.0000 1.0000
59.6200 202.0000 1.0000
59.6400 232.0000 1.0000
59.6600 243.0000 1.0000
59.6800 262.0000 1.0000
59.7000 281.0000 1.0000
59.7200 302.0000 1.0000
59.7400 320.0000 1.0000
59.7600 333.0000 1.0000
59.7800 375.0000 1.0000
59.8000 421.0000 1.0000
59.8200 508.0000 1.0000
59.8400 612.0000 1.0000
59.8600 751.0000 1.0000
59.8800 879.0000 1.0000
59.9000 894.0000 1.0000
59.9200 912.0000 1.0000
59.9400 854.0000 1.0000
59.9600 768.0000 1.0000
59.9800 708.0000 1.0000
60.0000 632.0000 1.0000
60.0200 566.0000 1.0000
60.0400 587.0000 1.0000
60.0600 605.0000 1.0000
60.0800 554.0000 1.0000
60.1000 516.0000 1.0000
60.1200 485.0000 1.0000
60.1400 447.0000 1.0000
60.1600 355.0000 1.0000
60.1800 298.0000 1.0000
60.2000 244.0000 1.0000
60.2200 260.0000 1.0000
60.2400 253.0000 1.0000
60.2600 240.0000 1.0000
60.2800 197.0000 1.0000
60.3000 203.0000 1.0000
60.3200 180.0000 1.0000
60.3400 191.0000 1.0000
60.3600 188.0000 1.0000
60.3800 206.0000 1.0000
60.4000 186.0000 1.0000
60.4200 180.0000 1.0000
60.4400 190.0000 1.0000
60.4600 166.0000 1.0000
60.4800 167.0000 1.0000
60.5000 162.0000 1.0000
60.5200 171.0000 1.0000
60.5400 180.0000 1.0000
60.5600 153.0000 1.0000
60.5800 162.0000 1.0000
60.6000 171.0000 1.0000
60.6200 166.0000 1.0000
60.6400 147.0000 1.0000
60.6600 178.0000 1.0000
60.6800 180.0000 1.0000
60.7000 174.0000 1.0000
60.7200 158.0000 1.0000
60.7400 183.0000 1.0000
60.7600 168.0000 1.0000
60.7800 161.0000 1.0000
60.8000 167.0000 1.0000
60.8200 171.0000 1.0000
60.8400 170.0000 1.0000
60.8600 160.0000 1.0000
60.8800 149.0000 1.0000
60.9000 124.0000 1.0000
60.9200 148.0000 1.0000
60.9400 159.0000 1.0000
60.9600 152.0000 1.0000
60.9800 175.0000 1.0000
61.0000 175.0000 1.0000
61.0200 175.0000 1.0000
61.0400 178.0000 1.0000
61.0600 217.0000 1.0000
61.0800 197.0000 1.0000
61.1000 208.0000 1.0000
61.1200 195.0000 1.0000
61.1400 239.0000 1.0000
61.1600 197.0000 1.0000
61.1800 237.0000 1.0000
61.2000 272.0000 1.0000
61.2200 258.0000 1.0000
61.2400 267.0000 1.0000
61.2600 284.0000 1.0000
61.2800 246.0000 1.0000
61.3000 280.0000 1.0000
61.3200 248.0000 1.0000
61.3400 227.0000 1.0000
61.3600 201.0000 1.0000
61.3800 201.0000 1.0000
61.4000 231.0000 1.0000
61.4200 219.0000 1.0000
61.4400 221.0000 1.0000
61.4600 209.0000 1.0000
61.4800 182.0000 1.0000
61.5000 172.0000 1.0000
61.5200 163.0000 1.0000
61.5400 197.0000 1.0000
61.5600 191.0000 1.0000
61.5800 184.0000 1.0000
61.6000 184.0000 1.0000
61.6200 193.0000 1.0000
61.6400 210.0000 1.0000
61.6600 179.0000 1.0000
61.6800 166.0000 1.0000
61.7000 166.0000 1.0000
61.7200 201.0000 1.0000
61.7400 197.0000 1.0000
61.7600 180.0000 1.0000
61.7800 181.0000 1.0000
61.8000 194.0000 1.0000
61.8200 158.0000 1.0000
61.8400 207.0000 1.0000
61.8600 186.0000 1.0000
61.8800 182.0000 1.0000
61.9000 183.0000 1.0000
61.9200 171.0000 1.0000
61.9400 188.0000 1.0000
61.9600 187.0000 1.0000
61.9800 181.0000 1.0000
62.0000 185.0000 1.0000
62.0200 183.0000 1.0000
62.0400 182.0000 1.0000
62.0600 162.0000 1.0000
62.0800 189.0000 1.0000
62.1000 168.0000 1.0000
62.1200 210.0000 1.0000
62.1400 166.0000 1.0000
62.1600 159.0000 1.0000
62.1800 177.0000 1.0000
62.2000 180.0000 1.0000
62.2200 176.0000 1.0000
62.2400 186.0000 1.0000
62.2600 168.0000 1.0000
62.2800 181.0000 1.0000
62.3000 158.0000 1.0000
62.3200 174.0000 1.0000
62.3400 150.0000 1.0000
62.3600 150.0000 1.0000
62.3800 166.0000 1.0000
62.4000 165.0000 1.0000
62.4200 143.0000 1.0000
62.4400 155.0000 1.0000
62.4600 151.0000 1.0000
62.4800 154.0000 1.0000
62.5000 168.0000 1.0000
62.5200 166.0000 1.0000
62.5400 159.0000 1.0000
62.5600 162.0000 1.0000
62.5800 158.0000 1.0000
62.6000 147.0000 1.0000
62.6200 155.0000 1.0000
62.6400 139.0000 1.0000
62.6600 141.0000 1.0000
62.6800 137.0000 1.0000
62.7000 135.0000 1.0000
62.7200 146.0000 1.0000
62.7400 143.0000 1.0000
62.7600 157.0000 1.0000
62.7800 146.0000 1.0000
62.8000 140.0000 1.0000
62.8200 141.0000 1.0000
62.8400 131.0000 1.0000
62.8600 156.0000 1.0000
62.8800 137.0000 1.0000
62.9000 136.0000 1.0000
62.9200 147.0000 1.0000
62.9400 149.0000 1.0000
62.9600 148.0000 1.0000
62.9800 153.0000 1.0000
63.0000 163.0000 1.0000
63.0200 161.0000 1.0000
63.0400 191.0000 1.0000
63.0600 176.0000 1.0000
63.0800 209.0000 1.0000
63.1000 210.0000 1.0000
63.1200 188.0000 1.0000
63.1400 219.0000 1.0000
63.1600 217.0000 1.0000
63.1800 181.0000 1.0000
63.2000 190.0000 1.0000
63.2200 186.0000 1.0000
63.2400 194.0000 1.0000
63.2600 204.0000 1.0000
63.2800 183.0000 1.0000
63.3000 176.0000 1.0000
63.3200 190.0000 1.0000
63.3400 195.0000 1.0000
63.3600 187.0000 1.0000
63.3800 190.0000 1.0000
63.4000 185.0000 1.0000
63.4200 175.0000 1.0000
63.4400 175.0000 1.0000
63.4600 156.0000 1.0000
63.4800 176.0000 1.0000
63.5000 186.0000 1.0000
63.5200 167.0000 1.0000
63.5400 186.0000 1.0000
63.5600 202.0000 1.0000
63.5800 204.0000 1.0000
63.6000 227.0000 1.0000
63.6200 243.0000 1.0000
63.6400 253.0000 1.0000
63.6600 255.0000 1.0000
63.6800 225.0000 1.0000
63.7000 256.0000 1.0000
63.7200 264.0000 1.0000
63.7400 247.0000 1.0000
63.7600 235.0000 1.0000
63.7800 264.0000 1.0000
63.8000 278.0000 1.0000
63.8200 267.0000 1.0000
63.8400 267.0000 1.0000
63.8600 252.0000 1.0000
63.8800 282.0000 1.0000
63.9000 281.0000 1.0000
63.9200 278.0000 1.0000
63.9400 320.0000 1.0000
63.9600 307.0000 1.0000
63.9800 318.0000 1.0000
64.0000 325.0000 1.0000
64.0200 318.0000 1.0000
64.0400 290.0000 1.0000
64.0600 246.0000 1.0000
64.0800 245.0000 1.0000
64.1000 225.0000 1.0000
64.1200 214.0000 1.0000
64.1400 225.0000 1.0000
64.1600 225.0000 1.0000
64.1800 224.0000 1.0000
64.2000 200.0000 1.0000
64.2200 195.0000 1.0000
64.2400 188.0000 1.0000
64.2600 183.0000 1.0000
64.2800 176.0000 1.0000
64.3000 148.0000 1.0000
64.3200 171.0000 1.0000
64.3400 167.0000 1.0000
64.3600 166.0000 1.0000
64.3800 175.0000 1.0000
64.4000 174.0000 1.0000
64.4200 160.0000 1.0000
64.4400 145.0000 1.0000
64.4600 159.0000 1.0000
64.4800 152.0000 1.0000
64.5000 147.0000 1.0000
64.5200 149.0000 1.0000
64.5400 142.0000 1.0000
64.5600 133.0000 1.0000
64.5800 147.0000 1.0000
64.6000 134.0000 1.0000
64.6200 147.0000 1.0000
64.6400 143.0000 1.0000
64.6600 120.0000 1.0000
64.6800 140.0000 1.0000
64.7000 147.0000 1.0000
64.7200 136.0000 1.0000
64.7400 142.0000 1.0000
64.7600 130.0000 1.0000
64.7800 135.0000 1.0000
64.8000 145.0000 1.0000
64.8200 129.0000 1.0000
64.8400 135.0000 1.0000
64.8600 132.0000 1.0000
64.8800 135.0000 1.0000
64.9000 130.0000 1.0000
64.9200 151.0000 1.0000
64.9400 146.0000 1.0000
64.9600 140.0000 1.0000
64.9800 140.0000 1.0000
65.0000 140.0000 1.0000
*RAS_INT_END
*RAS_DATA_END
