*RAS_DATA_START
*RAS_HEADER_START
*CORR_POS_DB_NAME "Angle Correction ASC6 SC WITH Mono_04082019"
*CORR_POS_GONIO_RADIUS ""
*CORR_POS_NODE_INDEX01 ""
*CORR_POS_NODE_INDEX02 ""
*CORR_POS_NODE_INDEX03 ""
*CORR_POS_NODE_INDEX04 ""
*CORR_POS_NODE_INDEX05 ""
*CORR_POS_NODE_INDEX06 ""
*CORR_POS_NODE_INDEX07 ""
*CORR_POS_NODE_INDEX08 ""
*CORR_POS_NODE_INDEX09 ""
*CORR_POS_NODE_INDEX10 ""
*CORR_POS_NODE_INDEX11 ""
*CORR_POS_NODE_LABEL01 "Si(111)"
*CORR_POS_NODE_LABEL02 "Si(220)"
*CORR_POS_NODE_LABEL03 "Si(311)"
*CORR_POS_NODE_LABEL04 "Si(400)"
*CORR_POS_NODE_LABEL05 "Si(331)"
*CORR_POS_NODE_LABEL06 "Si(422)"
*CORR_POS_NODE_LABEL07 "Si(511)"
*CORR_POS_NODE_LABEL08 "Si(440)"
*CORR_POS_NODE_LABEL09 "Si(531)"
*CORR_POS_NODE_LABEL10 "Si(620)"
*CORR_POS_NODE_LABEL11 "Si(533)"
*CORR_POS_NODE_POS_CALC01 "28.377"
*CORR_POS_NODE_POS_CALC02 "47.2506"
*CORR_POS_NODE_POS_CALC03 "56.0725"
*CORR_POS_NODE_POS_CALC04 "69.0822"
*CORR_POS_NODE_POS_CALC05 "76.3294"
*CORR_POS_NODE_POS_CALC06 "87.9853"
*CORR_POS_NODE_POS_CALC07 "94.9091"
*CORR_POS_NODE_POS_CALC08 "106.668"
*CORR_POS_NODE_POS_CALC09 "114.054"
*CORR_POS_NODE_POS_CALC10 "127.511"
*CORR_POS_NODE_POS_CALC11 "136.864"
*CORR_POS_NODE_POS_MEAS01 "28.5058"
*CORR_POS_NODE_POS_MEAS02 "47.345"
*CORR_POS_NODE_POS_MEAS03 "56.1421"
*CORR_POS_NODE_POS_MEAS04 "69.1304"
*CORR_POS_NODE_POS_MEAS05 "76.366"
*CORR_POS_NODE_POS_MEAS06 "88.0213"
*CORR_POS_NODE_POS_MEAS07 "94.9406"
*CORR_POS_NODE_POS_MEAS08 "106.689"
*CORR_POS_NODE_POS_MEAS09 "114.065"
*CORR_POS_NODE_POS_MEAS10 "127.518"
*CORR_POS_NODE_POS_MEAS11 "136.869"
*CORR_POS_OPT_ATTR "集中法"
*CORR_POS_PARAM_MU ""
*CORR_POS_PARAM_PL ""
*CORR_POS_SEMODEL_TYPE "0"
*CORR_POS_STANDARD_TYPE ""
*CORR_POS_VALUE_ANALYZER "None"
*CORR_POS_VALUE_CMONO "None"
*CORR_POS_VALUE_IMONO "None"
*CORR_POS_VALUE_IS "1.250deg"
*CORR_POS_VALUE_ISL "10.0mm"
*CORR_POS_VALUE_ISOLLER "5.0deg"
*CORR_POS_VALUE_RS1 "1.250deg"
*CORR_POS_VALUE_RS2 "0.3mm"
*CORR_POS_VALUE_RSOLLER "5.0deg"
*CORR_POS_XG_FOCUS_L ""
*CORR_POS_XG_WAVE_TYPE ""
*CORR_POS_XG_WAVE_VALUE ""
*DISP_FMT_X "%.2f"
*DISP_FMT_Y "%.0f"
*DISP_FULLSCALE "5133.0000000000"
*DISP_LINE_COLOR "255.0000000000"
*DISP_LINE_STYLE "0.0000000000"
*DISP_LINE_WIDTH "0.2500000000"
*DISP_NOTE "Collected Data-22"
*DISP_OFFSET_Y "0.0000000000"
*DISP_PEAKSEARCH_UNIT_Y "CPS"
*DISP_RANGE_BOTTOM "0.0000000000"
*DISP_RANGE_LEFT "5.0000000000"
*DISP_RANGE_LOGCUTOFF "0.0100000000"
*DISP_RANGE_RIGHT "65.0000000000"
*DISP_RANGE_TOP "5133.0000000000"
*DISP_SCALE_MODE_Y "0.0000000000"
*DISP_TAB_NAME "Theta/2-Theta"
*DISP_TITLE_Y "Intensity"
*DISP_UNIT_Y "CPS"
*DISP_WINDOW_NAME "MSG_MACROENGINE"
*FILE_COMMENT " "
*FILE_MD5 ""
*FILE_MEMO " "
*FILE_OPERATOR "administrator"
*FILE_PART_ID "MEAS_PBEA_00223"
*FILE_SAMPLE " "
*FILE_TYPE "RAS_RAW"
*FILE_USERGROUP "System Manager"
*FILE_VERSION "1.0000000000"
*HW_ATTACHMENT_ID "ATT1031"
*HW_ATTACHMENT_NAME "6サンプルチェンジャ|ASC-6"
*HW_COUNTER_ID-0 "CUT0021"
*HW_COUNTER_ID-1 "CUT0020"
*HW_COUNTER_ID-2 "CUT0020"
*HW_COUNTER_ID-3 "CMC0021"
*HW_COUNTER_NAME-0 "SC-70|SC-70"
*HW_COUNTER_NAME-1 "None|None"
*HW_COUNTER_NAME-2 "None|None"
*HW_COUNTER_NAME-3 "検出器モノクロメータ|Detector monochromator"
*HW_COUNTER_SELECT_NAME "SC-70|SC-70"
*HW_ECP_HV "671.5000000000"
*HW_ECP_HV_UNIT "V"
*HW_GONIOMETER_ID "GON0070"
*HW_GONIOMETER_NAME "MiniFlex 300/600|MiniFlex 300/600"
*HW_GONIOMETER_RADIUS-0 "79.0"
*HW_GONIOMETER_RADIUS-1 "91.5"
*HW_GONIOMETER_RADIUS-2 "150.0"
*HW_GONIOMETER_RADIUS-3 "0"
*HW_GONIOMETER_RADIUS-4 "103.4"
*HW_GONIOMETER_RADIUS-5 "150.0"
*HW_GONIOMETER_RADIUS-6 "46.6"
*HW_GONIOMETER_RADIUS-7 "160.0"
*HW_I_OPT_ID-0 "ISL0021"
*HW_I_OPT_ID-1 "ISO0021"
*HW_I_OPT_NAME-0 "発散スリット|Divergence slit"
*HW_I_OPT_NAME-1 "入射平行スリット|Incident parallel slit"
*HW_R_ATTENUATER_AUTOMODE "0"
*HW_R_OPT_ID-0 "RSS0021"
*HW_R_OPT_ID-1 "RSO0021"
*HW_R_OPT_ID-2 "RRS0021"
*HW_R_OPT_NAME-0 "散乱スリット|Scattering slit"
*HW_R_OPT_NAME-1 "受光平行スリット|Receiving soller slit"
*HW_R_OPT_NAME-2 "受光スリット|Receiving slit"
*HW_SAMPLE_HOLDER_ID "SMP0000"
*HW_SAMPLE_HOLDER_NAME "無し|None"
*HW_XG_CURRENT_MAX "15"
*HW_XG_CURRENT_MIN "2"
*HW_XG_CURRENT_RESOLUTION "1"
*HW_XG_CURRENT_UNIT "mA"
*HW_XG_FOCUS "1mm x 10mm"
*HW_XG_FOCUS_TYPE "Normal"
*HW_XG_ID "1060"
*HW_XG_NAME "300W/600W 封入管-B|300W/600W Sealed tube-B"
*HW_XG_TARGET_ATOMIC_NUMBER "29.0000000000"
*HW_XG_TARGET_NAME "Cu"
*HW_XG_TYPE "Hermetic"
*HW_XG_VOLTAGE_MAX "40"
*HW_XG_VOLTAGE_MIN "20"
*HW_XG_VOLTAGE_RESOLUTION "1"
*HW_XG_VOLTAGE_UNIT "kV"
*HW_XG_WATT_MAX "0.600"
*HW_XG_WATT_UNIT "kW"
*HW_XG_WAVE_LENGTH_ALPHA1 "1.540593"
*HW_XG_WAVE_LENGTH_ALPHA2 "1.544414"
*HW_XG_WAVE_LENGTH_BETA "1.392250"
*MEAS_COND_AXIS_NAME-0 "Theta/2-Theta"
*MEAS_COND_AXIS_NAME-1 "Spin"
*MEAS_COND_AXIS_NAME-2 "Change"
*MEAS_COND_AXIS_NAME-3 "Soller(inc.)"
*MEAS_COND_AXIS_NAME-4 "IHS"
*MEAS_COND_AXIS_NAME-5 "DS"
*MEAS_COND_AXIS_NAME-6 "SS"
*MEAS_COND_AXIS_NAME-7 "Soller(rec.)"
*MEAS_COND_AXIS_NAME-8 "RS"
*MEAS_COND_AXIS_NAME-9 "Filter"
*MEAS_COND_AXIS_NAME-10 "Monochromator"
*MEAS_COND_AXIS_NAME-11 "HV"
*MEAS_COND_AXIS_NAME-12 "PHA"
*MEAS_COND_AXIS_NAME_INTERNAL-0 "TwoThetaTheta"
*MEAS_COND_AXIS_NAME_INTERNAL-1 "Spin"
*MEAS_COND_AXIS_NAME_INTERNAL-2 "Change"
*MEAS_COND_AXIS_NAME_INTERNAL-3 "IncidentSollerSlit"
*MEAS_COND_AXIS_NAME_INTERNAL-4 "IncidentAxdSlit"
*MEAS_COND_AXIS_NAME_INTERNAL-5 "IncidentSlitBox"
*MEAS_COND_AXIS_NAME_INTERNAL-6 "ReceivingSlitBox1"
*MEAS_COND_AXIS_NAME_INTERNAL-7 "ReceivingSollerSlit"
*MEAS_COND_AXIS_NAME_INTERNAL-8 "ReceivingSlitBox2"
*MEAS_COND_AXIS_NAME_INTERNAL-9 "Filter"
*MEAS_COND_AXIS_NAME_INTERNAL-10 "CounterMonochromator"
*MEAS_COND_AXIS_NAME_INTERNAL-11 "HV"
*MEAS_COND_AXIS_NAME_INTERNAL-12 "PHA"
*MEAS_COND_AXIS_NAME_MAGICNO-0 "268632064.0000000000"
*MEAS_COND_AXIS_NAME_MAGICNO-1 "16842752.0000000000"
*MEAS_COND_AXIS_NAME_MAGICNO-2 "16842752.0000000000"
*MEAS_COND_AXIS_NAME_MAGICNO-3 "20971521.0000000000"
*MEAS_COND_AXIS_NAME_MAGICNO-4 "22020097.0000000000"
*MEAS_COND_AXIS_NAME_MAGICNO-5 "22020097.0000000000"
*MEAS_COND_AXIS_NAME_MAGICNO-6 "23068673.0000000000"
*MEAS_COND_AXIS_NAME_MAGICNO-7 "20971521.0000000000"
*MEAS_COND_AXIS_NAME_MAGICNO-8 "23068673.0000000000"
*MEAS_COND_AXIS_NAME_MAGICNO-9 "20971521.0000000000"
*MEAS_COND_AXIS_NAME_MAGICNO-10 "20971521.0000000000"
*MEAS_COND_AXIS_NAME_MAGICNO-11 "0.0000000000"
*MEAS_COND_AXIS_NAME_MAGICNO-12 "0.0000000000"
*MEAS_COND_AXIS_OFFSET-0 "0.0000000000"
*MEAS_COND_AXIS_OFFSET-1 "-"
*MEAS_COND_AXIS_OFFSET-2 "-"
*MEAS_COND_AXIS_OFFSET-3 "-"
*MEAS_COND_AXIS_OFFSET-4 "-"
*MEAS_COND_AXIS_OFFSET-5 "-"
*MEAS_COND_AXIS_OFFSET-6 "-"
*MEAS_COND_AXIS_OFFSET-7 "-"
*MEAS_COND_AXIS_OFFSET-8 "-"
*MEAS_COND_AXIS_OFFSET-9 "-"
*MEAS_COND_AXIS_OFFSET-10 "-"
*MEAS_COND_AXIS_OFFSET-11 "-"
*MEAS_COND_AXIS_OFFSET-12 "-"
*MEAS_COND_AXIS_POSITION-0 "65.0000000000"
*MEAS_COND_AXIS_POSITION-1 "0.0000000000"
*MEAS_COND_AXIS_POSITION-2 "6.0000000000"
*MEAS_COND_AXIS_POSITION-3 "5.0deg"
*MEAS_COND_AXIS_POSITION-4 "10.0mm"
*MEAS_COND_AXIS_POSITION-5 "1.250deg"
*MEAS_COND_AXIS_POSITION-6 "1.250deg"
*MEAS_COND_AXIS_POSITION-7 "5.0deg"
*MEAS_COND_AXIS_POSITION-8 "0.3mm"
*MEAS_COND_AXIS_POSITION-9 "None"
*MEAS_COND_AXIS_POSITION-10 "Bent"
*MEAS_COND_AXIS_POSITION-11 "671.5000000000"
*MEAS_COND_AXIS_POSITION-12 "551.2500000000"
*MEAS_COND_AXIS_UNIT-0 "deg"
*MEAS_COND_AXIS_UNIT-1 ""
*MEAS_COND_AXIS_UNIT-2 ""
*MEAS_COND_AXIS_UNIT-3 ""
*MEAS_COND_AXIS_UNIT-4 ""
*MEAS_COND_AXIS_UNIT-5 ""
*MEAS_COND_AXIS_UNIT-6 ""
*MEAS_COND_AXIS_UNIT-7 ""
*MEAS_COND_AXIS_UNIT-8 ""
*MEAS_COND_AXIS_UNIT-9 ""
*MEAS_COND_AXIS_UNIT-10 ""
*MEAS_COND_AXIS_UNIT-11 "V"
*MEAS_COND_AXIS_UNIT-12 "mV"
*MEAS_COND_CORRECTION_SLIT_COUNTERMONO "None"
*MEAS_COND_CORRECTION_SLIT_DS "1.250deg"
*MEAS_COND_CORRECTION_SLIT_FILTER "None"
*MEAS_COND_CORRECTION_SLIT_IHS "10.0mm"
*MEAS_COND_CORRECTION_SLIT_RS "0.3mm"
*MEAS_COND_CORRECTION_SLIT_SOLLER_INC "5.0deg"
*MEAS_COND_CORRECTION_SLIT_SOLLER_REC "5.0deg"
*MEAS_COND_CORRECTION_SLIT_SS "1.250deg"
*MEAS_COND_COUNTER_CNTLOSS_CORR "0.0000000000"
*MEAS_COND_COUNTER_PHABASE "551.2500000000"
*MEAS_COND_COUNTER_PHAWINDOW "926.2500000000"
*MEAS_COND_COUNTER_PHA_UNIT "mV"
*MEAS_COND_COUNTER_TAUDIFF "0.2500000000"
*MEAS_COND_COUNTER_TAUINT "0.7500000000"
*MEAS_COND_IRRADIATION_MODE "OFF"
*MEAS_COND_IRRADIATION_WIDTH ""
*MEAS_COND_OPT_ATTR " "
*MEAS_COND_OPT_NAME ""
*MEAS_COND_UNSYMMETRIC_MODE "OFF"
*MEAS_COND_XG_CURRENT "15.0000000000"
*MEAS_COND_XG_VOLTAGE "40.0000000000"
*MEAS_COND_XG_WAVE_TYPE "Ka"
*MEAS_DATA_COUNT "3001.0000000000"
*MEAS_SCAN_AXIS_X "Theta/2-Theta"
*MEAS_SCAN_AXIS_X_INTERNAL "TwoThetaTheta"
*MEAS_SCAN_END_TIME "06/10/25 22:39:00"
*MEAS_SCAN_MODE "STEP"
*MEAS_SCAN_MONITOR "0"
*MEAS_SCAN_RESOLUTION_X "0.0025"
*MEAS_SCAN_SPEED "2.00"
*MEAS_SCAN_SPEED_UNIT "sec."
*MEAS_SCAN_SPEED_USER "2.00"
*MEAS_SCAN_START "5.0000000000"
*MEAS_SCAN_START_TIME "06/10/25 20:53:44"
*MEAS_SCAN_STEP "0.0200000000"
*MEAS_SCAN_STOP "65.0000000000"
*MEAS_SCAN_UNIT_X "deg"
*MEAS_SCAN_UNIT_Y "counts"
*SLIT_SYSTEM "0"
*RAS_HEADER_END
*RAS_INT_START
5.0000 1027.0000 1.0000
5.0200 1004.0000 1.0000
5.0400 1008.0000 1.0000
5.0600 974.0000 1.0000
5.0800 981.0000 1.0000
5.1000 1029.0000 1.0000
5.1200 1072.0000 1.0000
5.1400 934.0000 1.0000
5.1600 988.0000 1.0000
5.1800 1009.0000 1.0000
5.2000 988.0000 1.0000
5.2200 1052.0000 1.0000
5.2400 1012.0000 1.0000
5.2600 1008.0000 1.0000
5.2800 1004.0000 1.0000
5.3000 983.0000 1.0000
5.3200 1018.0000 1.0000
5.3400 923.0000 1.0000
5.3600 920.0000 1.0000
5.3800 920.0000 1.0000
5.4000 906.0000 1.0000
5.4200 892.0000 1.0000
5.4400 834.0000 1.0000
5.4600 869.0000 1.0000
5.4800 961.0000 1.0000
5.5000 961.0000 1.0000
5.5200 836.0000 1.0000
5.5400 863.0000 1.0000
5.5600 967.0000 1.0000
5.5800 920.0000 1.0000
5.6000 864.0000 1.0000
5.6200 884.0000 1.0000
5.6400 983.0000 1.0000
5.6600 884.0000 1.0000
5.6800 802.0000 1.0000
5.7000 760.0000 1.0000
5.7200 767.0000 1.0000
5.7400 820.0000 1.0000
5.7600 892.0000 1.0000
5.7800 905.0000 1.0000
5.8000 918.0000 1.0000
5.8200 879.0000 1.0000
5.8400 927.0000 1.0000
5.8600 832.0000 1.0000
5.8800 845.0000 1.0000
5.9000 896.0000 1.0000
5.9200 883.0000 1.0000
5.9400 811.0000 1.0000
5.9600 824.0000 1.0000
5.9800 803.0000 1.0000
6.0000 791.0000 1.0000
6.0200 869.0000 1.0000
6.0400 835.0000 1.0000
6.0600 854.0000 1.0000
6.0800 854.0000 1.0000
6.1000 885.0000 1.0000
6.1200 827.0000 1.0000
6.1400 864.0000 1.0000
6.1600 891.0000 1.0000
6.1800 852.0000 1.0000
6.2000 777.0000 1.0000
6.2200 745.0000 1.0000
6.2400 769.0000 1.0000
6.2600 740.0000 1.0000
6.2800 690.0000 1.0000
6.3000 729.0000 1.0000
6.3200 686.0000 1.0000
6.3400 657.0000 1.0000
6.3600 687.0000 1.0000
6.3800 673.0000 1.0000
6.4000 732.0000 1.0000
6.4200 663.0000 1.0000
6.4400 702.0000 1.0000
6.4600 700.0000 1.0000
6.4800 706.0000 1.0000
6.5000 701.0000 1.0000
6.5200 673.0000 1.0000
6.5400 648.0000 1.0000
6.5600 621.0000 1.0000
6.5800 602.0000 1.0000
6.6000 651.0000 1.0000
6.6200 643.0000 1.0000
6.6400 596.0000 1.0000
6.6600 609.0000 1.0000
6.6800 643.0000 1.0000
6.7000 627.0000 1.0000
6.7200 634.0000 1.0000
6.7400 604.0000 1.0000
6.7600 558.0000 1.0000
6.7800 581.0000 1.0000
6.8000 613.0000 1.0000
6.8200 611.0000 1.0000
6.8400 655.0000 1.0000
6.8600 648.0000 1.0000
6.8800 627.0000 1.0000
6.9000 647.0000 1.0000
6.9200 624.0000 1.0000
6.9400 597.0000 1.0000
6.9600 615.0000 1.0000
6.9800 586.0000 1.0000
7.0000 534.0000 1.0000
7.0200 553.0000 1.0000
7.0400 555.0000 1.0000
7.0600 527.0000 1.0000
7.0800 578.0000 1.0000
7.1000 581.0000 1.0000
7.1200 546.0000 1.0000
7.1400 528.0000 1.0000
7.1600 543.0000 1.0000
7.1800 541.0000 1.0000
7.2000 524.0000 1.0000
7.2200 561.0000 1.0000
7.2400 630.0000 1.0000
7.2600 636.0000 1.0000
7.2800 562.0000 1.0000
7.3000 583.0000 1.0000
7.3200 569.0000 1.0000
7.3400 517.0000 1.0000
7.3600 541.0000 1.0000
7.3800 552.0000 1.0000
7.4000 512.0000 1.0000
7.4200 504.0000 1.0000
7.4400 542.0000 1.0000
7.4600 523.0000 1.0000
7.4800 522.0000 1.0000
7.5000 521.0000 1.0000
7.5200 507.0000 1.0000
7.5400 515.0000 1.0000
7.5600 544.0000 1.0000
7.5800 562.0000 1.0000
7.6000 556.0000 1.0000
7.6200 574.0000 1.0000
7.6400 587.0000 1.0000
7.6600 563.0000 1.0000
7.6800 521.0000 1.0000
7.7000 553.0000 1.0000
7.7200 544.0000 1.0000
7.7400 517.0000 1.0000
7.7600 520.0000 1.0000
7.7800 499.0000 1.0000
7.8000 520.0000 1.0000
7.8200 535.0000 1.0000
7.8400 541.0000 1.0000
7.8600 549.0000 1.0000
7.8800 536.0000 1.0000
7.9000 537.0000 1.0000
7.9200 547.0000 1.0000
7.9400 541.0000 1.0000
7.9600 547.0000 1.0000
7.9800 564.0000 1.0000
8.0000 577.0000 1.0000
8.0200 550.0000 1.0000
8.0400 574.0000 1.0000
8.0600 563.0000 1.0000
8.0800 599.0000 1.0000
8.1000 593.0000 1.0000
8.1200 564.0000 1.0000
8.1400 588.0000 1.0000
8.1600 572.0000 1.0000
8.1800 610.0000 1.0000
8.2000 631.0000 1.0000
8.2200 648.0000 1.0000
8.2400 626.0000 1.0000
8.2600 681.0000 1.0000
8.2800 724.0000 1.0000
8.3000 716.0000 1.0000
8.3200 739.0000 1.0000
8.3400 733.0000 1.0000
8.3600 729.0000 1.0000
8.3800 812.0000 1.0000
8.4000 821.0000 1.0000
8.4200 761.0000 1.0000
8.4400 828.0000 1.0000
8.4600 928.0000 1.0000
8.4800 952.0000 1.0000
8.5000 939.0000 1.0000
8.5200 1004.0000 1.0000
8.5400 1107.0000 1.0000
8.5600 1080.0000 1.0000
8.5800 1104.0000 1.0000
8.6000 1143.0000 1.0000
8.6200 1225.0000 1.0000
8.6400 1207.0000 1.0000
8.6600 1269.0000 1.0000
8.6800 1175.0000 1.0000
8.7000 1037.0000 1.0000
8.7200 973.0000 1.0000
8.7400 868.0000 1.0000
8.7600 759.0000 1.0000
8.7800 668.0000 1.0000
8.8000 597.0000 1.0000
8.8200 572.0000 1.0000
8.8400 531.0000 1.0000
8.8600 477.0000 1.0000
8.8800 452.0000 1.0000
8.9000 447.0000 1.0000
8.9200 417.0000 1.0000
8.9400 393.0000 1.0000
8.9600 369.0000 1.0000
8.9800 366.0000 1.0000
9.0000 386.0000 1.0000
9.0200 423.0000 1.0000
9.0400 401.0000 1.0000
9.0600 435.0000 1.0000
9.0800 346.0000 1.0000
9.1000 366.0000 1.0000
9.1200 324.0000 1.0000
9.1400 372.0000 1.0000
9.1600 371.0000 1.0000
9.1800 358.0000 1.0000
9.2000 370.0000 1.0000
9.2200 365.0000 1.0000
9.2400 342.0000 1.0000
9.2600 293.0000 1.0000
9.2800 328.0000 1.0000
9.3000 334.0000 1.0000
9.3200 329.0000 1.0000
9.3400 314.0000 1.0000
9.3600 327.0000 1.0000
9.3800 365.0000 1.0000
9.4000 350.0000 1.0000
9.4200 365.0000 1.0000
9.4400 327.0000 1.0000
9.4600 275.0000 1.0000
9.4800 351.0000 1.0000
9.5000 334.0000 1.0000
9.5200 344.0000 1.0000
9.5400 407.0000 1.0000
9.5600 399.0000 1.0000
9.5800 404.0000 1.0000
9.6000 399.0000 1.0000
9.6200 342.0000 1.0000
9.6400 355.0000 1.0000
9.6600 323.0000 1.0000
9.6800 270.0000 1.0000
9.7000 306.0000 1.0000
9.7200 290.0000 1.0000
9.7400 292.0000 1.0000
9.7600 297.0000 1.0000
9.7800 281.0000 1.0000
9.8000 263.0000 1.0000
9.8200 274.0000 1.0000
9.8400 308.0000 1.0000
9.8600 301.0000 1.0000
9.8800 333.0000 1.0000
9.9000 310.0000 1.0000
9.9200 318.0000 1.0000
9.9400 333.0000 1.0000
9.9600 321.0000 1.0000
9.9800 309.0000 1.0000
10.0000 353.0000 1.0000
10.0200 330.0000 1.0000
10.0400 385.0000 1.0000
10.0600 411.0000 1.0000
10.0800 386.0000 1.0000
10.1000 457.0000 1.0000
10.1200 454.0000 1.0000
10.1400 490.0000 1.0000
10.1600 580.0000 1.0000
10.1800 610.0000 1.0000
10.2000 596.0000 1.0000
10.2200 730.0000 1.0000
10.2400 774.0000 1.0000
10.2600 916.0000 1.0000
10.2800 966.0000 1.0000
10.3000 985.0000 1.0000
10.3200 947.0000 1.0000
10.3400 926.0000 1.0000
10.3600 853.0000 1.0000
10.3800 724.0000 1.0000
10.4000 658.0000 1.0000
10.4200 631.0000 1.0000
10.4400 474.0000 1.0000
10.4600 393.0000 1.0000
10.4800 309.0000 1.0000
10.5000 294.0000 1.0000
10.5200 261.0000 1.0000
10.5400 229.0000 1.0000
10.5600 290.0000 1.0000
10.5800 279.0000 1.0000
10.6000 256.0000 1.0000
10.6200 268.0000 1.0000
10.6400 237.0000 1.0000
10.6600 272.0000 1.0000
10.6800 270.0000 1.0000
10.7000 260.0000 1.0000
10.7200 251.0000 1.0000
10.7400 233.0000 1.0000
10.7600 242.0000 1.0000
10.7800 269.0000 1.0000
10.8000 253.0000 1.0000
10.8200 216.0000 1.0000
10.8400 243.0000 1.0000
10.8600 196.0000 1.0000
10.8800 204.0000 1.0000
10.9000 250.0000 1.0000
10.9200 260.0000 1.0000
10.9400 219.0000 1.0000
10.9600 246.0000 1.0000
10.9800 261.0000 1.0000
11.0000 228.0000 1.0000
11.0200 231.0000 1.0000
11.0400 222.0000 1.0000
11.0600 238.0000 1.0000
11.0800 240.0000 1.0000
11.1000 205.0000 1.0000
11.1200 222.0000 1.0000
11.1400 228.0000 1.0000
11.1600 203.0000 1.0000
11.1800 241.0000 1.0000
11.2000 220.0000 1.0000
11.2200 172.0000 1.0000
11.2400 216.0000 1.0000
11.2600 199.0000 1.0000
11.2800 211.0000 1.0000
11.3000 194.0000 1.0000
11.3200 180.0000 1.0000
11.3400 214.0000 1.0000
11.3600 179.0000 1.0000
11.3800 171.0000 1.0000
11.4000 194.0000 1.0000
11.4200 190.0000 1.0000
11.4400 203.0000 1.0000
11.4600 189.0000 1.0000
11.4800 158.0000 1.0000
11.5000 177.0000 1.0000
11.5200 172.0000 1.0000
11.5400 157.0000 1.0000
11.5600 176.0000 1.0000
11.5800 179.0000 1.0000
11.6000 176.0000 1.0000
11.6200 172.0000 1.0000
11.6400 182.0000 1.0000
11.6600 192.0000 1.0000
11.6800 178.0000 1.0000
11.7000 177.0000 1.0000
11.7200 196.0000 1.0000
11.7400 164.0000 1.0000
11.7600 161.0000 1.0000
11.7800 198.0000 1.0000
11.8000 158.0000 1.0000
11.8200 184.0000 1.0000
11.8400 190.0000 1.0000
11.8600 167.0000 1.0000
11.8800 156.0000 1.0000
11.9000 171.0000 1.0000
11.9200 202.0000 1.0000
11.9400 200.0000 1.0000
11.9600 211.0000 1.0000
11.9800 197.0000 1.0000
12.0000 193.0000 1.0000
12.0200 191.0000 1.0000
12.0400 190.0000 1.0000
12.0600 206.0000 1.0000
12.0800 204.0000 1.0000
12.1000 179.0000 1.0000
12.1200 187.0000 1.0000
12.1400 219.0000 1.0000
12.1600 214.0000 1.0000
12.1800 218.0000 1.0000
12.2000 225.0000 1.0000
12.2200 230.0000 1.0000
12.2400 252.0000 1.0000
12.2600 267.0000 1.0000
12.2800 270.0000 1.0000
12.3000 292.0000 1.0000
12.3200 275.0000 1.0000
12.3400 315.0000 1.0000
12.3600 306.0000 1.0000
12.3800 301.0000 1.0000
12.4000 290.0000 1.0000
12.4200 295.0000 1.0000
12.4400 283.0000 1.0000
12.4600 245.0000 1.0000
12.4800 216.0000 1.0000
12.5000 189.0000 1.0000
12.5200 172.0000 1.0000
12.5400 178.0000 1.0000
12.5600 167.0000 1.0000
12.5800 165.0000 1.0000
12.6000 153.0000 1.0000
12.6200 156.0000 1.0000
12.6400 173.0000 1.0000
12.6600 180.0000 1.0000
12.6800 183.0000 1.0000
12.7000 155.0000 1.0000
12.7200 154.0000 1.0000
12.7400 192.0000 1.0000
12.7600 189.0000 1.0000
12.7800 148.0000 1.0000
12.8000 164.0000 1.0000
12.8200 166.0000 1.0000
12.8400 157.0000 1.0000
12.8600 134.0000 1.0000
12.8800 154.0000 1.0000
12.9000 152.0000 1.0000
12.9200 151.0000 1.0000
12.9400 162.0000 1.0000
12.9600 160.0000 1.0000
12.9800 138.0000 1.0000
13.0000 144.0000 1.0000
13.0200 154.0000 1.0000
13.0400 159.0000 1.0000
13.0600 140.0000 1.0000
13.0800 149.0000 1.0000
13.1000 147.0000 1.0000
13.1200 148.0000 1.0000
13.1400 140.0000 1.0000
13.1600 139.0000 1.0000
13.1800 138.0000 1.0000
13.2000 128.0000 1.0000
13.2200 144.0000 1.0000
13.2400 177.0000 1.0000
13.2600 200.0000 1.0000
13.2800 156.0000 1.0000
13.3000 183.0000 1.0000
13.3200 166.0000 1.0000
13.3400 170.0000 1.0000
13.3600 186.0000 1.0000
13.3800 182.0000 1.0000
13.4000 182.0000 1.0000
13.4200 204.0000 1.0000
13.4400 206.0000 1.0000
13.4600 200.0000 1.0000
13.4800 214.0000 1.0000
13.5000 243.0000 1.0000
13.5200 255.0000 1.0000
13.5400 263.0000 1.0000
13.5600 280.0000 1.0000
13.5800 288.0000 1.0000
13.6000 312.0000 1.0000
13.6200 331.0000 1.0000
13.6400 324.0000 1.0000
13.6600 377.0000 1.0000
13.6800 399.0000 1.0000
13.7000 429.0000 1.0000
13.7200 436.0000 1.0000
13.7400 458.0000 1.0000
13.7600 428.0000 1.0000
13.7800 409.0000 1.0000
13.8000 374.0000 1.0000
13.8200 321.0000 1.0000
13.8400 292.0000 1.0000
13.8600 267.0000 1.0000
13.8800 227.0000 1.0000
13.9000 198.0000 1.0000
13.9200 171.0000 1.0000
13.9400 164.0000 1.0000
13.9600 160.0000 1.0000
13.9800 157.0000 1.0000
14.0000 163.0000 1.0000
14.0200 154.0000 1.0000
14.0400 129.0000 1.0000
14.0600 126.0000 1.0000
14.0800 124.0000 1.0000
14.1000 135.0000 1.0000
14.1200 135.0000 1.0000
14.1400 132.0000 1.0000
14.1600 128.0000 1.0000
14.1800 131.0000 1.0000
14.2000 133.0000 1.0000
14.2200 133.0000 1.0000
14.2400 131.0000 1.0000
14.2600 129.0000 1.0000
14.2800 130.0000 1.0000
14.3000 135.0000 1.0000
14.3200 131.0000 1.0000
14.3400 124.0000 1.0000
14.3600 129.0000 1.0000
14.3800 139.0000 1.0000
14.4000 135.0000 1.0000
14.4200 117.0000 1.0000
14.4400 126.0000 1.0000
14.4600 127.0000 1.0000
14.4800 132.0000 1.0000
14.5000 133.0000 1.0000
14.5200 129.0000 1.0000
14.5400 127.0000 1.0000
14.5600 131.0000 1.0000
14.5800 144.0000 1.0000
14.6000 135.0000 1.0000
14.6200 127.0000 1.0000
14.6400 139.0000 1.0000
14.6600 146.0000 1.0000
14.6800 144.0000 1.0000
14.7000 146.0000 1.0000
14.7200 146.0000 1.0000
14.7400 141.0000 1.0000
14.7600 148.0000 1.0000
14.7800 149.0000 1.0000
14.8000 149.0000 1.0000
14.8200 168.0000 1.0000
14.8400 173.0000 1.0000
14.8600 183.0000 1.0000
14.8800 194.0000 1.0000
14.9000 185.0000 1.0000
14.9200 191.0000 1.0000
14.9400 198.0000 1.0000
14.9600 190.0000 1.0000
14.9800 185.0000 1.0000
15.0000 165.0000 1.0000
15.0200 165.0000 1.0000
15.0400 171.0000 1.0000
15.0600 155.0000 1.0000
15.0800 150.0000 1.0000
15.1000 145.0000 1.0000
15.1200 151.0000 1.0000
15.1400 142.0000 1.0000
15.1600 124.0000 1.0000
15.1800 128.0000 1.0000
15.2000 116.0000 1.0000
15.2200 106.0000 1.0000
15.2400 123.0000 1.0000
15.2600 131.0000 1.0000
15.2800 124.0000 1.0000
15.3000 124.0000 1.0000
15.3200 109.0000 1.0000
15.3400 120.0000 1.0000
15.3600 148.0000 1.0000
15.3800 139.0000 1.0000
15.4000 133.0000 1.0000
15.4200 140.0000 1.0000
15.4400 149.0000 1.0000
15.4600 147.0000 1.0000
15.4800 134.0000 1.0000
15.5000 140.0000 1.0000
15.5200 152.0000 1.0000
15.5400 129.0000 1.0000
15.5600 138.0000 1.0000
15.5800 166.0000 1.0000
15.6000 156.0000 1.0000
15.6200 147.0000 1.0000
15.6400 159.0000 1.0000
15.6600 164.0000 1.0000
15.6800 172.0000 1.0000
15.7000 171.0000 1.0000
15.7200 154.0000 1.0000
15.7400 143.0000 1.0000
15.7600 151.0000 1.0000
15.7800 139.0000 1.0000
15.8000 132.0000 1.0000
15.8200 135.0000 1.0000
15.8400 136.0000 1.0000
15.8600 131.0000 1.0000
15.8800 137.0000 1.0000
15.9000 130.0000 1.0000
15.9200 119.0000 1.0000
15.9400 122.0000 1.0000
15.9600 124.0000 1.0000
15.9800 121.0000 1.0000
16.0000 115.0000 1.0000
16.0200 109.0000 1.0000
16.0400 112.0000 1.0000
16.0600 115.0000 1.0000
16.0800 111.0000 1.0000
16.1000 123.0000 1.0000
16.1200 129.0000 1.0000
16.1400 125.0000 1.0000
16.1600 112.0000 1.0000
16.1800 110.0000 1.0000
16.2000 116.0000 1.0000
16.2200 112.0000 1.0000
16.2400 103.0000 1.0000
16.2600 107.0000 1.0000
16.2800 115.0000 1.0000
16.3000 114.0000 1.0000
16.3200 114.0000 1.0000
16.3400 122.0000 1.0000
16.3600 119.0000 1.0000
16.3800 110.0000 1.0000
16.4000 113.0000 1.0000
16.4200 118.0000 1.0000
16.4400 130.0000 1.0000
16.4600 123.0000 1.0000
16.4800 124.0000 1.0000
16.5000 118.0000 1.0000
16.5200 118.0000 1.0000
16.5400 120.0000 1.0000
16.5600 121.0000 1.0000
16.5800 115.0000 1.0000
16.6000 112.0000 1.0000
16.6200 119.0000 1.0000
16.6400 115.0000 1.0000
16.6600 121.0000 1.0000
16.6800 101.0000 1.0000
16.7000 103.0000 1.0000
16.7200 110.0000 1.0000
16.7400 111.0000 1.0000
16.7600 103.0000 1.0000
16.7800 111.0000 1.0000
16.8000 120.0000 1.0000
16.8200 114.0000 1.0000
16.8400 109.0000 1.0000
16.8600 116.0000 1.0000
16.8800 143.0000 1.0000
16.9000 141.0000 1.0000
16.9200 118.0000 1.0000
16.9400 115.0000 1.0000
16.9600 123.0000 1.0000
16.9800 117.0000 1.0000
17.0000 117.0000 1.0000
17.0200 117.0000 1.0000
17.0400 106.0000 1.0000
17.0600 100.0000 1.0000
17.0800 106.0000 1.0000
17.1000 125.0000 1.0000
17.1200 131.0000 1.0000
17.1400 130.0000 1.0000
17.1600 130.0000 1.0000
17.1800 134.0000 1.0000
17.2000 127.0000 1.0000
17.2200 109.0000 1.0000
17.2400 107.0000 1.0000
17.2600 123.0000 1.0000
17.2800 131.0000 1.0000
17.3000 142.0000 1.0000
17.3200 135.0000 1.0000
17.3400 134.0000 1.0000
17.3600 139.0000 1.0000
17.3800 123.0000 1.0000
17.4000 137.0000 1.0000
17.4200 146.0000 1.0000
17.4400 141.0000 1.0000
17.4600 133.0000 1.0000
17.4800 123.0000 1.0000
17.5000 134.0000 1.0000
17.5200 158.0000 1.0000
17.5400 146.0000 1.0000
17.5600 140.0000 1.0000
17.5800 129.0000 1.0000
17.6000 134.0000 1.0000
17.6200 145.0000 1.0000
17.6400 138.0000 1.0000
17.6600 149.0000 1.0000
17.6800 134.0000 1.0000
17.7000 128.0000 1.0000
17.7200 140.0000 1.0000
17.7400 118.0000 1.0000
17.7600 125.0000 1.0000
17.7800 133.0000 1.0000
17.8000 136.0000 1.0000
17.8200 132.0000 1.0000
17.8400 149.0000 1.0000
17.8600 146.0000 1.0000
17.8800 149.0000 1.0000
17.9000 145.0000 1.0000
17.9200 147.0000 1.0000
17.9400 140.0000 1.0000
17.9600 135.0000 1.0000
17.9800 133.0000 1.0000
18.0000 141.0000 1.0000
18.0200 132.0000 1.0000
18.0400 117.0000 1.0000
18.0600 128.0000 1.0000
18.0800 127.0000 1.0000
18.1000 128.0000 1.0000
18.1200 118.0000 1.0000
18.1400 123.0000 1.0000
18.1600 145.0000 1.0000
18.1800 132.0000 1.0000
18.2000 124.0000 1.0000
18.2200 120.0000 1.0000
18.2400 124.0000 1.0000
18.2600 114.0000 1.0000
18.2800 130.0000 1.0000
18.3000 131.0000 1.0000
18.3200 135.0000 1.0000
18.3400 138.0000 1.0000
18.3600 127.0000 1.0000
18.3800 143.0000 1.0000
18.4000 121.0000 1.0000
18.4200 139.0000 1.0000
18.4400 157.0000 1.0000
18.4600 143.0000 1.0000
18.4800 128.0000 1.0000
18.5000 145.0000 1.0000
18.5200 150.0000 1.0000
18.5400 147.0000 1.0000
18.5600 140.0000 1.0000
18.5800 132.0000 1.0000
18.6000 154.0000 1.0000
18.6200 137.0000 1.0000
18.6400 139.0000 1.0000
18.6600 134.0000 1.0000
18.6800 152.0000 1.0000
18.7000 158.0000 1.0000
18.7200 145.0000 1.0000
18.7400 155.0000 1.0000
18.7600 153.0000 1.0000
18.7800 163.0000 1.0000
18.8000 171.0000 1.0000
18.8200 158.0000 1.0000
18.8400 155.0000 1.0000
18.8600 146.0000 1.0000
18.8800 164.0000 1.0000
18.9000 170.0000 1.0000
18.9200 164.0000 1.0000
18.9400 151.0000 1.0000
18.9600 143.0000 1.0000
18.9800 150.0000 1.0000
19.0000 160.0000 1.0000
19.0200 136.0000 1.0000
19.0400 144.0000 1.0000
19.0600 169.0000 1.0000
19.0800 156.0000 1.0000
19.1000 163.0000 1.0000
19.1200 156.0000 1.0000
19.1400 173.0000 1.0000
19.1600 176.0000 1.0000
19.1800 177.0000 1.0000
19.2000 155.0000 1.0000
19.2200 175.0000 1.0000
19.2400 179.0000 1.0000
19.2600 165.0000 1.0000
19.2800 166.0000 1.0000
19.3000 176.0000 1.0000
19.3200 163.0000 1.0000
19.3400 186.0000 1.0000
19.3600 200.0000 1.0000
19.3800 193.0000 1.0000
19.4000 178.0000 1.0000
19.4200 197.0000 1.0000
19.4400 204.0000 1.0000
19.4600 197.0000 1.0000
19.4800 192.0000 1.0000
19.5000 188.0000 1.0000
19.5200 169.0000 1.0000
19.5400 170.0000 1.0000
19.5600 217.0000 1.0000
19.5800 216.0000 1.0000
19.6000 188.0000 1.0000
19.6200 200.0000 1.0000
19.6400 188.0000 1.0000
19.6600 196.0000 1.0000
19.6800 204.0000 1.0000
19.7000 185.0000 1.0000
19.7200 211.0000 1.0000
19.7400 182.0000 1.0000
19.7600 214.0000 1.0000
19.7800 202.0000 1.0000
19.8000 173.0000 1.0000
19.8200 179.0000 1.0000
19.8400 194.0000 1.0000
19.8600 206.0000 1.0000
19.8800 185.0000 1.0000
19.9000 193.0000 1.0000
19.9200 193.0000 1.0000
19.9400 179.0000 1.0000
19.9600 158.0000 1.0000
19.9800 196.0000 1.0000
20.0000 180.0000 1.0000
20.0200 174.0000 1.0000
20.0400 129.0000 1.0000
20.0600 178.0000 1.0000
20.0800 172.0000 1.0000
20.1000 159.0000 1.0000
20.1200 164.0000 1.0000
20.1400 166.0000 1.0000
20.1600 173.0000 1.0000
20.1800 167.0000 1.0000
20.2000 177.0000 1.0000
20.2200 174.0000 1.0000
20.2400 169.0000 1.0000
20.2600 168.0000 1.0000
20.2800 205.0000 1.0000
20.3000 195.0000 1.0000
20.3200 205.0000 1.0000
20.3400 182.0000 1.0000
20.3600 211.0000 1.0000
20.3800 208.0000 1.0000
20.4000 223.0000 1.0000
20.4200 234.0000 1.0000
20.4400 256.0000 1.0000
20.4600 269.0000 1.0000
20.4800 311.0000 1.0000
20.5000 315.0000 1.0000
20.5200 344.0000 1.0000
20.5400 381.0000 1.0000
20.5600 432.0000 1.0000
20.5800 504.0000 1.0000
20.6000 590.0000 1.0000
20.6200 696.0000 1.0000
20.6400 895.0000 1.0000
20.6600 1032.0000 1.0000
20.6800 1227.0000 1.0000
20.7000 1493.0000 1.0000
20.7200 1642.0000 1.0000
20.7400 1778.0000 1.0000
20.7600 1797.0000 1.0000
20.7800 1806.0000 1.0000
20.8000 1723.0000 1.0000
20.8200 1414.0000 1.0000
20.8400 1181.0000 1.0000
20.8600 878.0000 1.0000
20.8800 707.0000 1.0000
20.9000 533.0000 1.0000
20.9200 438.0000 1.0000
20.9400 356.0000 1.0000
20.9600 339.0000 1.0000
20.9800 298.0000 1.0000
21.0000 283.0000 1.0000
21.0200 257.0000 1.0000
21.0400 237.0000 1.0000
21.0600 203.0000 1.0000
21.0800 214.0000 1.0000
21.1000 201.0000 1.0000
21.1200 187.0000 1.0000
21.1400 177.0000 1.0000
21.1600 180.0000 1.0000
21.1800 186.0000 1.0000
21.2000 184.0000 1.0000
21.2200 170.0000 1.0000
21.2400 184.0000 1.0000
21.2600 184.0000 1.0000
21.2800 176.0000 1.0000
21.3000 179.0000 1.0000
21.3200 157.0000 1.0000
21.3400 154.0000 1.0000
21.3600 182.0000 1.0000
21.3800 168.0000 1.0000
21.4000 164.0000 1.0000
21.4200 172.0000 1.0000
21.4400 202.0000 1.0000
21.4600 214.0000 1.0000
21.4800 194.0000 1.0000
21.5000 213.0000 1.0000
21.5200 183.0000 1.0000
21.5400 209.0000 1.0000
21.5600 224.0000 1.0000
21.5800 225.0000 1.0000
21.6000 245.0000 1.0000
21.6200 250.0000 1.0000
21.6400 259.0000 1.0000
21.6600 305.0000 1.0000
21.6800 333.0000 1.0000
21.7000 396.0000 1.0000
21.7200 411.0000 1.0000
21.7400 452.0000 1.0000
21.7600 506.0000 1.0000
21.7800 661.0000 1.0000
21.8000 790.0000 1.0000
21.8200 875.0000 1.0000
21.8400 990.0000 1.0000
21.8600 1146.0000 1.0000
21.8800 1182.0000 1.0000
21.9000 1254.0000 1.0000
21.9200 1208.0000 1.0000
21.9400 1094.0000 1.0000
21.9600 950.0000 1.0000
21.9800 782.0000 1.0000
22.0000 631.0000 1.0000
22.0200 533.0000 1.0000
22.0400 396.0000 1.0000
22.0600 339.0000 1.0000
22.0800 269.0000 1.0000
22.1000 261.0000 1.0000
22.1200 234.0000 1.0000
22.1400 213.0000 1.0000
22.1600 234.0000 1.0000
22.1800 211.0000 1.0000
22.2000 206.0000 1.0000
22.2200 246.0000 1.0000
22.2400 217.0000 1.0000
22.2600 229.0000 1.0000
22.2800 203.0000 1.0000
22.3000 214.0000 1.0000
22.3200 199.0000 1.0000
22.3400 170.0000 1.0000
22.3600 184.0000 1.0000
22.3800 194.0000 1.0000
22.4000 191.0000 1.0000
22.4200 182.0000 1.0000
22.4400 190.0000 1.0000
22.4600 199.0000 1.0000
22.4800 185.0000 1.0000
22.5000 205.0000 1.0000
22.5200 207.0000 1.0000
22.5400 202.0000 1.0000
22.5600 193.0000 1.0000
22.5800 189.0000 1.0000
22.6000 177.0000 1.0000
22.6200 195.0000 1.0000
22.6400 207.0000 1.0000
22.6600 227.0000 1.0000
22.6800 227.0000 1.0000
22.7000 226.0000 1.0000
22.7200 252.0000 1.0000
22.7400 274.0000 1.0000
22.7600 316.0000 1.0000
22.7800 298.0000 1.0000
22.8000 371.0000 1.0000
22.8200 398.0000 1.0000
22.8400 411.0000 1.0000
22.8600 388.0000 1.0000
22.8800 405.0000 1.0000
22.9000 375.0000 1.0000
22.9200 320.0000 1.0000
22.9400 322.0000 1.0000
22.9600 265.0000 1.0000
22.9800 261.0000 1.0000
23.0000 223.0000 1.0000
23.0200 247.0000 1.0000
23.0400 247.0000 1.0000
23.0600 219.0000 1.0000
23.0800 228.0000 1.0000
23.1000 226.0000 1.0000
23.1200 249.0000 1.0000
23.1400 230.0000 1.0000
23.1600 243.0000 1.0000
23.1800 264.0000 1.0000
23.2000 238.0000 1.0000
23.2200 258.0000 1.0000
23.2400 255.0000 1.0000
23.2600 258.0000 1.0000
23.2800 308.0000 1.0000
23.3000 320.0000 1.0000
23.3200 349.0000 1.0000
23.3400 361.0000 1.0000
23.3600 412.0000 1.0000
23.3800 454.0000 1.0000
23.4000 482.0000 1.0000
23.4200 557.0000 1.0000
23.4400 615.0000 1.0000
23.4600 698.0000 1.0000
23.4800 763.0000 1.0000
23.5000 800.0000 1.0000
23.5200 826.0000 1.0000
23.5400 746.0000 1.0000
23.5600 682.0000 1.0000
23.5800 642.0000 1.0000
23.6000 526.0000 1.0000
23.6200 477.0000 1.0000
23.6400 443.0000 1.0000
23.6600 377.0000 1.0000
23.6800 388.0000 1.0000
23.7000 364.0000 1.0000
23.7200 375.0000 1.0000
23.7400 445.0000 1.0000
23.7600 486.0000 1.0000
23.7800 494.0000 1.0000
23.8000 546.0000 1.0000
23.8200 577.0000 1.0000
23.8400 617.0000 1.0000
23.8600 679.0000 1.0000
23.8800 675.0000 1.0000
23.9000 689.0000 1.0000
23.9200 667.0000 1.0000
23.9400 657.0000 1.0000
23.9600 638.0000 1.0000
23.9800 579.0000 1.0000
24.0000 581.0000 1.0000
24.0200 559.0000 1.0000
24.0400 592.0000 1.0000
24.0600 613.0000 1.0000
24.0800 638.0000 1.0000
24.1000 672.0000 1.0000
24.1200 702.0000 1.0000
24.1400 736.0000 1.0000
24.1600 763.0000 1.0000
24.1800 771.0000 1.0000
24.2000 781.0000 1.0000
24.2200 762.0000 1.0000
24.2400 699.0000 1.0000
24.2600 642.0000 1.0000
24.2800 582.0000 1.0000
24.3000 525.0000 1.0000
24.3200 460.0000 1.0000
24.3400 375.0000 1.0000
24.3600 337.0000 1.0000
24.3800 308.0000 1.0000
24.4000 280.0000 1.0000
24.4200 257.0000 1.0000
24.4400 235.0000 1.0000
24.4600 227.0000 1.0000
24.4800 226.0000 1.0000
24.5000 200.0000 1.0000
24.5200 203.0000 1.0000
24.5400 224.0000 1.0000
24.5600 208.0000 1.0000
24.5800 176.0000 1.0000
24.6000 182.0000 1.0000
24.6200 193.0000 1.0000
24.6400 181.0000 1.0000
24.6600 184.0000 1.0000
24.6800 204.0000 1.0000
24.7000 201.0000 1.0000
24.7200 189.0000 1.0000
24.7400 203.0000 1.0000
24.7600 185.0000 1.0000
24.7800 182.0000 1.0000
24.8000 190.0000 1.0000
24.8200 180.0000 1.0000
24.8400 191.0000 1.0000
24.8600 183.0000 1.0000
24.8800 196.0000 1.0000
24.9000 194.0000 1.0000
24.9200 222.0000 1.0000
24.9400 233.0000 1.0000
24.9600 245.0000 1.0000
24.9800 237.0000 1.0000
25.0000 220.0000 1.0000
25.0200 261.0000 1.0000
25.0400 266.0000 1.0000
25.0600 264.0000 1.0000
25.0800 259.0000 1.0000
25.1000 277.0000 1.0000
25.1200 278.0000 1.0000
25.1400 266.0000 1.0000
25.1600 289.0000 1.0000
25.1800 301.0000 1.0000
25.2000 324.0000 1.0000
25.2200 349.0000 1.0000
25.2400 387.0000 1.0000
25.2600 429.0000 1.0000
25.2800 480.0000 1.0000
25.3000 559.0000 1.0000
25.3200 634.0000 1.0000
25.3400 756.0000 1.0000
25.3600 912.0000 1.0000
25.3800 1060.0000 1.0000
25.4000 1217.0000 1.0000
25.4200 1308.0000 1.0000
25.4400 1416.0000 1.0000
25.4600 1485.0000 1.0000
25.4800 1456.0000 1.0000
25.5000 1391.0000 1.0000
25.5200 1261.0000 1.0000
25.5400 1106.0000 1.0000
25.5600 953.0000 1.0000
25.5800 777.0000 1.0000
25.6000 637.0000 1.0000
25.6200 559.0000 1.0000
25.6400 435.0000 1.0000
25.6600 406.0000 1.0000
25.6800 366.0000 1.0000
25.7000 332.0000 1.0000
25.7200 328.0000 1.0000
25.7400 309.0000 1.0000
25.7600 322.0000 1.0000
25.7800 311.0000 1.0000
25.8000 297.0000 1.0000
25.8200 307.0000 1.0000
25.8400 303.0000 1.0000
25.8600 302.0000 1.0000
25.8800 308.0000 1.0000
25.9000 322.0000 1.0000
25.9200 303.0000 1.0000
25.9400 332.0000 1.0000
25.9600 376.0000 1.0000
25.9800 387.0000 1.0000
26.0000 413.0000 1.0000
26.0200 427.0000 1.0000
26.0400 432.0000 1.0000
26.0600 471.0000 1.0000
26.0800 503.0000 1.0000
26.1000 547.0000 1.0000
26.1200 551.0000 1.0000
26.1400 593.0000 1.0000
26.1600 661.0000 1.0000
26.1800 688.0000 1.0000
26.2000 747.0000 1.0000
26.2200 834.0000 1.0000
26.2400 966.0000 1.0000
26.2600 1094.0000 1.0000
26.2800 1220.0000 1.0000
26.3000 1415.0000 1.0000
26.3200 1681.0000 1.0000
26.3400 1942.0000 1.0000
26.3600 2279.0000 1.0000
26.3800 2714.0000 1.0000
26.4000 3239.0000 1.0000
26.4200 4022.0000 1.0000
26.4400 4969.0000 1.0000
26.4600 6002.0000 1.0000
26.4800 7020.0000 1.0000
26.5000 7926.0000 1.0000
26.5200 8490.0000 1.0000
26.5400 8555.0000 1.0000
26.5600 8207.0000 1.0000
26.5800 7297.0000 1.0000
26.6000 6069.0000 1.0000
26.6200 4836.0000 1.0000
26.6400 3588.0000 1.0000
26.6600 2566.0000 1.0000
26.6800 1822.0000 1.0000
26.7000 1287.0000 1.0000
26.7200 944.0000 1.0000
26.7400 825.0000 1.0000
26.7600 767.0000 1.0000
26.7800 708.0000 1.0000
26.8000 680.0000 1.0000
26.8200 646.0000 1.0000
26.8400 647.0000 1.0000
26.8600 633.0000 1.0000
26.8800 639.0000 1.0000
26.9000 671.0000 1.0000
26.9200 677.0000 1.0000
26.9400 684.0000 1.0000
26.9600 645.0000 1.0000
26.9800 579.0000 1.0000
27.0000 564.0000 1.0000
27.0200 530.0000 1.0000
27.0400 490.0000 1.0000
27.0600 436.0000 1.0000
27.0800 400.0000 1.0000
27.1000 418.0000 1.0000
27.1200 412.0000 1.0000
27.1400 387.0000 1.0000
27.1600 406.0000 1.0000
27.1800 438.0000 1.0000
27.2000 454.0000 1.0000
27.2200 452.0000 1.0000
27.2400 477.0000 1.0000
27.2600 523.0000 1.0000
27.2800 561.0000 1.0000
27.3000 626.0000 1.0000
27.3200 686.0000 1.0000
27.3400 770.0000 1.0000
27.3600 822.0000 1.0000
27.3800 818.0000 1.0000
27.4000 851.0000 1.0000
27.4200 872.0000 1.0000
27.4400 857.0000 1.0000
27.4600 847.0000 1.0000
27.4800 881.0000 1.0000
27.5000 921.0000 1.0000
27.5200 954.0000 1.0000
27.5400 1015.0000 1.0000
27.5600 1114.0000 1.0000
27.5800 1314.0000 1.0000
27.6000 1530.0000 1.0000
27.6200 1760.0000 1.0000
27.6400 1990.0000 1.0000
27.6600 2202.0000 1.0000
27.6800 2422.0000 1.0000
27.7000 2596.0000 1.0000
27.7200 2745.0000 1.0000
27.7400 2867.0000 1.0000
27.7600 2951.0000 1.0000
27.7800 3112.0000 1.0000
27.8000 3284.0000 1.0000
27.8200 3358.0000 1.0000
27.8400 3478.0000 1.0000
27.8600 3513.0000 1.0000
27.8800 3407.0000 1.0000
27.9000 3202.0000 1.0000
27.9200 2910.0000 1.0000
27.9400 2584.0000 1.0000
27.9600 2185.0000 1.0000
27.9800 1782.0000 1.0000
28.0000 1412.0000 1.0000
28.0200 1165.0000 1.0000
28.0400 1010.0000 1.0000
28.0600 930.0000 1.0000
28.0800 882.0000 1.0000
28.1000 835.0000 1.0000
28.1200 871.0000 1.0000
28.1400 898.0000 1.0000
28.1600 911.0000 1.0000
28.1800 902.0000 1.0000
28.2000 877.0000 1.0000
28.2200 858.0000 1.0000
28.2400 821.0000 1.0000
28.2600 748.0000 1.0000
28.2800 685.0000 1.0000
28.3000 644.0000 1.0000
28.3200 572.0000 1.0000
28.3400 541.0000 1.0000
28.3600 481.0000 1.0000
28.3800 421.0000 1.0000
28.4000 382.0000 1.0000
28.4200 332.0000 1.0000
28.4400 324.0000 1.0000
28.4600 288.0000 1.0000
28.4800 252.0000 1.0000
28.5000 250.0000 1.0000
28.5200 224.0000 1.0000
28.5400 205.0000 1.0000
28.5600 200.0000 1.0000
28.5800 194.0000 1.0000
28.6000 166.0000 1.0000
28.6200 165.0000 1.0000
28.6400 172.0000 1.0000
28.6600 181.0000 1.0000
28.6800 183.0000 1.0000
28.7000 172.0000 1.0000
28.7200 179.0000 1.0000
28.7400 177.0000 1.0000
28.7600 149.0000 1.0000
28.7800 141.0000 1.0000
28.8000 142.0000 1.0000
28.8200 144.0000 1.0000
28.8400 152.0000 1.0000
28.8600 154.0000 1.0000
28.8800 166.0000 1.0000
28.9000 171.0000 1.0000
28.9200 174.0000 1.0000
28.9400 179.0000 1.0000
28.9600 179.0000 1.0000
28.9800 181.0000 1.0000
29.0000 172.0000 1.0000
29.0200 176.0000 1.0000
29.0400 167.0000 1.0000
29.0600 167.0000 1.0000
29.0800 176.0000 1.0000
29.1000 178.0000 1.0000
29.1200 161.0000 1.0000
29.1400 148.0000 1.0000
29.1600 157.0000 1.0000
29.1800 169.0000 1.0000
29.2000 179.0000 1.0000
29.2200 175.0000 1.0000
29.2400 171.0000 1.0000
29.2600 166.0000 1.0000
29.2800 205.0000 1.0000
29.3000 228.0000 1.0000
29.3200 213.0000 1.0000
29.3400 227.0000 1.0000
29.3600 226.0000 1.0000
29.3800 218.0000 1.0000
29.4000 229.0000 1.0000
29.4200 242.0000 1.0000
29.4400 232.0000 1.0000
29.4600 216.0000 1.0000
29.4800 241.0000 1.0000
29.5000 238.0000 1.0000
29.5200 244.0000 1.0000
29.5400 267.0000 1.0000
29.5600 314.0000 1.0000
29.5800 334.0000 1.0000
29.6000 332.0000 1.0000
29.6200 351.0000 1.0000
29.6400 391.0000 1.0000
29.6600 404.0000 1.0000
29.6800 430.0000 1.0000
29.7000 487.0000 1.0000
29.7200 491.0000 1.0000
29.7400 469.0000 1.0000
29.7600 494.0000 1.0000
29.7800 465.0000 1.0000
29.8000 425.0000 1.0000
29.8200 403.0000 1.0000
29.8400 359.0000 1.0000
29.8600 347.0000 1.0000
29.8800 340.0000 1.0000
29.9000 342.0000 1.0000
29.9200 362.0000 1.0000
29.9400 343.0000 1.0000
29.9600 348.0000 1.0000
29.9800 332.0000 1.0000
30.0000 335.0000 1.0000
30.0200 329.0000 1.0000
30.0400 359.0000 1.0000
30.0600 391.0000 1.0000
30.0800 409.0000 1.0000
30.1000 390.0000 1.0000
30.1200 414.0000 1.0000
30.1400 449.0000 1.0000
30.1600 469.0000 1.0000
30.1800 507.0000 1.0000
30.2000 563.0000 1.0000
30.2200 628.0000 1.0000
30.2400 667.0000 1.0000
30.2600 715.0000 1.0000
30.2800 782.0000 1.0000
30.3000 833.0000 1.0000
30.3200 809.0000 1.0000
30.3400 789.0000 1.0000
30.3600 768.0000 1.0000
30.3800 705.0000 1.0000
30.4000 607.0000 1.0000
30.4200 556.0000 1.0000
30.4400 482.0000 1.0000
30.4600 404.0000 1.0000
30.4800 364.0000 1.0000
30.5000 314.0000 1.0000
30.5200 292.0000 1.0000
30.5400 255.0000 1.0000
30.5600 247.0000 1.0000
30.5800 257.0000 1.0000
30.6000 279.0000 1.0000
30.6200 275.0000 1.0000
30.6400 265.0000 1.0000
30.6600 283.0000 1.0000
30.6800 288.0000 1.0000
30.7000 257.0000 1.0000
30.7200 273.0000 1.0000
30.7400 289.0000 1.0000
30.7600 266.0000 1.0000
30.7800 257.0000 1.0000
30.8000 232.0000 1.0000
30.8200 243.0000 1.0000
30.8400 238.0000 1.0000
30.8600 210.0000 1.0000
30.8800 215.0000 1.0000
30.9000 187.0000 1.0000
30.9200 169.0000 1.0000
30.9400 162.0000 1.0000
30.9600 185.0000 1.0000
30.9800 185.0000 1.0000
31.0000 177.0000 1.0000
31.0200 190.0000 1.0000
31.0400 177.0000 1.0000
31.0600 182.0000 1.0000
31.0800 200.0000 1.0000
31.1000 212.0000 1.0000
31.1200 239.0000 1.0000
31.1400 248.0000 1.0000
31.1600 287.0000 1.0000
31.1800 293.0000 1.0000
31.2000 299.0000 1.0000
31.2200 369.0000 1.0000
31.2400 373.0000 1.0000
31.2600 348.0000 1.0000
31.2800 393.0000 1.0000
31.3000 391.0000 1.0000
31.3200 363.0000 1.0000
31.3400 353.0000 1.0000
31.3600 326.0000 1.0000
31.3800 289.0000 1.0000
31.4000 284.0000 1.0000
31.4200 247.0000 1.0000
31.4400 233.0000 1.0000
31.4600 242.0000 1.0000
31.4800 252.0000 1.0000
31.5000 238.0000 1.0000
31.5200 226.0000 1.0000
31.5400 213.0000 1.0000
31.5600 204.0000 1.0000
31.5800 217.0000 1.0000
31.6000 204.0000 1.0000
31.6200 221.0000 1.0000
31.6400 206.0000 1.0000
31.6600 182.0000 1.0000
31.6800 177.0000 1.0000
31.7000 176.0000 1.0000
31.7200 163.0000 1.0000
31.7400 170.0000 1.0000
31.7600 171.0000 1.0000
31.7800 155.0000 1.0000
31.8000 154.0000 1.0000
31.8200 144.0000 1.0000
31.8400 154.0000 1.0000
31.8600 141.0000 1.0000
31.8800 157.0000 1.0000
31.9000 140.0000 1.0000
31.9200 148.0000 1.0000
31.9400 159.0000 1.0000
31.9600 138.0000 1.0000
31.9800 146.0000 1.0000
32.0000 153.0000 1.0000
32.0200 151.0000 1.0000
32.0400 144.0000 1.0000
32.0600 160.0000 1.0000
32.0800 143.0000 1.0000
32.1000 158.0000 1.0000
32.1200 167.0000 1.0000
32.1400 151.0000 1.0000
32.1600 179.0000 1.0000
32.1800 180.0000 1.0000
32.2000 172.0000 1.0000
32.2200 168.0000 1.0000
32.2400 169.0000 1.0000
32.2600 171.0000 1.0000
32.2800 196.0000 1.0000
32.3000 184.0000 1.0000
32.3200 200.0000 1.0000
32.3400 209.0000 1.0000
32.3600 181.0000 1.0000
32.3800 187.0000 1.0000
32.4000 203.0000 1.0000
32.4200 217.0000 1.0000
32.4400 192.0000 1.0000
32.4600 188.0000 1.0000
32.4800 186.0000 1.0000
32.5000 170.0000 1.0000
32.5200 170.0000 1.0000
32.5400 174.0000 1.0000
32.5600 177.0000 1.0000
32.5800 170.0000 1.0000
32.6000 172.0000 1.0000
32.6200 175.0000 1.0000
32.6400 205.0000 1.0000
32.6600 198.0000 1.0000
32.6800 243.0000 1.0000
32.7000 237.0000 1.0000
32.7200 254.0000 1.0000
32.7400 264.0000 1.0000
32.7600 281.0000 1.0000
32.7800 258.0000 1.0000
32.8000 274.0000 1.0000
32.8200 246.0000 1.0000
32.8400 234.0000 1.0000
32.8600 216.0000 1.0000
32.8800 174.0000 1.0000
32.9000 198.0000 1.0000
32.9200 178.0000 1.0000
32.9400 179.0000 1.0000
32.9600 176.0000 1.0000
32.9800 183.0000 1.0000
33.0000 173.0000 1.0000
33.0200 169.0000 1.0000
33.0400 177.0000 1.0000
33.0600 166.0000 1.0000
33.0800 156.0000 1.0000
33.1000 158.0000 1.0000
33.1200 144.0000 1.0000
33.1400 158.0000 1.0000
33.1600 145.0000 1.0000
33.1800 139.0000 1.0000
33.2000 139.0000 1.0000
33.2200 143.0000 1.0000
33.2400 132.0000 1.0000
33.2600 138.0000 1.0000
33.2800 134.0000 1.0000
33.3000 132.0000 1.0000
33.3200 137.0000 1.0000
33.3400 142.0000 1.0000
33.3600 138.0000 1.0000
33.3800 115.0000 1.0000
33.4000 122.0000 1.0000
33.4200 147.0000 1.0000
33.4400 143.0000 1.0000
33.4600 153.0000 1.0000
33.4800 152.0000 1.0000
33.5000 136.0000 1.0000
33.5200 148.0000 1.0000
33.5400 177.0000 1.0000
33.5600 165.0000 1.0000
33.5800 183.0000 1.0000
33.6000 193.0000 1.0000
33.6200 197.0000 1.0000
33.6400 193.0000 1.0000
33.6600 222.0000 1.0000
33.6800 243.0000 1.0000
33.7000 254.0000 1.0000
33.7200 284.0000 1.0000
33.7400 259.0000 1.0000
33.7600 317.0000 1.0000
33.7800 298.0000 1.0000
33.8000 314.0000 1.0000
33.8200 297.0000 1.0000
33.8400 310.0000 1.0000
33.8600 284.0000 1.0000
33.8800 274.0000 1.0000
33.9000 251.0000 1.0000
33.9200 281.0000 1.0000
33.9400 252.0000 1.0000
33.9600 241.0000 1.0000
33.9800 231.0000 1.0000
34.0000 223.0000 1.0000
34.0200 247.0000 1.0000
34.0400 259.0000 1.0000
34.0600 265.0000 1.0000
34.0800 281.0000 1.0000
34.1000 245.0000 1.0000
34.1200 302.0000 1.0000
34.1400 306.0000 1.0000
34.1600 312.0000 1.0000
34.1800 282.0000 1.0000
34.2000 278.0000 1.0000
34.2200 280.0000 1.0000
34.2400 326.0000 1.0000
34.2600 259.0000 1.0000
34.2800 259.0000 1.0000
34.3000 285.0000 1.0000
34.3200 275.0000 1.0000
34.3400 291.0000 1.0000
34.3600 262.0000 1.0000
34.3800 256.0000 1.0000
34.4000 285.0000 1.0000
34.4200 239.0000 1.0000
34.4400 247.0000 1.0000
34.4600 256.0000 1.0000
34.4800 255.0000 1.0000
34.5000 233.0000 1.0000
34.5200 240.0000 1.0000
34.5400 248.0000 1.0000
34.5600 228.0000 1.0000
34.5800 218.0000 1.0000
34.6000 245.0000 1.0000
34.6200 278.0000 1.0000
34.6400 262.0000 1.0000
34.6600 278.0000 1.0000
34.6800 249.0000 1.0000
34.7000 301.0000 1.0000
34.7200 326.0000 1.0000
34.7400 315.0000 1.0000
34.7600 345.0000 1.0000
34.7800 345.0000 1.0000
34.8000 385.0000 1.0000
34.8200 453.0000 1.0000
34.8400 481.0000 1.0000
34.8600 546.0000 1.0000
34.8800 603.0000 1.0000
34.9000 702.0000 1.0000
34.9200 813.0000 1.0000
34.9400 1039.0000 1.0000
34.9600 1144.0000 1.0000
34.9800 1399.0000 1.0000
35.0000 1553.0000 1.0000
35.0200 1777.0000 1.0000
35.0400 1866.0000 1.0000
35.0600 1869.0000 1.0000
35.0800 1821.0000 1.0000
35.1000 1727.0000 1.0000
35.1200 1600.0000 1.0000
35.1400 1357.0000 1.0000
35.1600 1229.0000 1.0000
35.1800 1087.0000 1.0000
35.2000 914.0000 1.0000
35.2200 732.0000 1.0000
35.2400 658.0000 1.0000
35.2600 593.0000 1.0000
35.2800 541.0000 1.0000
35.3000 531.0000 1.0000
35.3200 477.0000 1.0000
35.3400 452.0000 1.0000
35.3600 422.0000 1.0000
35.3800 388.0000 1.0000
35.4000 391.0000 1.0000
35.4200 381.0000 1.0000
35.4400 363.0000 1.0000
35.4600 355.0000 1.0000
35.4800 351.0000 1.0000
35.5000 359.0000 1.0000
35.5200 338.0000 1.0000
35.5400 333.0000 1.0000
35.5600 303.0000 1.0000
35.5800 332.0000 1.0000
35.6000 329.0000 1.0000
35.6200 313.0000 1.0000
35.6400 284.0000 1.0000
35.6600 253.0000 1.0000
35.6800 220.0000 1.0000
35.7000 233.0000 1.0000
35.7200 229.0000 1.0000
35.7400 218.0000 1.0000
35.7600 188.0000 1.0000
35.7800 186.0000 1.0000
35.8000 202.0000 1.0000
35.8200 199.0000 1.0000
35.8400 180.0000 1.0000
35.8600 218.0000 1.0000
35.8800 208.0000 1.0000
35.9000 210.0000 1.0000
35.9200 205.0000 1.0000
35.9400 198.0000 1.0000
35.9600 213.0000 1.0000
35.9800 206.0000 1.0000
36.0000 216.0000 1.0000
36.0200 205.0000 1.0000
36.0400 230.0000 1.0000
36.0600 223.0000 1.0000
36.0800 254.0000 1.0000
36.1000 303.0000 1.0000
36.1200 291.0000 1.0000
36.1400 298.0000 1.0000
36.1600 305.0000 1.0000
36.1800 309.0000 1.0000
36.2000 339.0000 1.0000
36.2200 315.0000 1.0000
36.2400 343.0000 1.0000
36.2600 322.0000 1.0000
36.2800 351.0000 1.0000
36.3000 422.0000 1.0000
36.3200 404.0000 1.0000
36.3400 468.0000 1.0000
36.3600 531.0000 1.0000
36.3800 587.0000 1.0000
36.4000 678.0000 1.0000
36.4200 733.0000 1.0000
36.4400 766.0000 1.0000
36.4600 757.0000 1.0000
36.4800 764.0000 1.0000
36.5000 699.0000 1.0000
36.5200 646.0000 1.0000
36.5400 564.0000 1.0000
36.5600 507.0000 1.0000
36.5800 451.0000 1.0000
36.6000 370.0000 1.0000
36.6200 331.0000 1.0000
36.6400 267.0000 1.0000
36.6600 289.0000 1.0000
36.6800 243.0000 1.0000
36.7000 255.0000 1.0000
36.7200 242.0000 1.0000
36.7400 256.0000 1.0000
36.7600 236.0000 1.0000
36.7800 243.0000 1.0000
36.8000 239.0000 1.0000
36.8200 262.0000 1.0000
36.8400 262.0000 1.0000
36.8600 244.0000 1.0000
36.8800 265.0000 1.0000
36.9000 266.0000 1.0000
36.9200 283.0000 1.0000
36.9400 258.0000 1.0000
36.9600 261.0000 1.0000
36.9800 289.0000 1.0000
37.0000 272.0000 1.0000
37.0200 270.0000 1.0000
37.0400 233.0000 1.0000
37.0600 230.0000 1.0000
37.0800 206.0000 1.0000
37.1000 205.0000 1.0000
37.1200 205.0000 1.0000
37.1400 195.0000 1.0000
37.1600 180.0000 1.0000
37.1800 184.0000 1.0000
37.2000 200.0000 1.0000
37.2200 179.0000 1.0000
37.2400 200.0000 1.0000
37.2600 223.0000 1.0000
37.2800 218.0000 1.0000
37.3000 209.0000 1.0000
37.3200 234.0000 1.0000
37.3400 246.0000 1.0000
37.3600 248.0000 1.0000
37.3800 259.0000 1.0000
37.4000 259.0000 1.0000
37.4200 307.0000 1.0000
37.4400 305.0000 1.0000
37.4600 328.0000 1.0000
37.4800 313.0000 1.0000
37.5000 360.0000 1.0000
37.5200 404.0000 1.0000
37.5400 430.0000 1.0000
37.5600 484.0000 1.0000
37.5800 521.0000 1.0000
37.6000 600.0000 1.0000
37.6200 670.0000 1.0000
37.6400 788.0000 1.0000
37.6600 781.0000 1.0000
37.6800 782.0000 1.0000
37.7000 786.0000 1.0000
37.7200 712.0000 1.0000
37.7400 622.0000 1.0000
37.7600 564.0000 1.0000
37.7800 521.0000 1.0000
37.8000 400.0000 1.0000
37.8200 332.0000 1.0000
37.8400 270.0000 1.0000
37.8600 244.0000 1.0000
37.8800 224.0000 1.0000
37.9000 195.0000 1.0000
37.9200 178.0000 1.0000
37.9400 176.0000 1.0000
37.9600 164.0000 1.0000
37.9800 171.0000 1.0000
38.0000 166.0000 1.0000
38.0200 157.0000 1.0000
38.0400 182.0000 1.0000
38.0600 166.0000 1.0000
38.0800 186.0000 1.0000
38.1000 182.0000 1.0000
38.1200 172.0000 1.0000
38.1400 193.0000 1.0000
38.1600 201.0000 1.0000
38.1800 178.0000 1.0000
38.2000 161.0000 1.0000
38.2200 171.0000 1.0000
38.2400 150.0000 1.0000
38.2600 146.0000 1.0000
38.2800 163.0000 1.0000
38.3000 172.0000 1.0000
38.3200 182.0000 1.0000
38.3400 164.0000 1.0000
38.3600 164.0000 1.0000
38.3800 174.0000 1.0000
38.4000 179.0000 1.0000
38.4200 166.0000 1.0000
38.4400 170.0000 1.0000
38.4600 163.0000 1.0000
38.4800 176.0000 1.0000
38.5000 182.0000 1.0000
38.5200 157.0000 1.0000
38.5400 148.0000 1.0000
38.5600 166.0000 1.0000
38.5800 160.0000 1.0000
38.6000 150.0000 1.0000
38.6200 148.0000 1.0000
38.6400 155.0000 1.0000
38.6600 158.0000 1.0000
38.6800 153.0000 1.0000
38.7000 148.0000 1.0000
38.7200 148.0000 1.0000
38.7400 151.0000 1.0000
38.7600 171.0000 1.0000
38.7800 170.0000 1.0000
38.8000 163.0000 1.0000
38.8200 180.0000 1.0000
38.8400 196.0000 1.0000
38.8600 187.0000 1.0000
38.8800 191.0000 1.0000
38.9000 204.0000 1.0000
38.9200 211.0000 1.0000
38.9400 224.0000 1.0000
38.9600 248.0000 1.0000
38.9800 261.0000 1.0000
39.0000 260.0000 1.0000
39.0200 266.0000 1.0000
39.0400 271.0000 1.0000
39.0600 251.0000 1.0000
39.0800 224.0000 1.0000
39.1000 218.0000 1.0000
39.1200 218.0000 1.0000
39.1400 223.0000 1.0000
39.1600 211.0000 1.0000
39.1800 213.0000 1.0000
39.2000 232.0000 1.0000
39.2200 254.0000 1.0000
39.2400 290.0000 1.0000
39.2600 360.0000 1.0000
39.2800 446.0000 1.0000
39.3000 522.0000 1.0000
39.3200 601.0000 1.0000
39.3400 669.0000 1.0000
39.3600 695.0000 1.0000
39.3800 705.0000 1.0000
39.4000 664.0000 1.0000
39.4200 618.0000 1.0000
39.4400 560.0000 1.0000
39.4600 490.0000 1.0000
39.4800 471.0000 1.0000
39.5000 423.0000 1.0000
39.5200 374.0000 1.0000
39.5400 320.0000 1.0000
39.5600 282.0000 1.0000
39.5800 250.0000 1.0000
39.6000 245.0000 1.0000
39.6200 232.0000 1.0000
39.6400 196.0000 1.0000
39.6600 190.0000 1.0000
39.6800 183.0000 1.0000
39.7000 173.0000 1.0000
39.7200 170.0000 1.0000
39.7400 163.0000 1.0000
39.7600 149.0000 1.0000
39.7800 144.0000 1.0000
39.8000 166.0000 1.0000
39.8200 160.0000 1.0000
39.8400 145.0000 1.0000
39.8600 138.0000 1.0000
39.8800 143.0000 1.0000
39.9000 152.0000 1.0000
39.9200 154.0000 1.0000
39.9400 161.0000 1.0000
39.9600 159.0000 1.0000
39.9800 162.0000 1.0000
40.0000 158.0000 1.0000
40.0200 165.0000 1.0000
40.0400 177.0000 1.0000
40.0600 202.0000 1.0000
40.0800 240.0000 1.0000
40.1000 260.0000 1.0000
40.1200 281.0000 1.0000
40.1400 330.0000 1.0000
40.1600 372.0000 1.0000
40.1800 389.0000 1.0000
40.2000 405.0000 1.0000
40.2200 383.0000 1.0000
40.2400 365.0000 1.0000
40.2600 339.0000 1.0000
40.2800 299.0000 1.0000
40.3000 278.0000 1.0000
40.3200 267.0000 1.0000
40.3400 233.0000 1.0000
40.3600 194.0000 1.0000
40.3800 186.0000 1.0000
40.4000 171.0000 1.0000
40.4200 154.0000 1.0000
40.4400 147.0000 1.0000
40.4600 148.0000 1.0000
40.4800 148.0000 1.0000
40.5000 144.0000 1.0000
40.5200 134.0000 1.0000
40.5400 146.0000 1.0000
40.5600 163.0000 1.0000
40.5800 151.0000 1.0000
40.6000 146.0000 1.0000
40.6200 147.0000 1.0000
40.6400 164.0000 1.0000
40.6600 171.0000 1.0000
40.6800 169.0000 1.0000
40.7000 171.0000 1.0000
40.7200 165.0000 1.0000
40.7400 179.0000 1.0000
40.7600 198.0000 1.0000
40.7800 184.0000 1.0000
40.8000 169.0000 1.0000
40.8200 185.0000 1.0000
40.8400 181.0000 1.0000
40.8600 160.0000 1.0000
40.8800 155.0000 1.0000
40.9000 152.0000 1.0000
40.9200 153.0000 1.0000
40.9400 160.0000 1.0000
40.9600 157.0000 1.0000
40.9800 168.0000 1.0000
41.0000 148.0000 1.0000
41.0200 133.0000 1.0000
41.0400 159.0000 1.0000
41.0600 160.0000 1.0000
41.0800 152.0000 1.0000
41.1000 156.0000 1.0000
41.1200 166.0000 1.0000
41.1400 179.0000 1.0000
41.1600 176.0000 1.0000
41.1800 178.0000 1.0000
41.2000 174.0000 1.0000
41.2200 167.0000 1.0000
41.2400 181.0000 1.0000
41.2600 193.0000 1.0000
41.2800 183.0000 1.0000
41.3000 185.0000 1.0000
41.3200 205.0000 1.0000
41.3400 198.0000 1.0000
41.3600 201.0000 1.0000
41.3800 195.0000 1.0000
41.4000 179.0000 1.0000
41.4200 189.0000 1.0000
41.4400 195.0000 1.0000
41.4600 189.0000 1.0000
41.4800 186.0000 1.0000
41.5000 194.0000 1.0000
41.5200 188.0000 1.0000
41.5400 185.0000 1.0000
41.5600 195.0000 1.0000
41.5800 213.0000 1.0000
41.6000 228.0000 1.0000
41.6200 241.0000 1.0000
41.6400 240.0000 1.0000
41.6600 240.0000 1.0000
41.6800 246.0000 1.0000
41.7000 238.0000 1.0000
41.7200 232.0000 1.0000
41.7400 232.0000 1.0000
41.7600 232.0000 1.0000
41.7800 237.0000 1.0000
41.8000 215.0000 1.0000
41.8200 193.0000 1.0000
41.8400 192.0000 1.0000
41.8600 186.0000 1.0000
41.8800 171.0000 1.0000
41.9000 181.0000 1.0000
41.9200 197.0000 1.0000
41.9400 183.0000 1.0000
41.9600 163.0000 1.0000
41.9800 167.0000 1.0000
42.0000 169.0000 1.0000
42.0200 179.0000 1.0000
42.0400 171.0000 1.0000
42.0600 188.0000 1.0000
42.0800 207.0000 1.0000
42.1000 225.0000 1.0000
42.1200 251.0000 1.0000
42.1400 264.0000 1.0000
42.1600 308.0000 1.0000
42.1800 309.0000 1.0000
42.2000 320.0000 1.0000
42.2200 361.0000 1.0000
42.2400 402.0000 1.0000
42.2600 426.0000 1.0000
42.2800 493.0000 1.0000
42.3000 578.0000 1.0000
42.3200 624.0000 1.0000
42.3400 617.0000 1.0000
42.3600 614.0000 1.0000
42.3800 623.0000 1.0000
42.4000 559.0000 1.0000
42.4200 497.0000 1.0000
42.4400 452.0000 1.0000
42.4600 384.0000 1.0000
42.4800 363.0000 1.0000
42.5000 339.0000 1.0000
42.5200 286.0000 1.0000
42.5400 274.0000 1.0000
42.5600 271.0000 1.0000
42.5800 230.0000 1.0000
42.6000 235.0000 1.0000
42.6200 261.0000 1.0000
42.6400 257.0000 1.0000
42.6600 258.0000 1.0000
42.6800 258.0000 1.0000
42.7000 268.0000 1.0000
42.7200 281.0000 1.0000
42.7400 268.0000 1.0000
42.7600 269.0000 1.0000
42.7800 260.0000 1.0000
42.8000 283.0000 1.0000
42.8200 275.0000 1.0000
42.8400 267.0000 1.0000
42.8600 298.0000 1.0000
42.8800 301.0000 1.0000
42.9000 293.0000 1.0000
42.9200 311.0000 1.0000
42.9400 324.0000 1.0000
42.9600 322.0000 1.0000
42.9800 328.0000 1.0000
43.0000 337.0000 1.0000
43.0200 370.0000 1.0000
43.0400 375.0000 1.0000
43.0600 409.0000 1.0000
43.0800 443.0000 1.0000
43.1000 514.0000 1.0000
43.1200 619.0000 1.0000
43.1400 738.0000 1.0000
43.1600 887.0000 1.0000
43.1800 1153.0000 1.0000
43.2000 1400.0000 1.0000
43.2200 1536.0000 1.0000
43.2400 1621.0000 1.0000
43.2600 1683.0000 1.0000
43.2800 1682.0000 1.0000
43.3000 1561.0000 1.0000
43.3200 1427.0000 1.0000
43.3400 1271.0000 1.0000
43.3600 1124.0000 1.0000
43.3800 990.0000 1.0000
43.4000 879.0000 1.0000
43.4200 700.0000 1.0000
43.4400 588.0000 1.0000
43.4600 421.0000 1.0000
43.4800 320.0000 1.0000
43.5000 241.0000 1.0000
43.5200 210.0000 1.0000
43.5400 212.0000 1.0000
43.5600 182.0000 1.0000
43.5800 174.0000 1.0000
43.6000 167.0000 1.0000
43.6200 163.0000 1.0000
43.6400 186.0000 1.0000
43.6600 161.0000 1.0000
43.6800 151.0000 1.0000
43.7000 158.0000 1.0000
43.7200 156.0000 1.0000
43.7400 161.0000 1.0000
43.7600 168.0000 1.0000
43.7800 146.0000 1.0000
43.8000 158.0000 1.0000
43.8200 148.0000 1.0000
43.8400 151.0000 1.0000
43.8600 143.0000 1.0000
43.8800 129.0000 1.0000
43.9000 150.0000 1.0000
43.9200 146.0000 1.0000
43.9400 121.0000 1.0000
43.9600 151.0000 1.0000
43.9800 137.0000 1.0000
44.0000 160.0000 1.0000
44.0200 123.0000 1.0000
44.0400 129.0000 1.0000
44.0600 134.0000 1.0000
44.0800 112.0000 1.0000
44.1000 127.0000 1.0000
44.1200 114.0000 1.0000
44.1400 130.0000 1.0000
44.1600 132.0000 1.0000
44.1800 117.0000 1.0000
44.2000 114.0000 1.0000
44.2200 121.0000 1.0000
44.2400 108.0000 1.0000
44.2600 122.0000 1.0000
44.2800 124.0000 1.0000
44.3000 108.0000 1.0000
44.3200 140.0000 1.0000
44.3400 120.0000 1.0000
44.3600 125.0000 1.0000
44.3800 110.0000 1.0000
44.4000 151.0000 1.0000
44.4200 148.0000 1.0000
44.4400 167.0000 1.0000
44.4600 149.0000 1.0000
44.4800 149.0000 1.0000
44.5000 158.0000 1.0000
44.5200 168.0000 1.0000
44.5400 147.0000 1.0000
44.5600 163.0000 1.0000
44.5800 165.0000 1.0000
44.6000 183.0000 1.0000
44.6200 166.0000 1.0000
44.6400 175.0000 1.0000
44.6600 185.0000 1.0000
44.6800 185.0000 1.0000
44.7000 168.0000 1.0000
44.7200 173.0000 1.0000
44.7400 158.0000 1.0000
44.7600 150.0000 1.0000
44.7800 189.0000 1.0000
44.8000 194.0000 1.0000
44.8200 181.0000 1.0000
44.8400 183.0000 1.0000
44.8600 195.0000 1.0000
44.8800 173.0000 1.0000
44.9000 175.0000 1.0000
44.9200 157.0000 1.0000
44.9400 203.0000 1.0000
44.9600 183.0000 1.0000
44.9800 184.0000 1.0000
45.0000 191.0000 1.0000
45.0200 172.0000 1.0000
45.0400 193.0000 1.0000
45.0600 173.0000 1.0000
45.0800 153.0000 1.0000
45.1000 166.0000 1.0000
45.1200 182.0000 1.0000
45.1400 158.0000 1.0000
45.1600 156.0000 1.0000
45.1800 129.0000 1.0000
45.2000 163.0000 1.0000
45.2200 148.0000 1.0000
45.2400 176.0000 1.0000
45.2600 176.0000 1.0000
45.2800 174.0000 1.0000
45.3000 159.0000 1.0000
45.3200 187.0000 1.0000
45.3400 177.0000 1.0000
45.3600 167.0000 1.0000
45.3800 185.0000 1.0000
45.4000 160.0000 1.0000
45.4200 181.0000 1.0000
45.4400 183.0000 1.0000
45.4600 202.0000 1.0000
45.4800 195.0000 1.0000
45.5000 187.0000 1.0000
45.5200 222.0000 1.0000
45.5400 252.0000 1.0000
45.5600 263.0000 1.0000
45.5800 298.0000 1.0000
45.6000 320.0000 1.0000
45.6200 342.0000 1.0000
45.6400 360.0000 1.0000
45.6600 434.0000 1.0000
45.6800 418.0000 1.0000
45.7000 399.0000 1.0000
45.7200 423.0000 1.0000
45.7400 378.0000 1.0000
45.7600 347.0000 1.0000
45.7800 326.0000 1.0000
45.8000 283.0000 1.0000
45.8200 278.0000 1.0000
45.8400 265.0000 1.0000
45.8600 247.0000 1.0000
45.8800 213.0000 1.0000
45.9000 190.0000 1.0000
45.9200 161.0000 1.0000
45.9400 171.0000 1.0000
45.9600 187.0000 1.0000
45.9800 151.0000 1.0000
46.0000 176.0000 1.0000
46.0200 139.0000 1.0000
46.0400 146.0000 1.0000
46.0600 176.0000 1.0000
46.0800 153.0000 1.0000
46.1000 156.0000 1.0000
46.1200 161.0000 1.0000
46.1400 146.0000 1.0000
46.1600 158.0000 1.0000
46.1800 146.0000 1.0000
46.2000 133.0000 1.0000
46.2200 138.0000 1.0000
46.2400 130.0000 1.0000
46.2600 137.0000 1.0000
46.2800 138.0000 1.0000
46.3000 131.0000 1.0000
46.3200 110.0000 1.0000
46.3400 123.0000 1.0000
46.3600 115.0000 1.0000
46.3800 118.0000 1.0000
46.4000 119.0000 1.0000
46.4200 120.0000 1.0000
46.4400 113.0000 1.0000
46.4600 100.0000 1.0000
46.4800 100.0000 1.0000
46.5000 109.0000 1.0000
46.5200 118.0000 1.0000
46.5400 122.0000 1.0000
46.5600 116.0000 1.0000
46.5800 125.0000 1.0000
46.6000 138.0000 1.0000
46.6200 130.0000 1.0000
46.6400 118.0000 1.0000
46.6600 133.0000 1.0000
46.6800 142.0000 1.0000
46.7000 153.0000 1.0000
46.7200 128.0000 1.0000
46.7400 137.0000 1.0000
46.7600 166.0000 1.0000
46.7800 154.0000 1.0000
46.8000 170.0000 1.0000
46.8200 160.0000 1.0000
46.8400 147.0000 1.0000
46.8600 141.0000 1.0000
46.8800 147.0000 1.0000
46.9000 165.0000 1.0000
46.9200 161.0000 1.0000
46.9400 156.0000 1.0000
46.9600 143.0000 1.0000
46.9800 137.0000 1.0000
47.0000 135.0000 1.0000
47.0200 154.0000 1.0000
47.0400 136.0000 1.0000
47.0600 129.0000 1.0000
47.0800 152.0000 1.0000
47.1000 134.0000 1.0000
47.1200 121.0000 1.0000
47.1400 135.0000 1.0000
47.1600 125.0000 1.0000
47.1800 119.0000 1.0000
47.2000 117.0000 1.0000
47.2200 127.0000 1.0000
47.2400 127.0000 1.0000
47.2600 117.0000 1.0000
47.2800 120.0000 1.0000
47.3000 142.0000 1.0000
47.3200 123.0000 1.0000
47.3400 132.0000 1.0000
47.3600 148.0000 1.0000
47.3800 164.0000 1.0000
47.4000 164.0000 1.0000
47.4200 156.0000 1.0000
47.4400 163.0000 1.0000
47.4600 175.0000 1.0000
47.4800 183.0000 1.0000
47.5000 204.0000 1.0000
47.5200 190.0000 1.0000
47.5400 164.0000 1.0000
47.5600 164.0000 1.0000
47.5800 162.0000 1.0000
47.6000 152.0000 1.0000
47.6200 155.0000 1.0000
47.6400 156.0000 1.0000
47.6600 134.0000 1.0000
47.6800 122.0000 1.0000
47.7000 130.0000 1.0000
47.7200 137.0000 1.0000
47.7400 135.0000 1.0000
47.7600 134.0000 1.0000
47.7800 145.0000 1.0000
47.8000 141.0000 1.0000
47.8200 137.0000 1.0000
47.8400 128.0000 1.0000
47.8600 121.0000 1.0000
47.8800 140.0000 1.0000
47.9000 138.0000 1.0000
47.9200 128.0000 1.0000
47.9400 143.0000 1.0000
47.9600 136.0000 1.0000
47.9800 130.0000 1.0000
48.0000 146.0000 1.0000
48.0200 134.0000 1.0000
48.0400 138.0000 1.0000
48.0600 149.0000 1.0000
48.0800 152.0000 1.0000
48.1000 164.0000 1.0000
48.1200 174.0000 1.0000
48.1400 174.0000 1.0000
48.1600 180.0000 1.0000
48.1800 207.0000 1.0000
48.2000 217.0000 1.0000
48.2200 216.0000 1.0000
48.2400 217.0000 1.0000
48.2600 192.0000 1.0000
48.2800 173.0000 1.0000
48.3000 179.0000 1.0000
48.3200 184.0000 1.0000
48.3400 195.0000 1.0000
48.3600 178.0000 1.0000
48.3800 171.0000 1.0000
48.4000 173.0000 1.0000
48.4200 168.0000 1.0000
48.4400 165.0000 1.0000
48.4600 154.0000 1.0000
48.4800 143.0000 1.0000
48.5000 133.0000 1.0000
48.5200 131.0000 1.0000
48.5400 139.0000 1.0000
48.5600 139.0000 1.0000
48.5800 120.0000 1.0000
48.6000 117.0000 1.0000
48.6200 126.0000 1.0000
48.6400 130.0000 1.0000
48.6600 132.0000 1.0000
48.6800 129.0000 1.0000
48.7000 128.0000 1.0000
48.7200 139.0000 1.0000
48.7400 142.0000 1.0000
48.7600 142.0000 1.0000
48.7800 140.0000 1.0000
48.8000 134.0000 1.0000
48.8200 144.0000 1.0000
48.8400 151.0000 1.0000
48.8600 165.0000 1.0000
48.8800 178.0000 1.0000
48.9000 176.0000 1.0000
48.9200 184.0000 1.0000
48.9400 195.0000 1.0000
48.9600 219.0000 1.0000
48.9800 241.0000 1.0000
49.0000 232.0000 1.0000
49.0200 247.0000 1.0000
49.0400 267.0000 1.0000
49.0600 263.0000 1.0000
49.0800 281.0000 1.0000
49.1000 300.0000 1.0000
49.1200 297.0000 1.0000
49.1400 285.0000 1.0000
49.1600 278.0000 1.0000
49.1800 254.0000 1.0000
49.2000 241.0000 1.0000
49.2200 239.0000 1.0000
49.2400 222.0000 1.0000
49.2600 205.0000 1.0000
49.2800 203.0000 1.0000
49.3000 189.0000 1.0000
49.3200 181.0000 1.0000
49.3400 182.0000 1.0000
49.3600 184.0000 1.0000
49.3800 189.0000 1.0000
49.4000 178.0000 1.0000
49.4200 178.0000 1.0000
49.4400 181.0000 1.0000
49.4600 181.0000 1.0000
49.4800 186.0000 1.0000
49.5000 202.0000 1.0000
49.5200 216.0000 1.0000
49.5400 204.0000 1.0000
49.5600 235.0000 1.0000
49.5800 255.0000 1.0000
49.6000 254.0000 1.0000
49.6200 279.0000 1.0000
49.6400 292.0000 1.0000
49.6600 325.0000 1.0000
49.6800 356.0000 1.0000
49.7000 392.0000 1.0000
49.7200 412.0000 1.0000
49.7400 425.0000 1.0000
49.7600 423.0000 1.0000
49.7800 418.0000 1.0000
49.8000 443.0000 1.0000
49.8200 480.0000 1.0000
49.8400 482.0000 1.0000
49.8600 475.0000 1.0000
49.8800 485.0000 1.0000
49.9000 528.0000 1.0000
49.9200 569.0000 1.0000
49.9400 649.0000 1.0000
49.9600 760.0000 1.0000
49.9800 883.0000 1.0000
50.0000 998.0000 1.0000
50.0200 1027.0000 1.0000
50.0400 1046.0000 1.0000
50.0600 1040.0000 1.0000
50.0800 998.0000 1.0000
50.1000 959.0000 1.0000
50.1200 871.0000 1.0000
50.1400 758.0000 1.0000
50.1600 699.0000 1.0000
50.1800 667.0000 1.0000
50.2000 588.0000 1.0000
50.2200 524.0000 1.0000
50.2400 444.0000 1.0000
50.2600 357.0000 1.0000
50.2800 282.0000 1.0000
50.3000 239.0000 1.0000
50.3200 215.0000 1.0000
50.3400 221.0000 1.0000
50.3600 226.0000 1.0000
50.3800 215.0000 1.0000
50.4000 240.0000 1.0000
50.4200 252.0000 1.0000
50.4400 238.0000 1.0000
50.4600 247.0000 1.0000
50.4800 275.0000 1.0000
50.5000 269.0000 1.0000
50.5200 267.0000 1.0000
50.5400 262.0000 1.0000
50.5600 284.0000 1.0000
50.5800 305.0000 1.0000
50.6000 302.0000 1.0000
50.6200 333.0000 1.0000
50.6400 336.0000 1.0000
50.6600 303.0000 1.0000
50.6800 295.0000 1.0000
50.7000 295.0000 1.0000
50.7200 267.0000 1.0000
50.7400 240.0000 1.0000
50.7600 218.0000 1.0000
50.7800 228.0000 1.0000
50.8000 211.0000 1.0000
50.8200 207.0000 1.0000
50.8400 201.0000 1.0000
50.8600 171.0000 1.0000
50.8800 172.0000 1.0000
50.9000 174.0000 1.0000
50.9200 166.0000 1.0000
50.9400 172.0000 1.0000
50.9600 167.0000 1.0000
50.9800 179.0000 1.0000
51.0000 189.0000 1.0000
51.0200 215.0000 1.0000
51.0400 200.0000 1.0000
51.0600 208.0000 1.0000
51.0800 215.0000 1.0000
51.1000 237.0000 1.0000
51.1200 237.0000 1.0000
51.1400 272.0000 1.0000
51.1600 310.0000 1.0000
51.1800 334.0000 1.0000
51.2000 360.0000 1.0000
51.2200 329.0000 1.0000
51.2400 336.0000 1.0000
51.2600 350.0000 1.0000
51.2800 316.0000 1.0000
51.3000 282.0000 1.0000
51.3200 282.0000 1.0000
51.3400 281.0000 1.0000
51.3600 252.0000 1.0000
51.3800 239.0000 1.0000
51.4000 246.0000 1.0000
51.4200 207.0000 1.0000
51.4400 212.0000 1.0000
51.4600 164.0000 1.0000
51.4800 157.0000 1.0000
51.5000 148.0000 1.0000
51.5200 156.0000 1.0000
51.5400 124.0000 1.0000
51.5600 129.0000 1.0000
51.5800 130.0000 1.0000
51.6000 159.0000 1.0000
51.6200 131.0000 1.0000
51.6400 139.0000 1.0000
51.6600 143.0000 1.0000
51.6800 137.0000 1.0000
51.7000 131.0000 1.0000
51.7200 142.0000 1.0000
51.7400 123.0000 1.0000
51.7600 146.0000 1.0000
51.7800 134.0000 1.0000
51.8000 132.0000 1.0000
51.8200 128.0000 1.0000
51.8400 136.0000 1.0000
51.8600 141.0000 1.0000
51.8800 149.0000 1.0000
51.9000 148.0000 1.0000
51.9200 140.0000 1.0000
51.9400 137.0000 1.0000
51.9600 127.0000 1.0000
51.9800 148.0000 1.0000
52.0000 137.0000 1.0000
52.0200 146.0000 1.0000
52.0400 157.0000 1.0000
52.0600 174.0000 1.0000
52.0800 151.0000 1.0000
52.1000 168.0000 1.0000
52.1200 154.0000 1.0000
52.1400 181.0000 1.0000
52.1600 209.0000 1.0000
52.1800 221.0000 1.0000
52.2000 184.0000 1.0000
52.2200 215.0000 1.0000
52.2400 249.0000 1.0000
52.2600 248.0000 1.0000
52.2800 275.0000 1.0000
52.3000 287.0000 1.0000
52.3200 359.0000 1.0000
52.3400 401.0000 1.0000
52.3600 467.0000 1.0000
52.3800 499.0000 1.0000
52.4000 651.0000 1.0000
52.4200 717.0000 1.0000
52.4400 765.0000 1.0000
52.4600 791.0000 1.0000
52.4800 816.0000 1.0000
52.5000 800.0000 1.0000
52.5200 747.0000 1.0000
52.5400 697.0000 1.0000
52.5600 654.0000 1.0000
52.5800 595.0000 1.0000
52.6000 589.0000 1.0000
52.6200 535.0000 1.0000
52.6400 493.0000 1.0000
52.6600 466.0000 1.0000
52.6800 371.0000 1.0000
52.7000 307.0000 1.0000
52.7200 298.0000 1.0000
52.7400 295.0000 1.0000
52.7600 252.0000 1.0000
52.7800 231.0000 1.0000
52.8000 264.0000 1.0000
52.8200 227.0000 1.0000
52.8400 234.0000 1.0000
52.8600 211.0000 1.0000
52.8800 216.0000 1.0000
52.9000 216.0000 1.0000
52.9200 209.0000 1.0000
52.9400 184.0000 1.0000
52.9600 185.0000 1.0000
52.9800 198.0000 1.0000
53.0000 195.0000 1.0000
53.0200 198.0000 1.0000
53.0400 210.0000 1.0000
53.0600 212.0000 1.0000
53.0800 192.0000 1.0000
53.1000 205.0000 1.0000
53.1200 210.0000 1.0000
53.1400 219.0000 1.0000
53.1600 197.0000 1.0000
53.1800 179.0000 1.0000
53.2000 186.0000 1.0000
53.2200 195.0000 1.0000
53.2400 190.0000 1.0000
53.2600 172.0000 1.0000
53.2800 161.0000 1.0000
53.3000 157.0000 1.0000
53.3200 143.0000 1.0000
53.3400 171.0000 1.0000
53.3600 157.0000 1.0000
53.3800 136.0000 1.0000
53.4000 128.0000 1.0000
53.4200 142.0000 1.0000
53.4400 148.0000 1.0000
53.4600 133.0000 1.0000
53.4800 143.0000 1.0000
53.5000 143.0000 1.0000
53.5200 141.0000 1.0000
53.5400 135.0000 1.0000
53.5600 117.0000 1.0000
53.5800 152.0000 1.0000
53.6000 140.0000 1.0000
53.6200 144.0000 1.0000
53.6400 134.0000 1.0000
53.6600 153.0000 1.0000
53.6800 149.0000 1.0000
53.7000 132.0000 1.0000
53.7200 148.0000 1.0000
53.7400 139.0000 1.0000
53.7600 157.0000 1.0000
53.7800 170.0000 1.0000
53.8000 146.0000 1.0000
53.8200 151.0000 1.0000
53.8400 147.0000 1.0000
53.8600 167.0000 1.0000
53.8800 158.0000 1.0000
53.9000 168.0000 1.0000
53.9200 162.0000 1.0000
53.9400 168.0000 1.0000
53.9600 166.0000 1.0000
53.9800 178.0000 1.0000
54.0000 161.0000 1.0000
54.0200 166.0000 1.0000
54.0400 177.0000 1.0000
54.0600 150.0000 1.0000
54.0800 154.0000 1.0000
54.1000 179.0000 1.0000
54.1200 170.0000 1.0000
54.1400 153.0000 1.0000
54.1600 174.0000 1.0000
54.1800 156.0000 1.0000
54.2000 157.0000 1.0000
54.2200 186.0000 1.0000
54.2400 176.0000 1.0000
54.2600 186.0000 1.0000
54.2800 195.0000 1.0000
54.3000 173.0000 1.0000
54.3200 180.0000 1.0000
54.3400 202.0000 1.0000
54.3600 201.0000 1.0000
54.3800 187.0000 1.0000
54.4000 177.0000 1.0000
54.4200 187.0000 1.0000
54.4400 171.0000 1.0000
54.4600 177.0000 1.0000
54.4800 161.0000 1.0000
54.5000 156.0000 1.0000
54.5200 166.0000 1.0000
54.5400 160.0000 1.0000
54.5600 148.0000 1.0000
54.5800 165.0000 1.0000
54.6000 188.0000 1.0000
54.6200 186.0000 1.0000
54.6400 198.0000 1.0000
54.6600 232.0000 1.0000
54.6800 237.0000 1.0000
54.7000 290.0000 1.0000
54.7200 315.0000 1.0000
54.7400 355.0000 1.0000
54.7600 392.0000 1.0000
54.7800 403.0000 1.0000
54.8000 403.0000 1.0000
54.8200 391.0000 1.0000
54.8400 372.0000 1.0000
54.8600 345.0000 1.0000
54.8800 323.0000 1.0000
54.9000 292.0000 1.0000
54.9200 291.0000 1.0000
54.9400 287.0000 1.0000
54.9600 271.0000 1.0000
54.9800 259.0000 1.0000
55.0000 240.0000 1.0000
55.0200 206.0000 1.0000
55.0400 197.0000 1.0000
55.0600 178.0000 1.0000
55.0800 177.0000 1.0000
55.1000 198.0000 1.0000
55.1200 198.0000 1.0000
55.1400 232.0000 1.0000
55.1600 256.0000 1.0000
55.1800 262.0000 1.0000
55.2000 291.0000 1.0000
55.2200 301.0000 1.0000
55.2400 294.0000 1.0000
55.2600 282.0000 1.0000
55.2800 256.0000 1.0000
55.3000 248.0000 1.0000
55.3200 239.0000 1.0000
55.3400 221.0000 1.0000
55.3600 218.0000 1.0000
55.3800 206.0000 1.0000
55.4000 195.0000 1.0000
55.4200 206.0000 1.0000
55.4400 191.0000 1.0000
55.4600 158.0000 1.0000
55.4800 164.0000 1.0000
55.5000 170.0000 1.0000
55.5200 160.0000 1.0000
55.5400 146.0000 1.0000
55.5600 140.0000 1.0000
55.5800 141.0000 1.0000
55.6000 135.0000 1.0000
55.6200 121.0000 1.0000
55.6400 121.0000 1.0000
55.6600 124.0000 1.0000
55.6800 127.0000 1.0000
55.7000 144.0000 1.0000
55.7200 145.0000 1.0000
55.7400 136.0000 1.0000
55.7600 131.0000 1.0000
55.7800 131.0000 1.0000
55.8000 135.0000 1.0000
55.8200 138.0000 1.0000
55.8400 128.0000 1.0000
55.8600 117.0000 1.0000
55.8800 131.0000 1.0000
55.9000 141.0000 1.0000
55.9200 145.0000 1.0000
55.9400 146.0000 1.0000
55.9600 131.0000 1.0000
55.9800 128.0000 1.0000
56.0000 134.0000 1.0000
56.0200 141.0000 1.0000
56.0400 143.0000 1.0000
56.0600 131.0000 1.0000
56.0800 136.0000 1.0000
56.1000 136.0000 1.0000
56.1200 132.0000 1.0000
56.1400 134.0000 1.0000
56.1600 132.0000 1.0000
56.1800 138.0000 1.0000
56.2000 138.0000 1.0000
56.2200 143.0000 1.0000
56.2400 156.0000 1.0000
56.2600 160.0000 1.0000
56.2800 155.0000 1.0000
56.3000 139.0000 1.0000
56.3200 127.0000 1.0000
56.3400 133.0000 1.0000
56.3600 146.0000 1.0000
56.3800 151.0000 1.0000
56.4000 137.0000 1.0000
56.4200 130.0000 1.0000
56.4400 134.0000 1.0000
56.4600 136.0000 1.0000
56.4800 133.0000 1.0000
56.5000 131.0000 1.0000
56.5200 130.0000 1.0000
56.5400 137.0000 1.0000
56.5600 149.0000 1.0000
56.5800 129.0000 1.0000
56.6000 123.0000 1.0000
56.6200 132.0000 1.0000
56.6400 140.0000 1.0000
56.6600 132.0000 1.0000
56.6800 140.0000 1.0000
56.7000 148.0000 1.0000
56.7200 125.0000 1.0000
56.7400 131.0000 1.0000
56.7600 143.0000 1.0000
56.7800 153.0000 1.0000
56.8000 136.0000 1.0000
56.8200 129.0000 1.0000
56.8400 133.0000 1.0000
56.8600 143.0000 1.0000
56.8800 156.0000 1.0000
56.9000 144.0000 1.0000
56.9200 140.0000 1.0000
56.9400 153.0000 1.0000
56.9600 150.0000 1.0000
56.9800 153.0000 1.0000
57.0000 148.0000 1.0000
57.0200 157.0000 1.0000
57.0400 170.0000 1.0000
57.0600 171.0000 1.0000
57.0800 179.0000 1.0000
57.1000 201.0000 1.0000
57.1200 216.0000 1.0000
57.1400 222.0000 1.0000
57.1600 243.0000 1.0000
57.1800 259.0000 1.0000
57.2000 274.0000 1.0000
57.2200 312.0000 1.0000
57.2400 345.0000 1.0000
57.2600 415.0000 1.0000
57.2800 522.0000 1.0000
57.3000 629.0000 1.0000
57.3200 780.0000 1.0000
57.3400 939.0000 1.0000
57.3600 1128.0000 1.0000
57.3800 1287.0000 1.0000
57.4000 1380.0000 1.0000
57.4200 1405.0000 1.0000
57.4400 1383.0000 1.0000
57.4600 1293.0000 1.0000
57.4800 1162.0000 1.0000
57.5000 1094.0000 1.0000
57.5200 979.0000 1.0000
57.5400 937.0000 1.0000
57.5600 901.0000 1.0000
57.5800 893.0000 1.0000
57.6000 798.0000 1.0000
57.6200 650.0000 1.0000
57.6400 562.0000 1.0000
57.6600 473.0000 1.0000
57.6800 383.0000 1.0000
57.7000 315.0000 1.0000
57.7200 280.0000 1.0000
57.7400 256.0000 1.0000
57.7600 217.0000 1.0000
57.7800 210.0000 1.0000
57.8000 212.0000 1.0000
57.8200 222.0000 1.0000
57.8400 214.0000 1.0000
57.8600 195.0000 1.0000
57.8800 177.0000 1.0000
57.9000 172.0000 1.0000
57.9200 156.0000 1.0000
57.9400 171.0000 1.0000
57.9600 160.0000 1.0000
57.9800 158.0000 1.0000
58.0000 158.0000 1.0000
58.0200 159.0000 1.0000
58.0400 145.0000 1.0000
58.0600 138.0000 1.0000
58.0800 138.0000 1.0000
58.1000 140.0000 1.0000
58.1200 147.0000 1.0000
58.1400 140.0000 1.0000
58.1600 137.0000 1.0000
58.1800 141.0000 1.0000
58.2000 139.0000 1.0000
58.2200 132.0000 1.0000
58.2400 131.0000 1.0000
58.2600 149.0000 1.0000
58.2800 141.0000 1.0000
58.3000 146.0000 1.0000
58.3200 140.0000 1.0000
58.3400 147.0000 1.0000
58.3600 159.0000 1.0000
58.3800 173.0000 1.0000
58.4000 160.0000 1.0000
58.4200 177.0000 1.0000
58.4400 186.0000 1.0000
58.4600 178.0000 1.0000
58.4800 175.0000 1.0000
58.5000 171.0000 1.0000
58.5200 155.0000 1.0000
58.5400 164.0000 1.0000
58.5600 171.0000 1.0000
58.5800 189.0000 1.0000
58.6000 191.0000 1.0000
58.6200 201.0000 1.0000
58.6400 177.0000 1.0000
58.6600 171.0000 1.0000
58.6800 186.0000 1.0000
58.7000 176.0000 1.0000
58.7200 161.0000 1.0000
58.7400 147.0000 1.0000
58.7600 165.0000 1.0000
58.7800 150.0000 1.0000
58.8000 146.0000 1.0000
58.8200 158.0000 1.0000
58.8400 150.0000 1.0000
58.8600 134.0000 1.0000
58.8800 124.0000 1.0000
58.9000 125.0000 1.0000
58.9200 128.0000 1.0000
58.9400 124.0000 1.0000
58.9600 140.0000 1.0000
58.9800 143.0000 1.0000
59.0000 131.0000 1.0000
59.0200 146.0000 1.0000
59.0400 137.0000 1.0000
59.0600 151.0000 1.0000
59.0800 141.0000 1.0000
59.1000 151.0000 1.0000
59.1200 148.0000 1.0000
59.1400 141.0000 1.0000
59.1600 148.0000 1.0000
59.1800 124.0000 1.0000
59.2000 134.0000 1.0000
59.2200 157.0000 1.0000
59.2400 152.0000 1.0000
59.2600 133.0000 1.0000
59.2800 145.0000 1.0000
59.3000 179.0000 1.0000
59.3200 160.0000 1.0000
59.3400 165.0000 1.0000
59.3600 150.0000 1.0000
59.3800 196.0000 1.0000
59.4000 160.0000 1.0000
59.4200 171.0000 1.0000
59.4400 182.0000 1.0000
59.4600 193.0000 1.0000
59.4800 192.0000 1.0000
59.5000 178.0000 1.0000
59.5200 196.0000 1.0000
59.5400 195.0000 1.0000
59.5600 206.0000 1.0000
59.5800 215.0000 1.0000
59.6000 228.0000 1.0000
59.6200 227.0000 1.0000
59.6400 252.0000 1.0000
59.6600 253.0000 1.0000
59.6800 285.0000 1.0000
59.7000 293.0000 1.0000
59.7200 327.0000 1.0000
59.7400 364.0000 1.0000
59.7600 394.0000 1.0000
59.7800 430.0000 1.0000
59.8000 535.0000 1.0000
59.8200 619.0000 1.0000
59.8400 653.0000 1.0000
59.8600 725.0000 1.0000
59.8800 709.0000 1.0000
59.9000 708.0000 1.0000
59.9200 672.0000 1.0000
59.9400 633.0000 1.0000
59.9600 561.0000 1.0000
59.9800 522.0000 1.0000
60.0000 511.0000 1.0000
60.0200 498.0000 1.0000
60.0400 481.0000 1.0000
60.0600 496.0000 1.0000
60.0800 432.0000 1.0000
60.1000 368.0000 1.0000
60.1200 335.0000 1.0000
60.1400 282.0000 1.0000
60.1600 281.0000 1.0000
60.1800 219.0000 1.0000
60.2000 244.0000 1.0000
60.2200 222.0000 1.0000
60.2400 216.0000 1.0000
60.2600 215.0000 1.0000
60.2800 205.0000 1.0000
60.3000 222.0000 1.0000
60.3200 182.0000 1.0000
60.3400 182.0000 1.0000
60.3600 184.0000 1.0000
60.3800 206.0000 1.0000
60.4000 195.0000 1.0000
60.4200 182.0000 1.0000
60.4400 206.0000 1.0000
60.4600 197.0000 1.0000
60.4800 183.0000 1.0000
60.5000 186.0000 1.0000
60.5200 182.0000 1.0000
60.5400 199.0000 1.0000
60.5600 179.0000 1.0000
60.5800 184.0000 1.0000
60.6000 177.0000 1.0000
60.6200 182.0000 1.0000
60.6400 149.0000 1.0000
60.6600 184.0000 1.0000
60.6800 168.0000 1.0000
60.7000 174.0000 1.0000
60.7200 182.0000 1.0000
60.7400 162.0000 1.0000
60.7600 154.0000 1.0000
60.7800 179.0000 1.0000
60.8000 191.0000 1.0000
60.8200 176.0000 1.0000
60.8400 143.0000 1.0000
60.8600 153.0000 1.0000
60.8800 144.0000 1.0000
60.9000 147.0000 1.0000
60.9200 170.0000 1.0000
60.9400 174.0000 1.0000
60.9600 181.0000 1.0000
60.9800 226.0000 1.0000
61.0000 177.0000 1.0000
61.0200 201.0000 1.0000
61.0400 221.0000 1.0000
61.0600 206.0000 1.0000
61.0800 227.0000 1.0000
61.1000 229.0000 1.0000
61.1200 214.0000 1.0000
61.1400 230.0000 1.0000
61.1600 256.0000 1.0000
61.1800 290.0000 1.0000
61.2000 281.0000 1.0000
61.2200 256.0000 1.0000
61.2400 308.0000 1.0000
61.2600 271.0000 1.0000
61.2800 252.0000 1.0000
61.3000 246.0000 1.0000
61.3200 228.0000 1.0000
61.3400 213.0000 1.0000
61.3600 199.0000 1.0000
61.3800 216.0000 1.0000
61.4000 220.0000 1.0000
61.4200 200.0000 1.0000
61.4400 180.0000 1.0000
61.4600 183.0000 1.0000
61.4800 210.0000 1.0000
61.5000 206.0000 1.0000
61.5200 195.0000 1.0000
61.5400 210.0000 1.0000
61.5600 163.0000 1.0000
61.5800 171.0000 1.0000
61.6000 184.0000 1.0000
61.6200 197.0000 1.0000
61.6400 205.0000 1.0000
61.6600 188.0000 1.0000
61.6800 199.0000 1.0000
61.7000 194.0000 1.0000
61.7200 169.0000 1.0000
61.7400 182.0000 1.0000
61.7600 190.0000 1.0000
61.7800 183.0000 1.0000
61.8000 178.0000 1.0000
61.8200 203.0000 1.0000
61.8400 189.0000 1.0000
61.8600 180.0000 1.0000
61.8800 187.0000 1.0000
61.9000 177.0000 1.0000
61.9200 172.0000 1.0000
61.9400 217.0000 1.0000
61.9600 192.0000 1.0000
61.9800 166.0000 1.0000
62.0000 169.0000 1.0000
62.0200 185.0000 1.0000
62.0400 166.0000 1.0000
62.0600 192.0000 1.0000
62.0800 164.0000 1.0000
62.1000 186.0000 1.0000
62.1200 169.0000 1.0000
62.1400 166.0000 1.0000
62.1600 171.0000 1.0000
62.1800 159.0000 1.0000
62.2000 163.0000 1.0000
62.2200 170.0000 1.0000
62.2400 178.0000 1.0000
62.2600 160.0000 1.0000
62.2800 152.0000 1.0000
62.3000 189.0000 1.0000
62.3200 165.0000 1.0000
62.3400 145.0000 1.0000
62.3600 152.0000 1.0000
62.3800 178.0000 1.0000
62.4000 147.0000 1.0000
62.4200 156.0000 1.0000
62.4400 155.0000 1.0000
62.4600 171.0000 1.0000
62.4800 146.0000 1.0000
62.5000 165.0000 1.0000
62.5200 165.0000 1.0000
62.5400 161.0000 1.0000
62.5600 144.0000 1.0000
62.5800 164.0000 1.0000
62.6000 152.0000 1.0000
62.6200 150.0000 1.0000
62.6400 150.0000 1.0000
62.6600 139.0000 1.0000
62.6800 171.0000 1.0000
62.7000 162.0000 1.0000
62.7200 156.0000 1.0000
62.7400 167.0000 1.0000
62.7600 164.0000 1.0000
62.7800 166.0000 1.0000
62.8000 158.0000 1.0000
62.8200 157.0000 1.0000
62.8400 154.0000 1.0000
62.8600 162.0000 1.0000
62.8800 152.0000 1.0000
62.9000 149.0000 1.0000
62.9200 146.0000 1.0000
62.9400 167.0000 1.0000
62.9600 179.0000 1.0000
62.9800 171.0000 1.0000
63.0000 159.0000 1.0000
63.0200 172.0000 1.0000
63.0400 146.0000 1.0000
63.0600 162.0000 1.0000
63.0800 180.0000 1.0000
63.1000 180.0000 1.0000
63.1200 183.0000 1.0000
63.1400 147.0000 1.0000
63.1600 171.0000 1.0000
63.1800 155.0000 1.0000
63.2000 168.0000 1.0000
63.2200 173.0000 1.0000
63.2400 177.0000 1.0000
63.2600 173.0000 1.0000
63.2800 185.0000 1.0000
63.3000 166.0000 1.0000
63.3200 169.0000 1.0000
63.3400 190.0000 1.0000
63.3600 165.0000 1.0000
63.3800 152.0000 1.0000
63.4000 164.0000 1.0000
63.4200 201.0000 1.0000
63.4400 183.0000 1.0000
63.4600 176.0000 1.0000
63.4800 178.0000 1.0000
63.5000 201.0000 1.0000
63.5200 203.0000 1.0000
63.5400 186.0000 1.0000
63.5600 185.0000 1.0000
63.5800 188.0000 1.0000
63.6000 214.0000 1.0000
63.6200 198.0000 1.0000
63.6400 250.0000 1.0000
63.6600 234.0000 1.0000
63.6800 234.0000 1.0000
63.7000 247.0000 1.0000
63.7200 240.0000 1.0000
63.7400 227.0000 1.0000
63.7600 222.0000 1.0000
63.7800 237.0000 1.0000
63.8000 269.0000 1.0000
63.8200 246.0000 1.0000
63.8400 249.0000 1.0000
63.8600 280.0000 1.0000
63.8800 285.0000 1.0000
63.9000 277.0000 1.0000
63.9200 294.0000 1.0000
63.9400 304.0000 1.0000
63.9600 272.0000 1.0000
63.9800 277.0000 1.0000
64.0000 240.0000 1.0000
64.0200 265.0000 1.0000
64.0400 226.0000 1.0000
64.0600 221.0000 1.0000
64.0800 209.0000 1.0000
64.1000 206.0000 1.0000
64.1200 215.0000 1.0000
64.1400 215.0000 1.0000
64.1600 220.0000 1.0000
64.1800 205.0000 1.0000
64.2000 210.0000 1.0000
64.2200 193.0000 1.0000
64.2400 164.0000 1.0000
64.2600 163.0000 1.0000
64.2800 178.0000 1.0000
64.3000 156.0000 1.0000
64.3200 165.0000 1.0000
64.3400 166.0000 1.0000
64.3600 168.0000 1.0000
64.3800 148.0000 1.0000
64.4000 172.0000 1.0000
64.4200 161.0000 1.0000
64.4400 149.0000 1.0000
64.4600 150.0000 1.0000
64.4800 137.0000 1.0000
64.5000 154.0000 1.0000
64.5200 144.0000 1.0000
64.5400 143.0000 1.0000
64.5600 141.0000 1.0000
64.5800 125.0000 1.0000
64.6000 117.0000 1.0000
64.6200 132.0000 1.0000
64.6400 128.0000 1.0000
64.6600 134.0000 1.0000
64.6800 121.0000 1.0000
64.7000 123.0000 1.0000
64.7200 121.0000 1.0000
64.7400 127.0000 1.0000
64.7600 125.0000 1.0000
64.7800 132.0000 1.0000
64.8000 156.0000 1.0000
64.8200 154.0000 1.0000
64.8400 150.0000 1.0000
64.8600 135.0000 1.0000
64.8800 141.0000 1.0000
64.9000 136.0000 1.0000
64.9200 159.0000 1.0000
64.9400 135.0000 1.0000
64.9600 122.0000 1.0000
64.9800 122.0000 1.0000
65.0000 122.0000 1.0000
*RAS_INT_END
*RAS_DATA_END
