*RAS_DATA_START
*RAS_HEADER_START
*CORR_POS_DB_NAME "Angle Correction ASC6 SC WITH Mono_04082019"
*CORR_POS_GONIO_RADIUS ""
*CORR_POS_NODE_INDEX01 ""
*CORR_POS_NODE_INDEX02 ""
*CORR_POS_NODE_INDEX03 ""
*CORR_POS_NODE_INDEX04 ""
*CORR_POS_NODE_INDEX05 ""
*CORR_POS_NODE_INDEX06 ""
*CORR_POS_NODE_INDEX07 ""
*CORR_POS_NODE_INDEX08 ""
*CORR_POS_NODE_INDEX09 ""
*CORR_POS_NODE_INDEX10 ""
*CORR_POS_NODE_INDEX11 ""
*CORR_POS_NODE_LABEL01 "Si(111)"
*CORR_POS_NODE_LABEL02 "Si(220)"
*CORR_POS_NODE_LABEL03 "Si(311)"
*CORR_POS_NODE_LABEL04 "Si(400)"
*CORR_POS_NODE_LABEL05 "Si(331)"
*CORR_POS_NODE_LABEL06 "Si(422)"
*CORR_POS_NODE_LABEL07 "Si(511)"
*CORR_POS_NODE_LABEL08 "Si(440)"
*CORR_POS_NODE_LABEL09 "Si(531)"
*CORR_POS_NODE_LABEL10 "Si(620)"
*CORR_POS_NODE_LABEL11 "Si(533)"
*CORR_POS_NODE_POS_CALC01 "28.377"
*CORR_POS_NODE_POS_CALC02 "47.2506"
*CORR_POS_NODE_POS_CALC03 "56.0725"
*CORR_POS_NODE_POS_CALC04 "69.0822"
*CORR_POS_NODE_POS_CALC05 "76.3294"
*CORR_POS_NODE_POS_CALC06 "87.9853"
*CORR_POS_NODE_POS_CALC07 "94.9091"
*CORR_POS_NODE_POS_CALC08 "106.668"
*CORR_POS_NODE_POS_CALC09 "114.054"
*CORR_POS_NODE_POS_CALC10 "127.511"
*CORR_POS_NODE_POS_CALC11 "136.864"
*CORR_POS_NODE_POS_MEAS01 "28.5058"
*CORR_POS_NODE_POS_MEAS02 "47.345"
*CORR_POS_NODE_POS_MEAS03 "56.1421"
*CORR_POS_NODE_POS_MEAS04 "69.1304"
*CORR_POS_NODE_POS_MEAS05 "76.366"
*CORR_POS_NODE_POS_MEAS06 "88.0213"
*CORR_POS_NODE_POS_MEAS07 "94.9406"
*CORR_POS_NODE_POS_MEAS08 "106.689"
*CORR_POS_NODE_POS_MEAS09 "114.065"
*CORR_POS_NODE_POS_MEAS10 "127.518"
*CORR_POS_NODE_POS_MEAS11 "136.869"
*CORR_POS_OPT_ATTR "集中法"
*CORR_POS_PARAM_MU ""
*CORR_POS_PARAM_PL ""
*CORR_POS_SEMODEL_TYPE "0"
*CORR_POS_STANDARD_TYPE ""
*CORR_POS_VALUE_ANALYZER "None"
*CORR_POS_VALUE_CMONO "None"
*CORR_POS_VALUE_IMONO "None"
*CORR_POS_VALUE_IS "1.250deg"
*CORR_POS_VALUE_ISL "10.0mm"
*CORR_POS_VALUE_ISOLLER "5.0deg"
*CORR_POS_VALUE_RS1 "1.250deg"
*CORR_POS_VALUE_RS2 "0.3mm"
*CORR_POS_VALUE_RSOLLER "5.0deg"
*CORR_POS_XG_FOCUS_L ""
*CORR_POS_XG_WAVE_TYPE ""
*CORR_POS_XG_WAVE_VALUE ""
*DISP_FMT_X "%.2f"
*DISP_FMT_Y "%.0f"
*DISP_FULLSCALE "6277.2000000000"
*DISP_LINE_COLOR "255.0000000000"
*DISP_LINE_STYLE "0.0000000000"
*DISP_LINE_WIDTH "0.2500000000"
*DISP_NOTE "Collected Data-24"
*DISP_OFFSET_Y "0.0000000000"
*DISP_PEAKSEARCH_UNIT_Y "CPS"
*DISP_RANGE_BOTTOM "0.0000000000"
*DISP_RANGE_LEFT "5.0000000000"
*DISP_RANGE_LOGCUTOFF "0.0100000000"
*DISP_RANGE_RIGHT "65.0000000000"
*DISP_RANGE_TOP "6277.2000000000"
*DISP_SCALE_MODE_Y "0.0000000000"
*DISP_TAB_NAME "Theta/2-Theta"
*DISP_TITLE_Y "Intensity"
*DISP_UNIT_Y "CPS"
*DISP_WINDOW_NAME "MSG_MACROENGINE"
*FILE_COMMENT " "
*FILE_MD5 ""
*FILE_MEMO " "
*FILE_OPERATOR "administrator"
*FILE_PART_ID "MEAS_PBEA_00223"
*FILE_SAMPLE " "
*FILE_TYPE "RAS_RAW"
*FILE_USERGROUP "System Manager"
*FILE_VERSION "1.0000000000"
*HW_ATTACHMENT_ID "ATT1031"
*HW_ATTACHMENT_NAME "6サンプルチェンジャ|ASC-6"
*HW_COUNTER_ID-0 "CUT0021"
*HW_COUNTER_ID-1 "CUT0020"
*HW_COUNTER_ID-2 "CUT0020"
*HW_COUNTER_ID-3 "CMC0021"
*HW_COUNTER_NAME-0 "SC-70|SC-70"
*HW_COUNTER_NAME-1 "None|None"
*HW_COUNTER_NAME-2 "None|None"
*HW_COUNTER_NAME-3 "検出器モノクロメータ|Detector monochromator"
*HW_COUNTER_SELECT_NAME "SC-70|SC-70"
*HW_ECP_HV "671.5000000000"
*HW_ECP_HV_UNIT "V"
*HW_GONIOMETER_ID "GON0070"
*HW_GONIOMETER_NAME "MiniFlex 300/600|MiniFlex 300/600"
*HW_GONIOMETER_RADIUS-0 "79.0"
*HW_GONIOMETER_RADIUS-1 "91.5"
*HW_GONIOMETER_RADIUS-2 "150.0"
*HW_GONIOMETER_RADIUS-3 "0"
*HW_GONIOMETER_RADIUS-4 "103.4"
*HW_GONIOMETER_RADIUS-5 "150.0"
*HW_GONIOMETER_RADIUS-6 "46.6"
*HW_GONIOMETER_RADIUS-7 "160.0"
*HW_I_OPT_ID-0 "ISL0021"
*HW_I_OPT_ID-1 "ISO0021"
*HW_I_OPT_NAME-0 "発散スリット|Divergence slit"
*HW_I_OPT_NAME-1 "入射平行スリット|Incident parallel slit"
*HW_R_ATTENUATER_AUTOMODE "0"
*HW_R_OPT_ID-0 "RSS0021"
*HW_R_OPT_ID-1 "RSO0021"
*HW_R_OPT_ID-2 "RRS0021"
*HW_R_OPT_NAME-0 "散乱スリット|Scattering slit"
*HW_R_OPT_NAME-1 "受光平行スリット|Receiving soller slit"
*HW_R_OPT_NAME-2 "受光スリット|Receiving slit"
*HW_SAMPLE_HOLDER_ID "SMP0000"
*HW_SAMPLE_HOLDER_NAME "無し|None"
*HW_XG_CURRENT_MAX "15"
*HW_XG_CURRENT_MIN "2"
*HW_XG_CURRENT_RESOLUTION "1"
*HW_XG_CURRENT_UNIT "mA"
*HW_XG_FOCUS "1mm x 10mm"
*HW_XG_FOCUS_TYPE "Normal"
*HW_XG_ID "1060"
*HW_XG_NAME "300W/600W 封入管-B|300W/600W Sealed tube-B"
*HW_XG_TARGET_ATOMIC_NUMBER "29.0000000000"
*HW_XG_TARGET_NAME "Cu"
*HW_XG_TYPE "Hermetic"
*HW_XG_VOLTAGE_MAX "40"
*HW_XG_VOLTAGE_MIN "20"
*HW_XG_VOLTAGE_RESOLUTION "1"
*HW_XG_VOLTAGE_UNIT "kV"
*HW_XG_WATT_MAX "0.600"
*HW_XG_WATT_UNIT "kW"
*HW_XG_WAVE_LENGTH_ALPHA1 "1.540593"
*HW_XG_WAVE_LENGTH_ALPHA2 "1.544414"
*HW_XG_WAVE_LENGTH_BETA "1.392250"
*MEAS_COND_AXIS_NAME-0 "Theta/2-Theta"
*MEAS_COND_AXIS_NAME-1 "Spin"
*MEAS_COND_AXIS_NAME-2 "Change"
*MEAS_COND_AXIS_NAME-3 "Soller(inc.)"
*MEAS_COND_AXIS_NAME-4 "IHS"
*MEAS_COND_AXIS_NAME-5 "DS"
*MEAS_COND_AXIS_NAME-6 "SS"
*MEAS_COND_AXIS_NAME-7 "Soller(rec.)"
*MEAS_COND_AXIS_NAME-8 "RS"
*MEAS_COND_AXIS_NAME-9 "Filter"
*MEAS_COND_AXIS_NAME-10 "Monochromator"
*MEAS_COND_AXIS_NAME-11 "HV"
*MEAS_COND_AXIS_NAME-12 "PHA"
*MEAS_COND_AXIS_NAME_INTERNAL-0 "TwoThetaTheta"
*MEAS_COND_AXIS_NAME_INTERNAL-1 "Spin"
*MEAS_COND_AXIS_NAME_INTERNAL-2 "Change"
*MEAS_COND_AXIS_NAME_INTERNAL-3 "IncidentSollerSlit"
*MEAS_COND_AXIS_NAME_INTERNAL-4 "IncidentAxdSlit"
*MEAS_COND_AXIS_NAME_INTERNAL-5 "IncidentSlitBox"
*MEAS_COND_AXIS_NAME_INTERNAL-6 "ReceivingSlitBox1"
*MEAS_COND_AXIS_NAME_INTERNAL-7 "ReceivingSollerSlit"
*MEAS_COND_AXIS_NAME_INTERNAL-8 "ReceivingSlitBox2"
*MEAS_COND_AXIS_NAME_INTERNAL-9 "Filter"
*MEAS_COND_AXIS_NAME_INTERNAL-10 "CounterMonochromator"
*MEAS_COND_AXIS_NAME_INTERNAL-11 "HV"
*MEAS_COND_AXIS_NAME_INTERNAL-12 "PHA"
*MEAS_COND_AXIS_NAME_MAGICNO-0 "268632064.0000000000"
*MEAS_COND_AXIS_NAME_MAGICNO-1 "16842752.0000000000"
*MEAS_COND_AXIS_NAME_MAGICNO-2 "16842752.0000000000"
*MEAS_COND_AXIS_NAME_MAGICNO-3 "20971521.0000000000"
*MEAS_COND_AXIS_NAME_MAGICNO-4 "22020097.0000000000"
*MEAS_COND_AXIS_NAME_MAGICNO-5 "22020097.0000000000"
*MEAS_COND_AXIS_NAME_MAGICNO-6 "23068673.0000000000"
*MEAS_COND_AXIS_NAME_MAGICNO-7 "20971521.0000000000"
*MEAS_COND_AXIS_NAME_MAGICNO-8 "23068673.0000000000"
*MEAS_COND_AXIS_NAME_MAGICNO-9 "20971521.0000000000"
*MEAS_COND_AXIS_NAME_MAGICNO-10 "20971521.0000000000"
*MEAS_COND_AXIS_NAME_MAGICNO-11 "0.0000000000"
*MEAS_COND_AXIS_NAME_MAGICNO-12 "0.0000000000"
*MEAS_COND_AXIS_OFFSET-0 "0.0000000000"
*MEAS_COND_AXIS_OFFSET-1 "-"
*MEAS_COND_AXIS_OFFSET-2 "-"
*MEAS_COND_AXIS_OFFSET-3 "-"
*MEAS_COND_AXIS_OFFSET-4 "-"
*MEAS_COND_AXIS_OFFSET-5 "-"
*MEAS_COND_AXIS_OFFSET-6 "-"
*MEAS_COND_AXIS_OFFSET-7 "-"
*MEAS_COND_AXIS_OFFSET-8 "-"
*MEAS_COND_AXIS_OFFSET-9 "-"
*MEAS_COND_AXIS_OFFSET-10 "-"
*MEAS_COND_AXIS_OFFSET-11 "-"
*MEAS_COND_AXIS_OFFSET-12 "-"
*MEAS_COND_AXIS_POSITION-0 "65.0000000000"
*MEAS_COND_AXIS_POSITION-1 "0.0000000000"
*MEAS_COND_AXIS_POSITION-2 "2.0000000000"
*MEAS_COND_AXIS_POSITION-3 "5.0deg"
*MEAS_COND_AXIS_POSITION-4 "10.0mm"
*MEAS_COND_AXIS_POSITION-5 "1.250deg"
*MEAS_COND_AXIS_POSITION-6 "1.250deg"
*MEAS_COND_AXIS_POSITION-7 "5.0deg"
*MEAS_COND_AXIS_POSITION-8 "0.3mm"
*MEAS_COND_AXIS_POSITION-9 "None"
*MEAS_COND_AXIS_POSITION-10 "Bent"
*MEAS_COND_AXIS_POSITION-11 "671.5000000000"
*MEAS_COND_AXIS_POSITION-12 "551.2500000000"
*MEAS_COND_AXIS_UNIT-0 "deg"
*MEAS_COND_AXIS_UNIT-1 ""
*MEAS_COND_AXIS_UNIT-2 ""
*MEAS_COND_AXIS_UNIT-3 ""
*MEAS_COND_AXIS_UNIT-4 ""
*MEAS_COND_AXIS_UNIT-5 ""
*MEAS_COND_AXIS_UNIT-6 ""
*MEAS_COND_AXIS_UNIT-7 ""
*MEAS_COND_AXIS_UNIT-8 ""
*MEAS_COND_AXIS_UNIT-9 ""
*MEAS_COND_AXIS_UNIT-10 ""
*MEAS_COND_AXIS_UNIT-11 "V"
*MEAS_COND_AXIS_UNIT-12 "mV"
*MEAS_COND_CORRECTION_SLIT_COUNTERMONO "None"
*MEAS_COND_CORRECTION_SLIT_DS "1.250deg"
*MEAS_COND_CORRECTION_SLIT_FILTER "None"
*MEAS_COND_CORRECTION_SLIT_IHS "10.0mm"
*MEAS_COND_CORRECTION_SLIT_RS "0.3mm"
*MEAS_COND_CORRECTION_SLIT_SOLLER_INC "5.0deg"
*MEAS_COND_CORRECTION_SLIT_SOLLER_REC "5.0deg"
*MEAS_COND_CORRECTION_SLIT_SS "1.250deg"
*MEAS_COND_COUNTER_CNTLOSS_CORR "0.0000000000"
*MEAS_COND_COUNTER_PHABASE "551.2500000000"
*MEAS_COND_COUNTER_PHAWINDOW "926.2500000000"
*MEAS_COND_COUNTER_PHA_UNIT "mV"
*MEAS_COND_COUNTER_TAUDIFF "0.2500000000"
*MEAS_COND_COUNTER_TAUINT "0.7500000000"
*MEAS_COND_IRRADIATION_MODE "OFF"
*MEAS_COND_IRRADIATION_WIDTH ""
*MEAS_COND_OPT_ATTR " "
*MEAS_COND_OPT_NAME ""
*MEAS_COND_UNSYMMETRIC_MODE "OFF"
*MEAS_COND_XG_CURRENT "15.0000000000"
*MEAS_COND_XG_VOLTAGE "40.0000000000"
*MEAS_COND_XG_WAVE_TYPE "Ka"
*MEAS_DATA_COUNT "3001.0000000000"
*MEAS_SCAN_AXIS_X "Theta/2-Theta"
*MEAS_SCAN_AXIS_X_INTERNAL "TwoThetaTheta"
*MEAS_SCAN_END_TIME "06/17/25 21:13:04"
*MEAS_SCAN_MODE "STEP"
*MEAS_SCAN_MONITOR "0"
*MEAS_SCAN_RESOLUTION_X "0.0025"
*MEAS_SCAN_SPEED "2.00"
*MEAS_SCAN_SPEED_UNIT "sec."
*MEAS_SCAN_SPEED_USER "2.00"
*MEAS_SCAN_START "5.0000000000"
*MEAS_SCAN_START_TIME "06/17/25 19:27:48"
*MEAS_SCAN_STEP "0.0200000000"
*MEAS_SCAN_STOP "65.0000000000"
*MEAS_SCAN_UNIT_X "deg"
*MEAS_SCAN_UNIT_Y "counts"
*SLIT_SYSTEM "0"
*RAS_HEADER_END
*RAS_INT_START
5.0000 1008.0000 1.0000
5.0200 1112.0000 1.0000
5.0400 963.0000 1.0000
5.0600 912.0000 1.0000
5.0800 937.0000 1.0000
5.1000 974.0000 1.0000
5.1200 956.0000 1.0000
5.1400 905.0000 1.0000
5.1600 897.0000 1.0000
5.1800 919.0000 1.0000
5.2000 851.0000 1.0000
5.2200 823.0000 1.0000
5.2400 816.0000 1.0000
5.2600 806.0000 1.0000
5.2800 870.0000 1.0000
5.3000 772.0000 1.0000
5.3200 885.0000 1.0000
5.3400 860.0000 1.0000
5.3600 864.0000 1.0000
5.3800 889.0000 1.0000
5.4000 958.0000 1.0000
5.4200 910.0000 1.0000
5.4400 965.0000 1.0000
5.4600 906.0000 1.0000
5.4800 828.0000 1.0000
5.5000 818.0000 1.0000
5.5200 765.0000 1.0000
5.5400 903.0000 1.0000
5.5600 826.0000 1.0000
5.5800 810.0000 1.0000
5.6000 800.0000 1.0000
5.6200 847.0000 1.0000
5.6400 841.0000 1.0000
5.6600 812.0000 1.0000
5.6800 763.0000 1.0000
5.7000 806.0000 1.0000
5.7200 888.0000 1.0000
5.7400 859.0000 1.0000
5.7600 849.0000 1.0000
5.7800 911.0000 1.0000
5.8000 892.0000 1.0000
5.8200 812.0000 1.0000
5.8400 796.0000 1.0000
5.8600 822.0000 1.0000
5.8800 826.0000 1.0000
5.9000 874.0000 1.0000
5.9200 839.0000 1.0000
5.9400 814.0000 1.0000
5.9600 786.0000 1.0000
5.9800 918.0000 1.0000
6.0000 903.0000 1.0000
6.0200 866.0000 1.0000
6.0400 890.0000 1.0000
6.0600 866.0000 1.0000
6.0800 829.0000 1.0000
6.1000 909.0000 1.0000
6.1200 989.0000 1.0000
6.1400 900.0000 1.0000
6.1600 900.0000 1.0000
6.1800 940.0000 1.0000
6.2000 931.0000 1.0000
6.2200 871.0000 1.0000
6.2400 841.0000 1.0000
6.2600 874.0000 1.0000
6.2800 842.0000 1.0000
6.3000 803.0000 1.0000
6.3200 777.0000 1.0000
6.3400 816.0000 1.0000
6.3600 799.0000 1.0000
6.3800 729.0000 1.0000
6.4000 680.0000 1.0000
6.4200 730.0000 1.0000
6.4400 777.0000 1.0000
6.4600 749.0000 1.0000
6.4800 778.0000 1.0000
6.5000 753.0000 1.0000
6.5200 739.0000 1.0000
6.5400 660.0000 1.0000
6.5600 712.0000 1.0000
6.5800 712.0000 1.0000
6.6000 685.0000 1.0000
6.6200 725.0000 1.0000
6.6400 706.0000 1.0000
6.6600 693.0000 1.0000
6.6800 674.0000 1.0000
6.7000 652.0000 1.0000
6.7200 673.0000 1.0000
6.7400 707.0000 1.0000
6.7600 721.0000 1.0000
6.7800 683.0000 1.0000
6.8000 648.0000 1.0000
6.8200 660.0000 1.0000
6.8400 674.0000 1.0000
6.8600 637.0000 1.0000
6.8800 627.0000 1.0000
6.9000 636.0000 1.0000
6.9200 591.0000 1.0000
6.9400 614.0000 1.0000
6.9600 641.0000 1.0000
6.9800 618.0000 1.0000
7.0000 598.0000 1.0000
7.0200 599.0000 1.0000
7.0400 597.0000 1.0000
7.0600 587.0000 1.0000
7.0800 631.0000 1.0000
7.1000 642.0000 1.0000
7.1200 656.0000 1.0000
7.1400 644.0000 1.0000
7.1600 582.0000 1.0000
7.1800 583.0000 1.0000
7.2000 597.0000 1.0000
7.2200 569.0000 1.0000
7.2400 521.0000 1.0000
7.2600 538.0000 1.0000
7.2800 570.0000 1.0000
7.3000 581.0000 1.0000
7.3200 618.0000 1.0000
7.3400 590.0000 1.0000
7.3600 602.0000 1.0000
7.3800 630.0000 1.0000
7.4000 588.0000 1.0000
7.4200 607.0000 1.0000
7.4400 610.0000 1.0000
7.4600 548.0000 1.0000
7.4800 532.0000 1.0000
7.5000 538.0000 1.0000
7.5200 561.0000 1.0000
7.5400 582.0000 1.0000
7.5600 578.0000 1.0000
7.5800 579.0000 1.0000
7.6000 538.0000 1.0000
7.6200 534.0000 1.0000
7.6400 553.0000 1.0000
7.6600 539.0000 1.0000
7.6800 540.0000 1.0000
7.7000 541.0000 1.0000
7.7200 525.0000 1.0000
7.7400 495.0000 1.0000
7.7600 503.0000 1.0000
7.7800 516.0000 1.0000
7.8000 539.0000 1.0000
7.8200 549.0000 1.0000
7.8400 541.0000 1.0000
7.8600 542.0000 1.0000
7.8800 567.0000 1.0000
7.9000 570.0000 1.0000
7.9200 585.0000 1.0000
7.9400 628.0000 1.0000
7.9600 596.0000 1.0000
7.9800 569.0000 1.0000
8.0000 546.0000 1.0000
8.0200 538.0000 1.0000
8.0400 551.0000 1.0000
8.0600 570.0000 1.0000
8.0800 592.0000 1.0000
8.1000 586.0000 1.0000
8.1200 559.0000 1.0000
8.1400 574.0000 1.0000
8.1600 584.0000 1.0000
8.1800 571.0000 1.0000
8.2000 588.0000 1.0000
8.2200 582.0000 1.0000
8.2400 590.0000 1.0000
8.2600 627.0000 1.0000
8.2800 634.0000 1.0000
8.3000 554.0000 1.0000
8.3200 555.0000 1.0000
8.3400 614.0000 1.0000
8.3600 621.0000 1.0000
8.3800 673.0000 1.0000
8.4000 703.0000 1.0000
8.4200 723.0000 1.0000
8.4400 713.0000 1.0000
8.4600 698.0000 1.0000
8.4800 685.0000 1.0000
8.5000 767.0000 1.0000
8.5200 765.0000 1.0000
8.5400 768.0000 1.0000
8.5600 788.0000 1.0000
8.5800 915.0000 1.0000
8.6000 947.0000 1.0000
8.6200 889.0000 1.0000
8.6400 958.0000 1.0000
8.6600 1062.0000 1.0000
8.6800 1001.0000 1.0000
8.7000 954.0000 1.0000
8.7200 887.0000 1.0000
8.7400 874.0000 1.0000
8.7600 821.0000 1.0000
8.7800 773.0000 1.0000
8.8000 637.0000 1.0000
8.8200 650.0000 1.0000
8.8400 605.0000 1.0000
8.8600 559.0000 1.0000
8.8800 511.0000 1.0000
8.9000 418.0000 1.0000
8.9200 457.0000 1.0000
8.9400 439.0000 1.0000
8.9600 411.0000 1.0000
8.9800 406.0000 1.0000
9.0000 384.0000 1.0000
9.0200 394.0000 1.0000
9.0400 391.0000 1.0000
9.0600 380.0000 1.0000
9.0800 391.0000 1.0000
9.1000 351.0000 1.0000
9.1200 350.0000 1.0000
9.1400 378.0000 1.0000
9.1600 365.0000 1.0000
9.1800 379.0000 1.0000
9.2000 351.0000 1.0000
9.2200 347.0000 1.0000
9.2400 352.0000 1.0000
9.2600 357.0000 1.0000
9.2800 352.0000 1.0000
9.3000 334.0000 1.0000
9.3200 337.0000 1.0000
9.3400 296.0000 1.0000
9.3600 305.0000 1.0000
9.3800 337.0000 1.0000
9.4000 318.0000 1.0000
9.4200 331.0000 1.0000
9.4400 285.0000 1.0000
9.4600 288.0000 1.0000
9.4800 274.0000 1.0000
9.5000 319.0000 1.0000
9.5200 306.0000 1.0000
9.5400 339.0000 1.0000
9.5600 317.0000 1.0000
9.5800 351.0000 1.0000
9.6000 387.0000 1.0000
9.6200 363.0000 1.0000
9.6400 333.0000 1.0000
9.6600 366.0000 1.0000
9.6800 344.0000 1.0000
9.7000 320.0000 1.0000
9.7200 317.0000 1.0000
9.7400 297.0000 1.0000
9.7600 308.0000 1.0000
9.7800 275.0000 1.0000
9.8000 275.0000 1.0000
9.8200 246.0000 1.0000
9.8400 264.0000 1.0000
9.8600 254.0000 1.0000
9.8800 242.0000 1.0000
9.9000 313.0000 1.0000
9.9200 266.0000 1.0000
9.9400 259.0000 1.0000
9.9600 283.0000 1.0000
9.9800 333.0000 1.0000
10.0000 284.0000 1.0000
10.0200 326.0000 1.0000
10.0400 313.0000 1.0000
10.0600 299.0000 1.0000
10.0800 306.0000 1.0000
10.1000 353.0000 1.0000
10.1200 312.0000 1.0000
10.1400 315.0000 1.0000
10.1600 405.0000 1.0000
10.1800 455.0000 1.0000
10.2000 400.0000 1.0000
10.2200 459.0000 1.0000
10.2400 509.0000 1.0000
10.2600 565.0000 1.0000
10.2800 586.0000 1.0000
10.3000 697.0000 1.0000
10.3200 715.0000 1.0000
10.3400 871.0000 1.0000
10.3600 864.0000 1.0000
10.3800 908.0000 1.0000
10.4000 823.0000 1.0000
10.4200 725.0000 1.0000
10.4400 596.0000 1.0000
10.4600 500.0000 1.0000
10.4800 398.0000 1.0000
10.5000 383.0000 1.0000
10.5200 354.0000 1.0000
10.5400 303.0000 1.0000
10.5600 278.0000 1.0000
10.5800 269.0000 1.0000
10.6000 263.0000 1.0000
10.6200 215.0000 1.0000
10.6400 228.0000 1.0000
10.6600 244.0000 1.0000
10.6800 229.0000 1.0000
10.7000 185.0000 1.0000
10.7200 190.0000 1.0000
10.7400 219.0000 1.0000
10.7600 212.0000 1.0000
10.7800 227.0000 1.0000
10.8000 185.0000 1.0000
10.8200 197.0000 1.0000
10.8400 236.0000 1.0000
10.8600 186.0000 1.0000
10.8800 192.0000 1.0000
10.9000 175.0000 1.0000
10.9200 211.0000 1.0000
10.9400 159.0000 1.0000
10.9600 186.0000 1.0000
10.9800 198.0000 1.0000
11.0000 167.0000 1.0000
11.0200 176.0000 1.0000
11.0400 203.0000 1.0000
11.0600 211.0000 1.0000
11.0800 187.0000 1.0000
11.1000 202.0000 1.0000
11.1200 222.0000 1.0000
11.1400 190.0000 1.0000
11.1600 171.0000 1.0000
11.1800 177.0000 1.0000
11.2000 190.0000 1.0000
11.2200 203.0000 1.0000
11.2400 245.0000 1.0000
11.2600 198.0000 1.0000
11.2800 174.0000 1.0000
11.3000 230.0000 1.0000
11.3200 195.0000 1.0000
11.3400 191.0000 1.0000
11.3600 160.0000 1.0000
11.3800 182.0000 1.0000
11.4000 194.0000 1.0000
11.4200 198.0000 1.0000
11.4400 172.0000 1.0000
11.4600 162.0000 1.0000
11.4800 178.0000 1.0000
11.5000 172.0000 1.0000
11.5200 166.0000 1.0000
11.5400 147.0000 1.0000
11.5600 181.0000 1.0000
11.5800 174.0000 1.0000
11.6000 152.0000 1.0000
11.6200 164.0000 1.0000
11.6400 167.0000 1.0000
11.6600 154.0000 1.0000
11.6800 181.0000 1.0000
11.7000 192.0000 1.0000
11.7200 219.0000 1.0000
11.7400 194.0000 1.0000
11.7600 161.0000 1.0000
11.7800 183.0000 1.0000
11.8000 147.0000 1.0000
11.8200 155.0000 1.0000
11.8400 164.0000 1.0000
11.8600 189.0000 1.0000
11.8800 176.0000 1.0000
11.9000 157.0000 1.0000
11.9200 157.0000 1.0000
11.9400 183.0000 1.0000
11.9600 194.0000 1.0000
11.9800 184.0000 1.0000
12.0000 179.0000 1.0000
12.0200 160.0000 1.0000
12.0400 168.0000 1.0000
12.0600 172.0000 1.0000
12.0800 183.0000 1.0000
12.1000 192.0000 1.0000
12.1200 201.0000 1.0000
12.1400 182.0000 1.0000
12.1600 206.0000 1.0000
12.1800 192.0000 1.0000
12.2000 224.0000 1.0000
12.2200 214.0000 1.0000
12.2400 217.0000 1.0000
12.2600 221.0000 1.0000
12.2800 230.0000 1.0000
12.3000 240.0000 1.0000
12.3200 238.0000 1.0000
12.3400 277.0000 1.0000
12.3600 277.0000 1.0000
12.3800 287.0000 1.0000
12.4000 315.0000 1.0000
12.4200 307.0000 1.0000
12.4400 299.0000 1.0000
12.4600 285.0000 1.0000
12.4800 270.0000 1.0000
12.5000 242.0000 1.0000
12.5200 217.0000 1.0000
12.5400 228.0000 1.0000
12.5600 188.0000 1.0000
12.5800 167.0000 1.0000
12.6000 163.0000 1.0000
12.6200 156.0000 1.0000
12.6400 185.0000 1.0000
12.6600 164.0000 1.0000
12.6800 150.0000 1.0000
12.7000 147.0000 1.0000
12.7200 168.0000 1.0000
12.7400 170.0000 1.0000
12.7600 152.0000 1.0000
12.7800 132.0000 1.0000
12.8000 170.0000 1.0000
12.8200 174.0000 1.0000
12.8400 163.0000 1.0000
12.8600 145.0000 1.0000
12.8800 158.0000 1.0000
12.9000 165.0000 1.0000
12.9200 158.0000 1.0000
12.9400 147.0000 1.0000
12.9600 144.0000 1.0000
12.9800 157.0000 1.0000
13.0000 168.0000 1.0000
13.0200 161.0000 1.0000
13.0400 145.0000 1.0000
13.0600 150.0000 1.0000
13.0800 149.0000 1.0000
13.1000 156.0000 1.0000
13.1200 141.0000 1.0000
13.1400 145.0000 1.0000
13.1600 168.0000 1.0000
13.1800 150.0000 1.0000
13.2000 147.0000 1.0000
13.2200 142.0000 1.0000
13.2400 146.0000 1.0000
13.2600 135.0000 1.0000
13.2800 151.0000 1.0000
13.3000 151.0000 1.0000
13.3200 169.0000 1.0000
13.3400 167.0000 1.0000
13.3600 179.0000 1.0000
13.3800 165.0000 1.0000
13.4000 168.0000 1.0000
13.4200 176.0000 1.0000
13.4400 187.0000 1.0000
13.4600 200.0000 1.0000
13.4800 187.0000 1.0000
13.5000 208.0000 1.0000
13.5200 234.0000 1.0000
13.5400 247.0000 1.0000
13.5600 248.0000 1.0000
13.5800 237.0000 1.0000
13.6000 260.0000 1.0000
13.6200 278.0000 1.0000
13.6400 252.0000 1.0000
13.6600 275.0000 1.0000
13.6800 305.0000 1.0000
13.7000 339.0000 1.0000
13.7200 346.0000 1.0000
13.7400 384.0000 1.0000
13.7600 355.0000 1.0000
13.7800 375.0000 1.0000
13.8000 389.0000 1.0000
13.8200 363.0000 1.0000
13.8400 318.0000 1.0000
13.8600 290.0000 1.0000
13.8800 247.0000 1.0000
13.9000 221.0000 1.0000
13.9200 184.0000 1.0000
13.9400 152.0000 1.0000
13.9600 157.0000 1.0000
13.9800 158.0000 1.0000
14.0000 159.0000 1.0000
14.0200 147.0000 1.0000
14.0400 129.0000 1.0000
14.0600 120.0000 1.0000
14.0800 122.0000 1.0000
14.1000 135.0000 1.0000
14.1200 125.0000 1.0000
14.1400 135.0000 1.0000
14.1600 152.0000 1.0000
14.1800 150.0000 1.0000
14.2000 137.0000 1.0000
14.2200 133.0000 1.0000
14.2400 126.0000 1.0000
14.2600 125.0000 1.0000
14.2800 122.0000 1.0000
14.3000 115.0000 1.0000
14.3200 129.0000 1.0000
14.3400 119.0000 1.0000
14.3600 104.0000 1.0000
14.3800 121.0000 1.0000
14.4000 125.0000 1.0000
14.4200 127.0000 1.0000
14.4400 128.0000 1.0000
14.4600 117.0000 1.0000
14.4800 124.0000 1.0000
14.5000 129.0000 1.0000
14.5200 125.0000 1.0000
14.5400 116.0000 1.0000
14.5600 122.0000 1.0000
14.5800 123.0000 1.0000
14.6000 118.0000 1.0000
14.6200 123.0000 1.0000
14.6400 114.0000 1.0000
14.6600 117.0000 1.0000
14.6800 138.0000 1.0000
14.7000 139.0000 1.0000
14.7200 128.0000 1.0000
14.7400 131.0000 1.0000
14.7600 150.0000 1.0000
14.7800 151.0000 1.0000
14.8000 145.0000 1.0000
14.8200 182.0000 1.0000
14.8400 189.0000 1.0000
14.8600 166.0000 1.0000
14.8800 167.0000 1.0000
14.9000 175.0000 1.0000
14.9200 172.0000 1.0000
14.9400 189.0000 1.0000
14.9600 191.0000 1.0000
14.9800 171.0000 1.0000
15.0000 181.0000 1.0000
15.0200 182.0000 1.0000
15.0400 159.0000 1.0000
15.0600 139.0000 1.0000
15.0800 147.0000 1.0000
15.1000 160.0000 1.0000
15.1200 140.0000 1.0000
15.1400 127.0000 1.0000
15.1600 130.0000 1.0000
15.1800 126.0000 1.0000
15.2000 124.0000 1.0000
15.2200 128.0000 1.0000
15.2400 124.0000 1.0000
15.2600 119.0000 1.0000
15.2800 116.0000 1.0000
15.3000 116.0000 1.0000
15.3200 121.0000 1.0000
15.3400 107.0000 1.0000
15.3600 107.0000 1.0000
15.3800 114.0000 1.0000
15.4000 112.0000 1.0000
15.4200 119.0000 1.0000
15.4400 119.0000 1.0000
15.4600 116.0000 1.0000
15.4800 121.0000 1.0000
15.5000 120.0000 1.0000
15.5200 125.0000 1.0000
15.5400 127.0000 1.0000
15.5600 120.0000 1.0000
15.5800 120.0000 1.0000
15.6000 121.0000 1.0000
15.6200 134.0000 1.0000
15.6400 140.0000 1.0000
15.6600 129.0000 1.0000
15.6800 143.0000 1.0000
15.7000 157.0000 1.0000
15.7200 148.0000 1.0000
15.7400 127.0000 1.0000
15.7600 126.0000 1.0000
15.7800 140.0000 1.0000
15.8000 137.0000 1.0000
15.8200 131.0000 1.0000
15.8400 109.0000 1.0000
15.8600 100.0000 1.0000
15.8800 113.0000 1.0000
15.9000 112.0000 1.0000
15.9200 121.0000 1.0000
15.9400 135.0000 1.0000
15.9600 122.0000 1.0000
15.9800 122.0000 1.0000
16.0000 121.0000 1.0000
16.0200 117.0000 1.0000
16.0400 112.0000 1.0000
16.0600 112.0000 1.0000
16.0800 109.0000 1.0000
16.1000 107.0000 1.0000
16.1200 110.0000 1.0000
16.1400 114.0000 1.0000
16.1600 114.0000 1.0000
16.1800 120.0000 1.0000
16.2000 114.0000 1.0000
16.2200 106.0000 1.0000
16.2400 110.0000 1.0000
16.2600 129.0000 1.0000
16.2800 121.0000 1.0000
16.3000 97.0000 1.0000
16.3200 111.0000 1.0000
16.3400 122.0000 1.0000
16.3600 108.0000 1.0000
16.3800 113.0000 1.0000
16.4000 134.0000 1.0000
16.4200 129.0000 1.0000
16.4400 115.0000 1.0000
16.4600 115.0000 1.0000
16.4800 114.0000 1.0000
16.5000 108.0000 1.0000
16.5200 108.0000 1.0000
16.5400 111.0000 1.0000
16.5600 120.0000 1.0000
16.5800 116.0000 1.0000
16.6000 105.0000 1.0000
16.6200 110.0000 1.0000
16.6400 117.0000 1.0000
16.6600 103.0000 1.0000
16.6800 119.0000 1.0000
16.7000 110.0000 1.0000
16.7200 112.0000 1.0000
16.7400 114.0000 1.0000
16.7600 121.0000 1.0000
16.7800 112.0000 1.0000
16.8000 104.0000 1.0000
16.8200 109.0000 1.0000
16.8400 117.0000 1.0000
16.8600 112.0000 1.0000
16.8800 117.0000 1.0000
16.9000 109.0000 1.0000
16.9200 105.0000 1.0000
16.9400 98.0000 1.0000
16.9600 101.0000 1.0000
16.9800 108.0000 1.0000
17.0000 123.0000 1.0000
17.0200 121.0000 1.0000
17.0400 109.0000 1.0000
17.0600 104.0000 1.0000
17.0800 115.0000 1.0000
17.1000 126.0000 1.0000
17.1200 125.0000 1.0000
17.1400 115.0000 1.0000
17.1600 114.0000 1.0000
17.1800 113.0000 1.0000
17.2000 114.0000 1.0000
17.2200 122.0000 1.0000
17.2400 124.0000 1.0000
17.2600 125.0000 1.0000
17.2800 137.0000 1.0000
17.3000 118.0000 1.0000
17.3200 119.0000 1.0000
17.3400 115.0000 1.0000
17.3600 131.0000 1.0000
17.3800 139.0000 1.0000
17.4000 134.0000 1.0000
17.4200 122.0000 1.0000
17.4400 119.0000 1.0000
17.4600 117.0000 1.0000
17.4800 139.0000 1.0000
17.5000 152.0000 1.0000
17.5200 163.0000 1.0000
17.5400 149.0000 1.0000
17.5600 143.0000 1.0000
17.5800 146.0000 1.0000
17.6000 154.0000 1.0000
17.6200 137.0000 1.0000
17.6400 134.0000 1.0000
17.6600 135.0000 1.0000
17.6800 142.0000 1.0000
17.7000 154.0000 1.0000
17.7200 122.0000 1.0000
17.7400 140.0000 1.0000
17.7600 138.0000 1.0000
17.7800 129.0000 1.0000
17.8000 126.0000 1.0000
17.8200 124.0000 1.0000
17.8400 150.0000 1.0000
17.8600 147.0000 1.0000
17.8800 147.0000 1.0000
17.9000 155.0000 1.0000
17.9200 164.0000 1.0000
17.9400 157.0000 1.0000
17.9600 150.0000 1.0000
17.9800 149.0000 1.0000
18.0000 140.0000 1.0000
18.0200 134.0000 1.0000
18.0400 146.0000 1.0000
18.0600 136.0000 1.0000
18.0800 124.0000 1.0000
18.1000 131.0000 1.0000
18.1200 122.0000 1.0000
18.1400 125.0000 1.0000
18.1600 139.0000 1.0000
18.1800 141.0000 1.0000
18.2000 138.0000 1.0000
18.2200 110.0000 1.0000
18.2400 135.0000 1.0000
18.2600 123.0000 1.0000
18.2800 125.0000 1.0000
18.3000 140.0000 1.0000
18.3200 129.0000 1.0000
18.3400 132.0000 1.0000
18.3600 128.0000 1.0000
18.3800 136.0000 1.0000
18.4000 120.0000 1.0000
18.4200 136.0000 1.0000
18.4400 121.0000 1.0000
18.4600 133.0000 1.0000
18.4800 150.0000 1.0000
18.5000 145.0000 1.0000
18.5200 122.0000 1.0000
18.5400 136.0000 1.0000
18.5600 145.0000 1.0000
18.5800 141.0000 1.0000
18.6000 125.0000 1.0000
18.6200 139.0000 1.0000
18.6400 155.0000 1.0000
18.6600 144.0000 1.0000
18.6800 145.0000 1.0000
18.7000 147.0000 1.0000
18.7200 160.0000 1.0000
18.7400 155.0000 1.0000
18.7600 160.0000 1.0000
18.7800 152.0000 1.0000
18.8000 161.0000 1.0000
18.8200 158.0000 1.0000
18.8400 187.0000 1.0000
18.8600 173.0000 1.0000
18.8800 158.0000 1.0000
18.9000 176.0000 1.0000
18.9200 158.0000 1.0000
18.9400 164.0000 1.0000
18.9600 161.0000 1.0000
18.9800 162.0000 1.0000
19.0000 146.0000 1.0000
19.0200 149.0000 1.0000
19.0400 146.0000 1.0000
19.0600 131.0000 1.0000
19.0800 183.0000 1.0000
19.1000 169.0000 1.0000
19.1200 154.0000 1.0000
19.1400 175.0000 1.0000
19.1600 169.0000 1.0000
19.1800 172.0000 1.0000
19.2000 188.0000 1.0000
19.2200 157.0000 1.0000
19.2400 165.0000 1.0000
19.2600 170.0000 1.0000
19.2800 178.0000 1.0000
19.3000 182.0000 1.0000
19.3200 172.0000 1.0000
19.3400 171.0000 1.0000
19.3600 179.0000 1.0000
19.3800 160.0000 1.0000
19.4000 140.0000 1.0000
19.4200 162.0000 1.0000
19.4400 166.0000 1.0000
19.4600 191.0000 1.0000
19.4800 209.0000 1.0000
19.5000 219.0000 1.0000
19.5200 189.0000 1.0000
19.5400 230.0000 1.0000
19.5600 194.0000 1.0000
19.5800 202.0000 1.0000
19.6000 211.0000 1.0000
19.6200 192.0000 1.0000
19.6400 207.0000 1.0000
19.6600 219.0000 1.0000
19.6800 203.0000 1.0000
19.7000 217.0000 1.0000
19.7200 212.0000 1.0000
19.7400 229.0000 1.0000
19.7600 207.0000 1.0000
19.7800 207.0000 1.0000
19.8000 199.0000 1.0000
19.8200 220.0000 1.0000
19.8400 180.0000 1.0000
19.8600 183.0000 1.0000
19.8800 205.0000 1.0000
19.9000 200.0000 1.0000
19.9200 174.0000 1.0000
19.9400 192.0000 1.0000
19.9600 170.0000 1.0000
19.9800 168.0000 1.0000
20.0000 189.0000 1.0000
20.0200 160.0000 1.0000
20.0400 174.0000 1.0000
20.0600 175.0000 1.0000
20.0800 176.0000 1.0000
20.1000 160.0000 1.0000
20.1200 165.0000 1.0000
20.1400 156.0000 1.0000
20.1600 148.0000 1.0000
20.1800 161.0000 1.0000
20.2000 181.0000 1.0000
20.2200 148.0000 1.0000
20.2400 188.0000 1.0000
20.2600 179.0000 1.0000
20.2800 186.0000 1.0000
20.3000 202.0000 1.0000
20.3200 182.0000 1.0000
20.3400 182.0000 1.0000
20.3600 191.0000 1.0000
20.3800 205.0000 1.0000
20.4000 238.0000 1.0000
20.4200 221.0000 1.0000
20.4400 226.0000 1.0000
20.4600 249.0000 1.0000
20.4800 284.0000 1.0000
20.5000 297.0000 1.0000
20.5200 312.0000 1.0000
20.5400 373.0000 1.0000
20.5600 449.0000 1.0000
20.5800 420.0000 1.0000
20.6000 501.0000 1.0000
20.6200 579.0000 1.0000
20.6400 678.0000 1.0000
20.6600 784.0000 1.0000
20.6800 1008.0000 1.0000
20.7000 1317.0000 1.0000
20.7200 1596.0000 1.0000
20.7400 1786.0000 1.0000
20.7600 2169.0000 1.0000
20.7800 2290.0000 1.0000
20.8000 2308.0000 1.0000
20.8200 2181.0000 1.0000
20.8400 1840.0000 1.0000
20.8600 1491.0000 1.0000
20.8800 1175.0000 1.0000
20.9000 875.0000 1.0000
20.9200 689.0000 1.0000
20.9400 547.0000 1.0000
20.9600 496.0000 1.0000
20.9800 441.0000 1.0000
21.0000 358.0000 1.0000
21.0200 335.0000 1.0000
21.0400 300.0000 1.0000
21.0600 289.0000 1.0000
21.0800 251.0000 1.0000
21.1000 263.0000 1.0000
21.1200 245.0000 1.0000
21.1400 231.0000 1.0000
21.1600 207.0000 1.0000
21.1800 239.0000 1.0000
21.2000 195.0000 1.0000
21.2200 201.0000 1.0000
21.2400 193.0000 1.0000
21.2600 198.0000 1.0000
21.2800 238.0000 1.0000
21.3000 199.0000 1.0000
21.3200 194.0000 1.0000
21.3400 193.0000 1.0000
21.3600 206.0000 1.0000
21.3800 173.0000 1.0000
21.4000 199.0000 1.0000
21.4200 193.0000 1.0000
21.4400 201.0000 1.0000
21.4600 192.0000 1.0000
21.4800 176.0000 1.0000
21.5000 188.0000 1.0000
21.5200 209.0000 1.0000
21.5400 215.0000 1.0000
21.5600 216.0000 1.0000
21.5800 219.0000 1.0000
21.6000 227.0000 1.0000
21.6200 234.0000 1.0000
21.6400 248.0000 1.0000
21.6600 254.0000 1.0000
21.6800 249.0000 1.0000
21.7000 264.0000 1.0000
21.7200 311.0000 1.0000
21.7400 357.0000 1.0000
21.7600 356.0000 1.0000
21.7800 462.0000 1.0000
21.8000 508.0000 1.0000
21.8200 607.0000 1.0000
21.8400 759.0000 1.0000
21.8600 861.0000 1.0000
21.8800 963.0000 1.0000
21.9000 1011.0000 1.0000
21.9200 1131.0000 1.0000
21.9400 1150.0000 1.0000
21.9600 1026.0000 1.0000
21.9800 907.0000 1.0000
22.0000 753.0000 1.0000
22.0200 641.0000 1.0000
22.0400 527.0000 1.0000
22.0600 447.0000 1.0000
22.0800 356.0000 1.0000
22.1000 294.0000 1.0000
22.1200 276.0000 1.0000
22.1400 257.0000 1.0000
22.1600 250.0000 1.0000
22.1800 232.0000 1.0000
22.2000 220.0000 1.0000
22.2200 234.0000 1.0000
22.2400 236.0000 1.0000
22.2600 220.0000 1.0000
22.2800 227.0000 1.0000
22.3000 249.0000 1.0000
22.3200 222.0000 1.0000
22.3400 222.0000 1.0000
22.3600 218.0000 1.0000
22.3800 206.0000 1.0000
22.4000 191.0000 1.0000
22.4200 202.0000 1.0000
22.4400 219.0000 1.0000
22.4600 200.0000 1.0000
22.4800 226.0000 1.0000
22.5000 205.0000 1.0000
22.5200 198.0000 1.0000
22.5400 200.0000 1.0000
22.5600 216.0000 1.0000
22.5800 194.0000 1.0000
22.6000 211.0000 1.0000
22.6200 221.0000 1.0000
22.6400 207.0000 1.0000
22.6600 214.0000 1.0000
22.6800 229.0000 1.0000
22.7000 224.0000 1.0000
22.7200 242.0000 1.0000
22.7400 232.0000 1.0000
22.7600 257.0000 1.0000
22.7800 304.0000 1.0000
22.8000 294.0000 1.0000
22.8200 333.0000 1.0000
22.8400 385.0000 1.0000
22.8600 401.0000 1.0000
22.8800 386.0000 1.0000
22.9000 379.0000 1.0000
22.9200 394.0000 1.0000
22.9400 367.0000 1.0000
22.9600 373.0000 1.0000
22.9800 310.0000 1.0000
23.0000 293.0000 1.0000
23.0200 245.0000 1.0000
23.0400 239.0000 1.0000
23.0600 264.0000 1.0000
23.0800 254.0000 1.0000
23.1000 262.0000 1.0000
23.1200 259.0000 1.0000
23.1400 272.0000 1.0000
23.1600 260.0000 1.0000
23.1800 291.0000 1.0000
23.2000 276.0000 1.0000
23.2200 268.0000 1.0000
23.2400 257.0000 1.0000
23.2600 278.0000 1.0000
23.2800 273.0000 1.0000
23.3000 271.0000 1.0000
23.3200 323.0000 1.0000
23.3400 346.0000 1.0000
23.3600 339.0000 1.0000
23.3800 384.0000 1.0000
23.4000 431.0000 1.0000
23.4200 480.0000 1.0000
23.4400 511.0000 1.0000
23.4600 552.0000 1.0000
23.4800 620.0000 1.0000
23.5000 727.0000 1.0000
23.5200 786.0000 1.0000
23.5400 757.0000 1.0000
23.5600 747.0000 1.0000
23.5800 735.0000 1.0000
23.6000 717.0000 1.0000
23.6200 619.0000 1.0000
23.6400 521.0000 1.0000
23.6600 502.0000 1.0000
23.6800 466.0000 1.0000
23.7000 420.0000 1.0000
23.7200 428.0000 1.0000
23.7400 410.0000 1.0000
23.7600 427.0000 1.0000
23.7800 484.0000 1.0000
23.8000 522.0000 1.0000
23.8200 553.0000 1.0000
23.8400 574.0000 1.0000
23.8600 600.0000 1.0000
23.8800 656.0000 1.0000
23.9000 688.0000 1.0000
23.9200 649.0000 1.0000
23.9400 588.0000 1.0000
23.9600 549.0000 1.0000
23.9800 535.0000 1.0000
24.0000 503.0000 1.0000
24.0200 471.0000 1.0000
24.0400 465.0000 1.0000
24.0600 446.0000 1.0000
24.0800 477.0000 1.0000
24.1000 506.0000 1.0000
24.1200 538.0000 1.0000
24.1400 584.0000 1.0000
24.1600 625.0000 1.0000
24.1800 677.0000 1.0000
24.2000 742.0000 1.0000
24.2200 740.0000 1.0000
24.2400 737.0000 1.0000
24.2600 711.0000 1.0000
24.2800 692.0000 1.0000
24.3000 640.0000 1.0000
24.3200 567.0000 1.0000
24.3400 489.0000 1.0000
24.3600 430.0000 1.0000
24.3800 383.0000 1.0000
24.4000 342.0000 1.0000
24.4200 299.0000 1.0000
24.4400 280.0000 1.0000
24.4600 240.0000 1.0000
24.4800 230.0000 1.0000
24.5000 234.0000 1.0000
24.5200 221.0000 1.0000
24.5400 234.0000 1.0000
24.5600 202.0000 1.0000
24.5800 212.0000 1.0000
24.6000 193.0000 1.0000
24.6200 206.0000 1.0000
24.6400 204.0000 1.0000
24.6600 206.0000 1.0000
24.6800 198.0000 1.0000
24.7000 214.0000 1.0000
24.7200 195.0000 1.0000
24.7400 200.0000 1.0000
24.7600 205.0000 1.0000
24.7800 194.0000 1.0000
24.8000 223.0000 1.0000
24.8200 203.0000 1.0000
24.8400 191.0000 1.0000
24.8600 195.0000 1.0000
24.8800 197.0000 1.0000
24.9000 203.0000 1.0000
24.9200 229.0000 1.0000
24.9400 228.0000 1.0000
24.9600 199.0000 1.0000
24.9800 223.0000 1.0000
25.0000 236.0000 1.0000
25.0200 238.0000 1.0000
25.0400 257.0000 1.0000
25.0600 260.0000 1.0000
25.0800 269.0000 1.0000
25.1000 275.0000 1.0000
25.1200 284.0000 1.0000
25.1400 272.0000 1.0000
25.1600 276.0000 1.0000
25.1800 295.0000 1.0000
25.2000 308.0000 1.0000
25.2200 307.0000 1.0000
25.2400 335.0000 1.0000
25.2600 363.0000 1.0000
25.2800 384.0000 1.0000
25.3000 421.0000 1.0000
25.3200 484.0000 1.0000
25.3400 581.0000 1.0000
25.3600 678.0000 1.0000
25.3800 786.0000 1.0000
25.4000 962.0000 1.0000
25.4200 1127.0000 1.0000
25.4400 1272.0000 1.0000
25.4600 1456.0000 1.0000
25.4800 1603.0000 1.0000
25.5000 1664.0000 1.0000
25.5200 1625.0000 1.0000
25.5400 1499.0000 1.0000
25.5600 1272.0000 1.0000
25.5800 1098.0000 1.0000
25.6000 932.0000 1.0000
25.6200 734.0000 1.0000
25.6400 599.0000 1.0000
25.6600 505.0000 1.0000
25.6800 427.0000 1.0000
25.7000 396.0000 1.0000
25.7200 355.0000 1.0000
25.7400 332.0000 1.0000
25.7600 311.0000 1.0000
25.7800 311.0000 1.0000
25.8000 297.0000 1.0000
25.8200 296.0000 1.0000
25.8400 293.0000 1.0000
25.8600 298.0000 1.0000
25.8800 315.0000 1.0000
25.9000 301.0000 1.0000
25.9200 317.0000 1.0000
25.9400 344.0000 1.0000
25.9600 339.0000 1.0000
25.9800 357.0000 1.0000
26.0000 361.0000 1.0000
26.0200 373.0000 1.0000
26.0400 400.0000 1.0000
26.0600 433.0000 1.0000
26.0800 497.0000 1.0000
26.1000 512.0000 1.0000
26.1200 554.0000 1.0000
26.1400 608.0000 1.0000
26.1600 604.0000 1.0000
26.1800 642.0000 1.0000
26.2000 675.0000 1.0000
26.2200 731.0000 1.0000
26.2400 812.0000 1.0000
26.2600 892.0000 1.0000
26.2800 1051.0000 1.0000
26.3000 1154.0000 1.0000
26.3200 1322.0000 1.0000
26.3400 1534.0000 1.0000
26.3600 1770.0000 1.0000
26.3800 2082.0000 1.0000
26.4000 2442.0000 1.0000
26.4200 2872.0000 1.0000
26.4400 3449.0000 1.0000
26.4600 4353.0000 1.0000
26.4800 5598.0000 1.0000
26.5000 6976.0000 1.0000
26.5200 8428.0000 1.0000
26.5400 9696.0000 1.0000
26.5600 10462.0000 1.0000
26.5800 10424.0000 1.0000
26.6000 9612.0000 1.0000
26.6200 8398.0000 1.0000
26.6400 6838.0000 1.0000
26.6600 5058.0000 1.0000
26.6800 3503.0000 1.0000
26.7000 2447.0000 1.0000
26.7200 1763.0000 1.0000
26.7400 1310.0000 1.0000
26.7600 1030.0000 1.0000
26.7800 892.0000 1.0000
26.8000 826.0000 1.0000
26.8200 724.0000 1.0000
26.8400 658.0000 1.0000
26.8600 652.0000 1.0000
26.8800 679.0000 1.0000
26.9000 696.0000 1.0000
26.9200 691.0000 1.0000
26.9400 681.0000 1.0000
26.9600 699.0000 1.0000
26.9800 712.0000 1.0000
27.0000 703.0000 1.0000
27.0200 676.0000 1.0000
27.0400 665.0000 1.0000
27.0600 622.0000 1.0000
27.0800 571.0000 1.0000
27.1000 545.0000 1.0000
27.1200 509.0000 1.0000
27.1400 476.0000 1.0000
27.1600 448.0000 1.0000
27.1800 461.0000 1.0000
27.2000 454.0000 1.0000
27.2200 453.0000 1.0000
27.2400 482.0000 1.0000
27.2600 531.0000 1.0000
27.2800 574.0000 1.0000
27.3000 626.0000 1.0000
27.3200 671.0000 1.0000
27.3400 761.0000 1.0000
27.3600 877.0000 1.0000
27.3800 930.0000 1.0000
27.4000 979.0000 1.0000
27.4200 1022.0000 1.0000
27.4400 1000.0000 1.0000
27.4600 978.0000 1.0000
27.4800 988.0000 1.0000
27.5000 934.0000 1.0000
27.5200 903.0000 1.0000
27.5400 912.0000 1.0000
27.5600 925.0000 1.0000
27.5800 980.0000 1.0000
27.6000 1097.0000 1.0000
27.6200 1261.0000 1.0000
27.6400 1472.0000 1.0000
27.6600 1677.0000 1.0000
27.6800 1879.0000 1.0000
27.7000 2075.0000 1.0000
27.7200 2258.0000 1.0000
27.7400 2373.0000 1.0000
27.7600 2417.0000 1.0000
27.7800 2540.0000 1.0000
27.8000 2616.0000 1.0000
27.8200 2655.0000 1.0000
27.8400 2696.0000 1.0000
27.8600 2751.0000 1.0000
27.8800 2833.0000 1.0000
27.9000 2884.0000 1.0000
27.9200 2887.0000 1.0000
27.9400 2745.0000 1.0000
27.9600 2509.0000 1.0000
27.9800 2185.0000 1.0000
28.0000 1799.0000 1.0000
28.0200 1514.0000 1.0000
28.0400 1218.0000 1.0000
28.0600 992.0000 1.0000
28.0800 861.0000 1.0000
28.1000 744.0000 1.0000
28.1200 701.0000 1.0000
28.1400 712.0000 1.0000
28.1600 685.0000 1.0000
28.1800 700.0000 1.0000
28.2000 763.0000 1.0000
28.2200 759.0000 1.0000
28.2400 757.0000 1.0000
28.2600 749.0000 1.0000
28.2800 740.0000 1.0000
28.3000 704.0000 1.0000
28.3200 659.0000 1.0000
28.3400 612.0000 1.0000
28.3600 557.0000 1.0000
28.3800 534.0000 1.0000
28.4000 503.0000 1.0000
28.4200 453.0000 1.0000
28.4400 403.0000 1.0000
28.4600 380.0000 1.0000
28.4800 354.0000 1.0000
28.5000 313.0000 1.0000
28.5200 291.0000 1.0000
28.5400 272.0000 1.0000
28.5600 233.0000 1.0000
28.5800 214.0000 1.0000
28.6000 213.0000 1.0000
28.6200 200.0000 1.0000
28.6400 193.0000 1.0000
28.6600 198.0000 1.0000
28.6800 190.0000 1.0000
28.7000 176.0000 1.0000
28.7200 152.0000 1.0000
28.7400 159.0000 1.0000
28.7600 164.0000 1.0000
28.7800 173.0000 1.0000
28.8000 171.0000 1.0000
28.8200 156.0000 1.0000
28.8400 158.0000 1.0000
28.8600 161.0000 1.0000
28.8800 155.0000 1.0000
28.9000 144.0000 1.0000
28.9200 165.0000 1.0000
28.9400 178.0000 1.0000
28.9600 160.0000 1.0000
28.9800 160.0000 1.0000
29.0000 168.0000 1.0000
29.0200 177.0000 1.0000
29.0400 168.0000 1.0000
29.0600 179.0000 1.0000
29.0800 178.0000 1.0000
29.1000 170.0000 1.0000
29.1200 164.0000 1.0000
29.1400 157.0000 1.0000
29.1600 170.0000 1.0000
29.1800 169.0000 1.0000
29.2000 167.0000 1.0000
29.2200 167.0000 1.0000
29.2400 182.0000 1.0000
29.2600 202.0000 1.0000
29.2800 206.0000 1.0000
29.3000 201.0000 1.0000
29.3200 222.0000 1.0000
29.3400 235.0000 1.0000
29.3600 242.0000 1.0000
29.3800 258.0000 1.0000
29.4000 256.0000 1.0000
29.4200 246.0000 1.0000
29.4400 247.0000 1.0000
29.4600 273.0000 1.0000
29.4800 279.0000 1.0000
29.5000 281.0000 1.0000
29.5200 303.0000 1.0000
29.5400 294.0000 1.0000
29.5600 286.0000 1.0000
29.5800 319.0000 1.0000
29.6000 338.0000 1.0000
29.6200 357.0000 1.0000
29.6400 392.0000 1.0000
29.6600 448.0000 1.0000
29.6800 476.0000 1.0000
29.7000 470.0000 1.0000
29.7200 480.0000 1.0000
29.7400 530.0000 1.0000
29.7600 516.0000 1.0000
29.7800 500.0000 1.0000
29.8000 476.0000 1.0000
29.8200 450.0000 1.0000
29.8400 444.0000 1.0000
29.8600 419.0000 1.0000
29.8800 390.0000 1.0000
29.9000 396.0000 1.0000
29.9200 398.0000 1.0000
29.9400 346.0000 1.0000
29.9600 367.0000 1.0000
29.9800 365.0000 1.0000
30.0000 352.0000 1.0000
30.0200 366.0000 1.0000
30.0400 395.0000 1.0000
30.0600 409.0000 1.0000
30.0800 415.0000 1.0000
30.1000 385.0000 1.0000
30.1200 381.0000 1.0000
30.1400 445.0000 1.0000
30.1600 470.0000 1.0000
30.1800 454.0000 1.0000
30.2000 514.0000 1.0000
30.2200 518.0000 1.0000
30.2400 562.0000 1.0000
30.2600 633.0000 1.0000
30.2800 656.0000 1.0000
30.3000 661.0000 1.0000
30.3200 671.0000 1.0000
30.3400 742.0000 1.0000
30.3600 729.0000 1.0000
30.3800 711.0000 1.0000
30.4000 704.0000 1.0000
30.4200 623.0000 1.0000
30.4400 586.0000 1.0000
30.4600 520.0000 1.0000
30.4800 454.0000 1.0000
30.5000 418.0000 1.0000
30.5200 351.0000 1.0000
30.5400 319.0000 1.0000
30.5600 314.0000 1.0000
30.5800 303.0000 1.0000
30.6000 289.0000 1.0000
30.6200 269.0000 1.0000
30.6400 299.0000 1.0000
30.6600 309.0000 1.0000
30.6800 302.0000 1.0000
30.7000 291.0000 1.0000
30.7200 313.0000 1.0000
30.7400 312.0000 1.0000
30.7600 305.0000 1.0000
30.7800 306.0000 1.0000
30.8000 308.0000 1.0000
30.8200 297.0000 1.0000
30.8400 270.0000 1.0000
30.8600 245.0000 1.0000
30.8800 255.0000 1.0000
30.9000 240.0000 1.0000
30.9200 209.0000 1.0000
30.9400 199.0000 1.0000
30.9600 183.0000 1.0000
30.9800 178.0000 1.0000
31.0000 194.0000 1.0000
31.0200 172.0000 1.0000
31.0400 172.0000 1.0000
31.0600 188.0000 1.0000
31.0800 162.0000 1.0000
31.1000 173.0000 1.0000
31.1200 194.0000 1.0000
31.1400 212.0000 1.0000
31.1600 201.0000 1.0000
31.1800 244.0000 1.0000
31.2000 272.0000 1.0000
31.2200 261.0000 1.0000
31.2400 276.0000 1.0000
31.2600 325.0000 1.0000
31.2800 349.0000 1.0000
31.3000 342.0000 1.0000
31.3200 380.0000 1.0000
31.3400 377.0000 1.0000
31.3600 352.0000 1.0000
31.3800 347.0000 1.0000
31.4000 308.0000 1.0000
31.4200 291.0000 1.0000
31.4400 290.0000 1.0000
31.4600 279.0000 1.0000
31.4800 274.0000 1.0000
31.5000 257.0000 1.0000
31.5200 235.0000 1.0000
31.5400 244.0000 1.0000
31.5600 221.0000 1.0000
31.5800 217.0000 1.0000
31.6000 228.0000 1.0000
31.6200 218.0000 1.0000
31.6400 213.0000 1.0000
31.6600 201.0000 1.0000
31.6800 195.0000 1.0000
31.7000 189.0000 1.0000
31.7200 198.0000 1.0000
31.7400 191.0000 1.0000
31.7600 194.0000 1.0000
31.7800 182.0000 1.0000
31.8000 189.0000 1.0000
31.8200 177.0000 1.0000
31.8400 184.0000 1.0000
31.8600 173.0000 1.0000
31.8800 174.0000 1.0000
31.9000 147.0000 1.0000
31.9200 158.0000 1.0000
31.9400 164.0000 1.0000
31.9600 150.0000 1.0000
31.9800 155.0000 1.0000
32.0000 150.0000 1.0000
32.0200 150.0000 1.0000
32.0400 176.0000 1.0000
32.0600 155.0000 1.0000
32.0800 160.0000 1.0000
32.1000 177.0000 1.0000
32.1200 161.0000 1.0000
32.1400 171.0000 1.0000
32.1600 184.0000 1.0000
32.1800 185.0000 1.0000
32.2000 183.0000 1.0000
32.2200 185.0000 1.0000
32.2400 164.0000 1.0000
32.2600 172.0000 1.0000
32.2800 190.0000 1.0000
32.3000 172.0000 1.0000
32.3200 186.0000 1.0000
32.3400 213.0000 1.0000
32.3600 182.0000 1.0000
32.3800 166.0000 1.0000
32.4000 188.0000 1.0000
32.4200 198.0000 1.0000
32.4400 185.0000 1.0000
32.4600 184.0000 1.0000
32.4800 190.0000 1.0000
32.5000 190.0000 1.0000
32.5200 185.0000 1.0000
32.5400 176.0000 1.0000
32.5600 169.0000 1.0000
32.5800 176.0000 1.0000
32.6000 161.0000 1.0000
32.6200 146.0000 1.0000
32.6400 160.0000 1.0000
32.6600 166.0000 1.0000
32.6800 177.0000 1.0000
32.7000 173.0000 1.0000
32.7200 193.0000 1.0000
32.7400 188.0000 1.0000
32.7600 204.0000 1.0000
32.7800 226.0000 1.0000
32.8000 239.0000 1.0000
32.8200 258.0000 1.0000
32.8400 276.0000 1.0000
32.8600 280.0000 1.0000
32.8800 271.0000 1.0000
32.9000 265.0000 1.0000
32.9200 270.0000 1.0000
32.9400 242.0000 1.0000
32.9600 229.0000 1.0000
32.9800 227.0000 1.0000
33.0000 216.0000 1.0000
33.0200 215.0000 1.0000
33.0400 199.0000 1.0000
33.0600 196.0000 1.0000
33.0800 197.0000 1.0000
33.1000 182.0000 1.0000
33.1200 167.0000 1.0000
33.1400 208.0000 1.0000
33.1600 151.0000 1.0000
33.1800 169.0000 1.0000
33.2000 140.0000 1.0000
33.2200 152.0000 1.0000
33.2400 156.0000 1.0000
33.2600 142.0000 1.0000
33.2800 128.0000 1.0000
33.3000 136.0000 1.0000
33.3200 140.0000 1.0000
33.3400 143.0000 1.0000
33.3600 149.0000 1.0000
33.3800 132.0000 1.0000
33.4000 138.0000 1.0000
33.4200 154.0000 1.0000
33.4400 138.0000 1.0000
33.4600 139.0000 1.0000
33.4800 133.0000 1.0000
33.5000 148.0000 1.0000
33.5200 137.0000 1.0000
33.5400 170.0000 1.0000
33.5600 166.0000 1.0000
33.5800 183.0000 1.0000
33.6000 178.0000 1.0000
33.6200 206.0000 1.0000
33.6400 210.0000 1.0000
33.6600 204.0000 1.0000
33.6800 223.0000 1.0000
33.7000 237.0000 1.0000
33.7200 226.0000 1.0000
33.7400 237.0000 1.0000
33.7600 285.0000 1.0000
33.7800 305.0000 1.0000
33.8000 269.0000 1.0000
33.8200 289.0000 1.0000
33.8400 292.0000 1.0000
33.8600 247.0000 1.0000
33.8800 270.0000 1.0000
33.9000 258.0000 1.0000
33.9200 274.0000 1.0000
33.9400 267.0000 1.0000
33.9600 246.0000 1.0000
33.9800 228.0000 1.0000
34.0000 225.0000 1.0000
34.0200 256.0000 1.0000
34.0400 245.0000 1.0000
34.0600 246.0000 1.0000
34.0800 271.0000 1.0000
34.1000 250.0000 1.0000
34.1200 257.0000 1.0000
34.1400 243.0000 1.0000
34.1600 264.0000 1.0000
34.1800 271.0000 1.0000
34.2000 292.0000 1.0000
34.2200 284.0000 1.0000
34.2400 266.0000 1.0000
34.2600 311.0000 1.0000
34.2800 307.0000 1.0000
34.3000 309.0000 1.0000
34.3200 291.0000 1.0000
34.3400 332.0000 1.0000
34.3600 279.0000 1.0000
34.3800 270.0000 1.0000
34.4000 307.0000 1.0000
34.4200 275.0000 1.0000
34.4400 253.0000 1.0000
34.4600 279.0000 1.0000
34.4800 289.0000 1.0000
34.5000 269.0000 1.0000
34.5200 261.0000 1.0000
34.5400 265.0000 1.0000
34.5600 291.0000 1.0000
34.5800 253.0000 1.0000
34.6000 270.0000 1.0000
34.6200 258.0000 1.0000
34.6400 261.0000 1.0000
34.6600 281.0000 1.0000
34.6800 283.0000 1.0000
34.7000 303.0000 1.0000
34.7200 277.0000 1.0000
34.7400 286.0000 1.0000
34.7600 300.0000 1.0000
34.7800 299.0000 1.0000
34.8000 340.0000 1.0000
34.8200 390.0000 1.0000
34.8400 380.0000 1.0000
34.8600 420.0000 1.0000
34.8800 469.0000 1.0000
34.9000 504.0000 1.0000
34.9200 645.0000 1.0000
34.9400 685.0000 1.0000
34.9600 850.0000 1.0000
34.9800 995.0000 1.0000
35.0000 1186.0000 1.0000
35.0200 1488.0000 1.0000
35.0400 1609.0000 1.0000
35.0600 1799.0000 1.0000
35.0800 1955.0000 1.0000
35.1000 1965.0000 1.0000
35.1200 1813.0000 1.0000
35.1400 1746.0000 1.0000
35.1600 1590.0000 1.0000
35.1800 1396.0000 1.0000
35.2000 1210.0000 1.0000
35.2200 987.0000 1.0000
35.2400 860.0000 1.0000
35.2600 788.0000 1.0000
35.2800 715.0000 1.0000
35.3000 655.0000 1.0000
35.3200 572.0000 1.0000
35.3400 549.0000 1.0000
35.3600 566.0000 1.0000
35.3800 512.0000 1.0000
35.4000 499.0000 1.0000
35.4200 462.0000 1.0000
35.4400 443.0000 1.0000
35.4600 438.0000 1.0000
35.4800 418.0000 1.0000
35.5000 436.0000 1.0000
35.5200 428.0000 1.0000
35.5400 378.0000 1.0000
35.5600 400.0000 1.0000
35.5800 371.0000 1.0000
35.6000 351.0000 1.0000
35.6200 333.0000 1.0000
35.6400 323.0000 1.0000
35.6600 319.0000 1.0000
35.6800 298.0000 1.0000
35.7000 246.0000 1.0000
35.7200 268.0000 1.0000
35.7400 236.0000 1.0000
35.7600 244.0000 1.0000
35.7800 257.0000 1.0000
35.8000 234.0000 1.0000
35.8200 225.0000 1.0000
35.8400 203.0000 1.0000
35.8600 218.0000 1.0000
35.8800 231.0000 1.0000
35.9000 210.0000 1.0000
35.9200 195.0000 1.0000
35.9400 210.0000 1.0000
35.9600 233.0000 1.0000
35.9800 253.0000 1.0000
36.0000 234.0000 1.0000
36.0200 241.0000 1.0000
36.0400 254.0000 1.0000
36.0600 222.0000 1.0000
36.0800 250.0000 1.0000
36.1000 256.0000 1.0000
36.1200 266.0000 1.0000
36.1400 280.0000 1.0000
36.1600 285.0000 1.0000
36.1800 281.0000 1.0000
36.2000 295.0000 1.0000
36.2200 273.0000 1.0000
36.2400 290.0000 1.0000
36.2600 309.0000 1.0000
36.2800 298.0000 1.0000
36.3000 316.0000 1.0000
36.3200 325.0000 1.0000
36.3400 359.0000 1.0000
36.3600 382.0000 1.0000
36.3800 456.0000 1.0000
36.4000 520.0000 1.0000
36.4200 606.0000 1.0000
36.4400 709.0000 1.0000
36.4600 761.0000 1.0000
36.4800 853.0000 1.0000
36.5000 823.0000 1.0000
36.5200 781.0000 1.0000
36.5400 775.0000 1.0000
36.5600 690.0000 1.0000
36.5800 579.0000 1.0000
36.6000 546.0000 1.0000
36.6200 475.0000 1.0000
36.6400 402.0000 1.0000
36.6600 317.0000 1.0000
36.6800 305.0000 1.0000
36.7000 274.0000 1.0000
36.7200 274.0000 1.0000
36.7400 265.0000 1.0000
36.7600 233.0000 1.0000
36.7800 239.0000 1.0000
36.8000 226.0000 1.0000
36.8200 241.0000 1.0000
36.8400 269.0000 1.0000
36.8600 261.0000 1.0000
36.8800 258.0000 1.0000
36.9000 266.0000 1.0000
36.9200 270.0000 1.0000
36.9400 280.0000 1.0000
36.9600 283.0000 1.0000
36.9800 273.0000 1.0000
37.0000 269.0000 1.0000
37.0200 277.0000 1.0000
37.0400 266.0000 1.0000
37.0600 277.0000 1.0000
37.0800 260.0000 1.0000
37.1000 238.0000 1.0000
37.1200 238.0000 1.0000
37.1400 221.0000 1.0000
37.1600 200.0000 1.0000
37.1800 200.0000 1.0000
37.2000 230.0000 1.0000
37.2200 193.0000 1.0000
37.2400 198.0000 1.0000
37.2600 215.0000 1.0000
37.2800 217.0000 1.0000
37.3000 212.0000 1.0000
37.3200 217.0000 1.0000
37.3400 235.0000 1.0000
37.3600 222.0000 1.0000
37.3800 231.0000 1.0000
37.4000 230.0000 1.0000
37.4200 268.0000 1.0000
37.4400 279.0000 1.0000
37.4600 257.0000 1.0000
37.4800 266.0000 1.0000
37.5000 291.0000 1.0000
37.5200 324.0000 1.0000
37.5400 356.0000 1.0000
37.5600 359.0000 1.0000
37.5800 441.0000 1.0000
37.6000 468.0000 1.0000
37.6200 545.0000 1.0000
37.6400 618.0000 1.0000
37.6600 727.0000 1.0000
37.6800 735.0000 1.0000
37.7000 801.0000 1.0000
37.7200 804.0000 1.0000
37.7400 797.0000 1.0000
37.7600 730.0000 1.0000
37.7800 658.0000 1.0000
37.8000 582.0000 1.0000
37.8200 497.0000 1.0000
37.8400 399.0000 1.0000
37.8600 330.0000 1.0000
37.8800 262.0000 1.0000
37.9000 228.0000 1.0000
37.9200 182.0000 1.0000
37.9400 183.0000 1.0000
37.9600 164.0000 1.0000
37.9800 162.0000 1.0000
38.0000 171.0000 1.0000
38.0200 151.0000 1.0000
38.0400 159.0000 1.0000
38.0600 169.0000 1.0000
38.0800 160.0000 1.0000
38.1000 162.0000 1.0000
38.1200 168.0000 1.0000
38.1400 167.0000 1.0000
38.1600 163.0000 1.0000
38.1800 179.0000 1.0000
38.2000 168.0000 1.0000
38.2200 174.0000 1.0000
38.2400 167.0000 1.0000
38.2600 170.0000 1.0000
38.2800 178.0000 1.0000
38.3000 175.0000 1.0000
38.3200 171.0000 1.0000
38.3400 169.0000 1.0000
38.3600 183.0000 1.0000
38.3800 194.0000 1.0000
38.4000 173.0000 1.0000
38.4200 184.0000 1.0000
38.4400 182.0000 1.0000
38.4600 164.0000 1.0000
38.4800 161.0000 1.0000
38.5000 184.0000 1.0000
38.5200 185.0000 1.0000
38.5400 175.0000 1.0000
38.5600 160.0000 1.0000
38.5800 159.0000 1.0000
38.6000 152.0000 1.0000
38.6200 140.0000 1.0000
38.6400 148.0000 1.0000
38.6600 150.0000 1.0000
38.6800 147.0000 1.0000
38.7000 146.0000 1.0000
38.7200 145.0000 1.0000
38.7400 158.0000 1.0000
38.7600 176.0000 1.0000
38.7800 177.0000 1.0000
38.8000 174.0000 1.0000
38.8200 183.0000 1.0000
38.8400 173.0000 1.0000
38.8600 171.0000 1.0000
38.8800 185.0000 1.0000
38.9000 179.0000 1.0000
38.9200 188.0000 1.0000
38.9400 192.0000 1.0000
38.9600 193.0000 1.0000
38.9800 206.0000 1.0000
39.0000 218.0000 1.0000
39.0200 241.0000 1.0000
39.0400 220.0000 1.0000
39.0600 233.0000 1.0000
39.0800 225.0000 1.0000
39.1000 229.0000 1.0000
39.1200 246.0000 1.0000
39.1400 238.0000 1.0000
39.1600 235.0000 1.0000
39.1800 225.0000 1.0000
39.2000 249.0000 1.0000
39.2200 264.0000 1.0000
39.2400 293.0000 1.0000
39.2600 304.0000 1.0000
39.2800 344.0000 1.0000
39.3000 397.0000 1.0000
39.3200 443.0000 1.0000
39.3400 542.0000 1.0000
39.3600 655.0000 1.0000
39.3800 748.0000 1.0000
39.4000 784.0000 1.0000
39.4200 755.0000 1.0000
39.4400 735.0000 1.0000
39.4600 690.0000 1.0000
39.4800 605.0000 1.0000
39.5000 550.0000 1.0000
39.5200 491.0000 1.0000
39.5400 437.0000 1.0000
39.5600 390.0000 1.0000
39.5800 334.0000 1.0000
39.6000 284.0000 1.0000
39.6200 247.0000 1.0000
39.6400 226.0000 1.0000
39.6600 211.0000 1.0000
39.6800 200.0000 1.0000
39.7000 182.0000 1.0000
39.7200 165.0000 1.0000
39.7400 170.0000 1.0000
39.7600 158.0000 1.0000
39.7800 152.0000 1.0000
39.8000 164.0000 1.0000
39.8200 152.0000 1.0000
39.8400 139.0000 1.0000
39.8600 146.0000 1.0000
39.8800 140.0000 1.0000
39.9000 128.0000 1.0000
39.9200 137.0000 1.0000
39.9400 144.0000 1.0000
39.9600 152.0000 1.0000
39.9800 152.0000 1.0000
40.0000 163.0000 1.0000
40.0200 161.0000 1.0000
40.0400 159.0000 1.0000
40.0600 165.0000 1.0000
40.0800 179.0000 1.0000
40.1000 210.0000 1.0000
40.1200 246.0000 1.0000
40.1400 260.0000 1.0000
40.1600 302.0000 1.0000
40.1800 349.0000 1.0000
40.2000 407.0000 1.0000
40.2200 447.0000 1.0000
40.2400 451.0000 1.0000
40.2600 435.0000 1.0000
40.2800 397.0000 1.0000
40.3000 386.0000 1.0000
40.3200 371.0000 1.0000
40.3400 317.0000 1.0000
40.3600 247.0000 1.0000
40.3800 222.0000 1.0000
40.4000 224.0000 1.0000
40.4200 203.0000 1.0000
40.4400 179.0000 1.0000
40.4600 165.0000 1.0000
40.4800 149.0000 1.0000
40.5000 150.0000 1.0000
40.5200 147.0000 1.0000
40.5400 138.0000 1.0000
40.5600 137.0000 1.0000
40.5800 146.0000 1.0000
40.6000 156.0000 1.0000
40.6200 154.0000 1.0000
40.6400 160.0000 1.0000
40.6600 165.0000 1.0000
40.6800 167.0000 1.0000
40.7000 169.0000 1.0000
40.7200 171.0000 1.0000
40.7400 162.0000 1.0000
40.7600 155.0000 1.0000
40.7800 168.0000 1.0000
40.8000 180.0000 1.0000
40.8200 179.0000 1.0000
40.8400 168.0000 1.0000
40.8600 163.0000 1.0000
40.8800 169.0000 1.0000
40.9000 159.0000 1.0000
40.9200 146.0000 1.0000
40.9400 138.0000 1.0000
40.9600 133.0000 1.0000
40.9800 147.0000 1.0000
41.0000 158.0000 1.0000
41.0200 152.0000 1.0000
41.0400 144.0000 1.0000
41.0600 144.0000 1.0000
41.0800 150.0000 1.0000
41.1000 152.0000 1.0000
41.1200 160.0000 1.0000
41.1400 178.0000 1.0000
41.1600 169.0000 1.0000
41.1800 160.0000 1.0000
41.2000 156.0000 1.0000
41.2200 176.0000 1.0000
41.2400 168.0000 1.0000
41.2600 159.0000 1.0000
41.2800 162.0000 1.0000
41.3000 166.0000 1.0000
41.3200 165.0000 1.0000
41.3400 167.0000 1.0000
41.3600 181.0000 1.0000
41.3800 180.0000 1.0000
41.4000 180.0000 1.0000
41.4200 206.0000 1.0000
41.4400 208.0000 1.0000
41.4600 198.0000 1.0000
41.4800 197.0000 1.0000
41.5000 198.0000 1.0000
41.5200 200.0000 1.0000
41.5400 211.0000 1.0000
41.5600 224.0000 1.0000
41.5800 210.0000 1.0000
41.6000 208.0000 1.0000
41.6200 225.0000 1.0000
41.6400 244.0000 1.0000
41.6600 245.0000 1.0000
41.6800 244.0000 1.0000
41.7000 260.0000 1.0000
41.7200 272.0000 1.0000
41.7400 275.0000 1.0000
41.7600 280.0000 1.0000
41.7800 268.0000 1.0000
41.8000 253.0000 1.0000
41.8200 244.0000 1.0000
41.8400 243.0000 1.0000
41.8600 224.0000 1.0000
41.8800 203.0000 1.0000
41.9000 202.0000 1.0000
41.9200 186.0000 1.0000
41.9400 170.0000 1.0000
41.9600 179.0000 1.0000
41.9800 182.0000 1.0000
42.0000 189.0000 1.0000
42.0200 190.0000 1.0000
42.0400 185.0000 1.0000
42.0600 189.0000 1.0000
42.0800 177.0000 1.0000
42.1000 192.0000 1.0000
42.1200 208.0000 1.0000
42.1400 205.0000 1.0000
42.1600 234.0000 1.0000
42.1800 268.0000 1.0000
42.2000 268.0000 1.0000
42.2200 319.0000 1.0000
42.2400 357.0000 1.0000
42.2600 396.0000 1.0000
42.2800 416.0000 1.0000
42.3000 467.0000 1.0000
42.3200 510.0000 1.0000
42.3400 587.0000 1.0000
42.3600 664.0000 1.0000
42.3800 715.0000 1.0000
42.4000 728.0000 1.0000
42.4200 702.0000 1.0000
42.4400 617.0000 1.0000
42.4600 555.0000 1.0000
42.4800 488.0000 1.0000
42.5000 478.0000 1.0000
42.5200 383.0000 1.0000
42.5400 369.0000 1.0000
42.5600 340.0000 1.0000
42.5800 280.0000 1.0000
42.6000 237.0000 1.0000
42.6200 261.0000 1.0000
42.6400 259.0000 1.0000
42.6600 251.0000 1.0000
42.6800 238.0000 1.0000
42.7000 243.0000 1.0000
42.7200 232.0000 1.0000
42.7400 256.0000 1.0000
42.7600 280.0000 1.0000
42.7800 293.0000 1.0000
42.8000 277.0000 1.0000
42.8200 293.0000 1.0000
42.8400 280.0000 1.0000
42.8600 298.0000 1.0000
42.8800 299.0000 1.0000
42.9000 290.0000 1.0000
42.9200 300.0000 1.0000
42.9400 287.0000 1.0000
42.9600 285.0000 1.0000
42.9800 296.0000 1.0000
43.0000 296.0000 1.0000
43.0200 307.0000 1.0000
43.0400 321.0000 1.0000
43.0600 322.0000 1.0000
43.0800 362.0000 1.0000
43.1000 358.0000 1.0000
43.1200 420.0000 1.0000
43.1400 520.0000 1.0000
43.1600 590.0000 1.0000
43.1800 703.0000 1.0000
43.2000 857.0000 1.0000
43.2200 1108.0000 1.0000
43.2400 1327.0000 1.0000
43.2600 1569.0000 1.0000
43.2800 1726.0000 1.0000
43.3000 1780.0000 1.0000
43.3200 1678.0000 1.0000
43.3400 1599.0000 1.0000
43.3600 1487.0000 1.0000
43.3800 1286.0000 1.0000
43.4000 1138.0000 1.0000
43.4200 984.0000 1.0000
43.4400 815.0000 1.0000
43.4600 710.0000 1.0000
43.4800 528.0000 1.0000
43.5000 374.0000 1.0000
43.5200 295.0000 1.0000
43.5400 268.0000 1.0000
43.5600 227.0000 1.0000
43.5800 229.0000 1.0000
43.6000 200.0000 1.0000
43.6200 202.0000 1.0000
43.6400 201.0000 1.0000
43.6600 180.0000 1.0000
43.6800 160.0000 1.0000
43.7000 155.0000 1.0000
43.7200 165.0000 1.0000
43.7400 147.0000 1.0000
43.7600 150.0000 1.0000
43.7800 163.0000 1.0000
43.8000 166.0000 1.0000
43.8200 160.0000 1.0000
43.8400 139.0000 1.0000
43.8600 133.0000 1.0000
43.8800 123.0000 1.0000
43.9000 137.0000 1.0000
43.9200 143.0000 1.0000
43.9400 150.0000 1.0000
43.9600 133.0000 1.0000
43.9800 153.0000 1.0000
44.0000 147.0000 1.0000
44.0200 156.0000 1.0000
44.0400 149.0000 1.0000
44.0600 163.0000 1.0000
44.0800 147.0000 1.0000
44.1000 142.0000 1.0000
44.1200 161.0000 1.0000
44.1400 155.0000 1.0000
44.1600 150.0000 1.0000
44.1800 140.0000 1.0000
44.2000 137.0000 1.0000
44.2200 145.0000 1.0000
44.2400 142.0000 1.0000
44.2600 138.0000 1.0000
44.2800 142.0000 1.0000
44.3000 117.0000 1.0000
44.3200 139.0000 1.0000
44.3400 120.0000 1.0000
44.3600 128.0000 1.0000
44.3800 115.0000 1.0000
44.4000 138.0000 1.0000
44.4200 122.0000 1.0000
44.4400 120.0000 1.0000
44.4600 149.0000 1.0000
44.4800 154.0000 1.0000
44.5000 155.0000 1.0000
44.5200 137.0000 1.0000
44.5400 165.0000 1.0000
44.5600 141.0000 1.0000
44.5800 166.0000 1.0000
44.6000 161.0000 1.0000
44.6200 153.0000 1.0000
44.6400 158.0000 1.0000
44.6600 178.0000 1.0000
44.6800 163.0000 1.0000
44.7000 165.0000 1.0000
44.7200 177.0000 1.0000
44.7400 198.0000 1.0000
44.7600 189.0000 1.0000
44.7800 193.0000 1.0000
44.8000 178.0000 1.0000
44.8200 187.0000 1.0000
44.8400 175.0000 1.0000
44.8600 203.0000 1.0000
44.8800 193.0000 1.0000
44.9000 187.0000 1.0000
44.9200 187.0000 1.0000
44.9400 187.0000 1.0000
44.9600 196.0000 1.0000
44.9800 161.0000 1.0000
45.0000 200.0000 1.0000
45.0200 178.0000 1.0000
45.0400 174.0000 1.0000
45.0600 148.0000 1.0000
45.0800 188.0000 1.0000
45.1000 182.0000 1.0000
45.1200 160.0000 1.0000
45.1400 168.0000 1.0000
45.1600 188.0000 1.0000
45.1800 186.0000 1.0000
45.2000 176.0000 1.0000
45.2200 158.0000 1.0000
45.2400 183.0000 1.0000
45.2600 164.0000 1.0000
45.2800 151.0000 1.0000
45.3000 178.0000 1.0000
45.3200 169.0000 1.0000
45.3400 174.0000 1.0000
45.3600 175.0000 1.0000
45.3800 171.0000 1.0000
45.4000 178.0000 1.0000
45.4200 187.0000 1.0000
45.4400 174.0000 1.0000
45.4600 192.0000 1.0000
45.4800 188.0000 1.0000
45.5000 201.0000 1.0000
45.5200 212.0000 1.0000
45.5400 205.0000 1.0000
45.5600 228.0000 1.0000
45.5800 246.0000 1.0000
45.6000 237.0000 1.0000
45.6200 293.0000 1.0000
45.6400 330.0000 1.0000
45.6600 386.0000 1.0000
45.6800 407.0000 1.0000
45.7000 426.0000 1.0000
45.7200 489.0000 1.0000
45.7400 500.0000 1.0000
45.7600 500.0000 1.0000
45.7800 422.0000 1.0000
45.8000 389.0000 1.0000
45.8200 365.0000 1.0000
45.8400 310.0000 1.0000
45.8600 282.0000 1.0000
45.8800 295.0000 1.0000
45.9000 266.0000 1.0000
45.9200 240.0000 1.0000
45.9400 202.0000 1.0000
45.9600 169.0000 1.0000
45.9800 157.0000 1.0000
46.0000 155.0000 1.0000
46.0200 154.0000 1.0000
46.0400 170.0000 1.0000
46.0600 142.0000 1.0000
46.0800 165.0000 1.0000
46.1000 161.0000 1.0000
46.1200 157.0000 1.0000
46.1400 148.0000 1.0000
46.1600 157.0000 1.0000
46.1800 150.0000 1.0000
46.2000 155.0000 1.0000
46.2200 135.0000 1.0000
46.2400 133.0000 1.0000
46.2600 134.0000 1.0000
46.2800 143.0000 1.0000
46.3000 124.0000 1.0000
46.3200 139.0000 1.0000
46.3400 131.0000 1.0000
46.3600 125.0000 1.0000
46.3800 127.0000 1.0000
46.4000 104.0000 1.0000
46.4200 106.0000 1.0000
46.4400 111.0000 1.0000
46.4600 107.0000 1.0000
46.4800 115.0000 1.0000
46.5000 125.0000 1.0000
46.5200 120.0000 1.0000
46.5400 113.0000 1.0000
46.5600 118.0000 1.0000
46.5800 114.0000 1.0000
46.6000 140.0000 1.0000
46.6200 114.0000 1.0000
46.6400 105.0000 1.0000
46.6600 130.0000 1.0000
46.6800 130.0000 1.0000
46.7000 142.0000 1.0000
46.7200 137.0000 1.0000
46.7400 137.0000 1.0000
46.7600 144.0000 1.0000
46.7800 155.0000 1.0000
46.8000 162.0000 1.0000
46.8200 168.0000 1.0000
46.8400 163.0000 1.0000
46.8600 166.0000 1.0000
46.8800 173.0000 1.0000
46.9000 153.0000 1.0000
46.9200 153.0000 1.0000
46.9400 150.0000 1.0000
46.9600 134.0000 1.0000
46.9800 144.0000 1.0000
47.0000 144.0000 1.0000
47.0200 153.0000 1.0000
47.0400 151.0000 1.0000
47.0600 140.0000 1.0000
47.0800 147.0000 1.0000
47.1000 142.0000 1.0000
47.1200 130.0000 1.0000
47.1400 125.0000 1.0000
47.1600 134.0000 1.0000
47.1800 131.0000 1.0000
47.2000 138.0000 1.0000
47.2200 160.0000 1.0000
47.2400 125.0000 1.0000
47.2600 123.0000 1.0000
47.2800 146.0000 1.0000
47.3000 142.0000 1.0000
47.3200 157.0000 1.0000
47.3400 160.0000 1.0000
47.3600 155.0000 1.0000
47.3800 165.0000 1.0000
47.4000 164.0000 1.0000
47.4200 161.0000 1.0000
47.4400 186.0000 1.0000
47.4600 180.0000 1.0000
47.4800 181.0000 1.0000
47.5000 171.0000 1.0000
47.5200 174.0000 1.0000
47.5400 181.0000 1.0000
47.5600 180.0000 1.0000
47.5800 177.0000 1.0000
47.6000 167.0000 1.0000
47.6200 162.0000 1.0000
47.6400 155.0000 1.0000
47.6600 153.0000 1.0000
47.6800 140.0000 1.0000
47.7000 146.0000 1.0000
47.7200 138.0000 1.0000
47.7400 121.0000 1.0000
47.7600 130.0000 1.0000
47.7800 135.0000 1.0000
47.8000 139.0000 1.0000
47.8200 141.0000 1.0000
47.8400 133.0000 1.0000
47.8600 137.0000 1.0000
47.8800 133.0000 1.0000
47.9000 133.0000 1.0000
47.9200 142.0000 1.0000
47.9400 137.0000 1.0000
47.9600 127.0000 1.0000
47.9800 126.0000 1.0000
48.0000 131.0000 1.0000
48.0200 137.0000 1.0000
48.0400 141.0000 1.0000
48.0600 144.0000 1.0000
48.0800 146.0000 1.0000
48.1000 156.0000 1.0000
48.1200 155.0000 1.0000
48.1400 152.0000 1.0000
48.1600 164.0000 1.0000
48.1800 167.0000 1.0000
48.2000 167.0000 1.0000
48.2200 176.0000 1.0000
48.2400 197.0000 1.0000
48.2600 214.0000 1.0000
48.2800 196.0000 1.0000
48.3000 201.0000 1.0000
48.3200 190.0000 1.0000
48.3400 189.0000 1.0000
48.3600 191.0000 1.0000
48.3800 178.0000 1.0000
48.4000 171.0000 1.0000
48.4200 174.0000 1.0000
48.4400 160.0000 1.0000
48.4600 154.0000 1.0000
48.4800 150.0000 1.0000
48.5000 159.0000 1.0000
48.5200 175.0000 1.0000
48.5400 150.0000 1.0000
48.5600 139.0000 1.0000
48.5800 166.0000 1.0000
48.6000 165.0000 1.0000
48.6200 140.0000 1.0000
48.6400 139.0000 1.0000
48.6600 150.0000 1.0000
48.6800 151.0000 1.0000
48.7000 152.0000 1.0000
48.7200 151.0000 1.0000
48.7400 159.0000 1.0000
48.7600 146.0000 1.0000
48.7800 130.0000 1.0000
48.8000 147.0000 1.0000
48.8200 153.0000 1.0000
48.8400 154.0000 1.0000
48.8600 168.0000 1.0000
48.8800 169.0000 1.0000
48.9000 168.0000 1.0000
48.9200 189.0000 1.0000
48.9400 188.0000 1.0000
48.9600 174.0000 1.0000
48.9800 185.0000 1.0000
49.0000 206.0000 1.0000
49.0200 211.0000 1.0000
49.0400 202.0000 1.0000
49.0600 214.0000 1.0000
49.0800 251.0000 1.0000
49.1000 271.0000 1.0000
49.1200 277.0000 1.0000
49.1400 274.0000 1.0000
49.1600 257.0000 1.0000
49.1800 248.0000 1.0000
49.2000 248.0000 1.0000
49.2200 252.0000 1.0000
49.2400 242.0000 1.0000
49.2600 230.0000 1.0000
49.2800 218.0000 1.0000
49.3000 205.0000 1.0000
49.3200 200.0000 1.0000
49.3400 189.0000 1.0000
49.3600 172.0000 1.0000
49.3800 168.0000 1.0000
49.4000 175.0000 1.0000
49.4200 184.0000 1.0000
49.4400 184.0000 1.0000
49.4600 193.0000 1.0000
49.4800 194.0000 1.0000
49.5000 183.0000 1.0000
49.5200 196.0000 1.0000
49.5400 200.0000 1.0000
49.5600 200.0000 1.0000
49.5800 217.0000 1.0000
49.6000 227.0000 1.0000
49.6200 226.0000 1.0000
49.6400 268.0000 1.0000
49.6600 284.0000 1.0000
49.6800 288.0000 1.0000
49.7000 335.0000 1.0000
49.7200 335.0000 1.0000
49.7400 344.0000 1.0000
49.7600 376.0000 1.0000
49.7800 401.0000 1.0000
49.8000 421.0000 1.0000
49.8200 408.0000 1.0000
49.8400 410.0000 1.0000
49.8600 410.0000 1.0000
49.8800 423.0000 1.0000
49.9000 434.0000 1.0000
49.9200 465.0000 1.0000
49.9400 499.0000 1.0000
49.9600 533.0000 1.0000
49.9800 663.0000 1.0000
50.0000 773.0000 1.0000
50.0200 890.0000 1.0000
50.0400 1014.0000 1.0000
50.0600 1143.0000 1.0000
50.0800 1184.0000 1.0000
50.1000 1163.0000 1.0000
50.1200 1090.0000 1.0000
50.1400 981.0000 1.0000
50.1600 885.0000 1.0000
50.1800 825.0000 1.0000
50.2000 767.0000 1.0000
50.2200 726.0000 1.0000
50.2400 654.0000 1.0000
50.2600 552.0000 1.0000
50.2800 452.0000 1.0000
50.3000 378.0000 1.0000
50.3200 302.0000 1.0000
50.3400 247.0000 1.0000
50.3600 243.0000 1.0000
50.3800 235.0000 1.0000
50.4000 240.0000 1.0000
50.4200 262.0000 1.0000
50.4400 273.0000 1.0000
50.4600 272.0000 1.0000
50.4800 303.0000 1.0000
50.5000 289.0000 1.0000
50.5200 288.0000 1.0000
50.5400 295.0000 1.0000
50.5600 311.0000 1.0000
50.5800 310.0000 1.0000
50.6000 292.0000 1.0000
50.6200 300.0000 1.0000
50.6400 330.0000 1.0000
50.6600 333.0000 1.0000
50.6800 341.0000 1.0000
50.7000 314.0000 1.0000
50.7200 301.0000 1.0000
50.7400 287.0000 1.0000
50.7600 291.0000 1.0000
50.7800 275.0000 1.0000
50.8000 257.0000 1.0000
50.8200 243.0000 1.0000
50.8400 217.0000 1.0000
50.8600 220.0000 1.0000
50.8800 189.0000 1.0000
50.9000 193.0000 1.0000
50.9200 169.0000 1.0000
50.9400 177.0000 1.0000
50.9600 164.0000 1.0000
50.9800 171.0000 1.0000
51.0000 164.0000 1.0000
51.0200 178.0000 1.0000
51.0400 189.0000 1.0000
51.0600 209.0000 1.0000
51.0800 208.0000 1.0000
51.1000 204.0000 1.0000
51.1200 204.0000 1.0000
51.1400 230.0000 1.0000
51.1600 255.0000 1.0000
51.1800 248.0000 1.0000
51.2000 268.0000 1.0000
51.2200 314.0000 1.0000
51.2400 328.0000 1.0000
51.2600 311.0000 1.0000
51.2800 338.0000 1.0000
51.3000 321.0000 1.0000
51.3200 295.0000 1.0000
51.3400 292.0000 1.0000
51.3600 309.0000 1.0000
51.3800 248.0000 1.0000
51.4000 234.0000 1.0000
51.4200 245.0000 1.0000
51.4400 223.0000 1.0000
51.4600 217.0000 1.0000
51.4800 201.0000 1.0000
51.5000 194.0000 1.0000
51.5200 151.0000 1.0000
51.5400 151.0000 1.0000
51.5600 134.0000 1.0000
51.5800 143.0000 1.0000
51.6000 133.0000 1.0000
51.6200 127.0000 1.0000
51.6400 138.0000 1.0000
51.6600 131.0000 1.0000
51.6800 130.0000 1.0000
51.7000 125.0000 1.0000
51.7200 130.0000 1.0000
51.7400 132.0000 1.0000
51.7600 147.0000 1.0000
51.7800 121.0000 1.0000
51.8000 124.0000 1.0000
51.8200 133.0000 1.0000
51.8400 120.0000 1.0000
51.8600 115.0000 1.0000
51.8800 133.0000 1.0000
51.9000 138.0000 1.0000
51.9200 148.0000 1.0000
51.9400 142.0000 1.0000
51.9600 154.0000 1.0000
51.9800 152.0000 1.0000
52.0000 135.0000 1.0000
52.0200 150.0000 1.0000
52.0400 137.0000 1.0000
52.0600 185.0000 1.0000
52.0800 153.0000 1.0000
52.1000 140.0000 1.0000
52.1200 169.0000 1.0000
52.1400 178.0000 1.0000
52.1600 179.0000 1.0000
52.1800 199.0000 1.0000
52.2000 198.0000 1.0000
52.2200 182.0000 1.0000
52.2400 211.0000 1.0000
52.2600 226.0000 1.0000
52.2800 253.0000 1.0000
52.3000 247.0000 1.0000
52.3200 278.0000 1.0000
52.3400 285.0000 1.0000
52.3600 323.0000 1.0000
52.3800 361.0000 1.0000
52.4000 467.0000 1.0000
52.4200 529.0000 1.0000
52.4400 586.0000 1.0000
52.4600 755.0000 1.0000
52.4800 732.0000 1.0000
52.5000 832.0000 1.0000
52.5200 864.0000 1.0000
52.5400 794.0000 1.0000
52.5600 757.0000 1.0000
52.5800 691.0000 1.0000
52.6000 670.0000 1.0000
52.6200 620.0000 1.0000
52.6400 576.0000 1.0000
52.6600 555.0000 1.0000
52.6800 504.0000 1.0000
52.7000 436.0000 1.0000
52.7200 369.0000 1.0000
52.7400 308.0000 1.0000
52.7600 291.0000 1.0000
52.7800 274.0000 1.0000
52.8000 232.0000 1.0000
52.8200 244.0000 1.0000
52.8400 231.0000 1.0000
52.8600 209.0000 1.0000
52.8800 232.0000 1.0000
52.9000 205.0000 1.0000
52.9200 194.0000 1.0000
52.9400 180.0000 1.0000
52.9600 195.0000 1.0000
52.9800 197.0000 1.0000
53.0000 214.0000 1.0000
53.0200 190.0000 1.0000
53.0400 196.0000 1.0000
53.0600 206.0000 1.0000
53.0800 219.0000 1.0000
53.1000 180.0000 1.0000
53.1200 192.0000 1.0000
53.1400 192.0000 1.0000
53.1600 187.0000 1.0000
53.1800 188.0000 1.0000
53.2000 191.0000 1.0000
53.2200 179.0000 1.0000
53.2400 193.0000 1.0000
53.2600 173.0000 1.0000
53.2800 166.0000 1.0000
53.3000 156.0000 1.0000
53.3200 190.0000 1.0000
53.3400 165.0000 1.0000
53.3600 158.0000 1.0000
53.3800 156.0000 1.0000
53.4000 153.0000 1.0000
53.4200 136.0000 1.0000
53.4400 150.0000 1.0000
53.4600 149.0000 1.0000
53.4800 117.0000 1.0000
53.5000 137.0000 1.0000
53.5200 149.0000 1.0000
53.5400 164.0000 1.0000
53.5600 140.0000 1.0000
53.5800 151.0000 1.0000
53.6000 133.0000 1.0000
53.6200 131.0000 1.0000
53.6400 130.0000 1.0000
53.6600 128.0000 1.0000
53.6800 134.0000 1.0000
53.7000 160.0000 1.0000
53.7200 143.0000 1.0000
53.7400 156.0000 1.0000
53.7600 131.0000 1.0000
53.7800 169.0000 1.0000
53.8000 151.0000 1.0000
53.8200 150.0000 1.0000
53.8400 143.0000 1.0000
53.8600 149.0000 1.0000
53.8800 150.0000 1.0000
53.9000 176.0000 1.0000
53.9200 175.0000 1.0000
53.9400 174.0000 1.0000
53.9600 164.0000 1.0000
53.9800 158.0000 1.0000
54.0000 150.0000 1.0000
54.0200 168.0000 1.0000
54.0400 180.0000 1.0000
54.0600 177.0000 1.0000
54.0800 175.0000 1.0000
54.1000 176.0000 1.0000
54.1200 174.0000 1.0000
54.1400 160.0000 1.0000
54.1600 156.0000 1.0000
54.1800 154.0000 1.0000
54.2000 171.0000 1.0000
54.2200 177.0000 1.0000
54.2400 185.0000 1.0000
54.2600 193.0000 1.0000
54.2800 173.0000 1.0000
54.3000 188.0000 1.0000
54.3200 194.0000 1.0000
54.3400 175.0000 1.0000
54.3600 184.0000 1.0000
54.3800 174.0000 1.0000
54.4000 177.0000 1.0000
54.4200 181.0000 1.0000
54.4400 193.0000 1.0000
54.4600 181.0000 1.0000
54.4800 177.0000 1.0000
54.5000 175.0000 1.0000
54.5200 180.0000 1.0000
54.5400 197.0000 1.0000
54.5600 176.0000 1.0000
54.5800 165.0000 1.0000
54.6000 170.0000 1.0000
54.6200 177.0000 1.0000
54.6400 198.0000 1.0000
54.6600 197.0000 1.0000
54.6800 211.0000 1.0000
54.7000 229.0000 1.0000
54.7200 256.0000 1.0000
54.7400 305.0000 1.0000
54.7600 323.0000 1.0000
54.7800 372.0000 1.0000
54.8000 440.0000 1.0000
54.8200 468.0000 1.0000
54.8400 461.0000 1.0000
54.8600 449.0000 1.0000
54.8800 401.0000 1.0000
54.9000 351.0000 1.0000
54.9200 337.0000 1.0000
54.9400 309.0000 1.0000
54.9600 309.0000 1.0000
54.9800 294.0000 1.0000
55.0000 266.0000 1.0000
55.0200 244.0000 1.0000
55.0400 215.0000 1.0000
55.0600 208.0000 1.0000
55.0800 198.0000 1.0000
55.1000 184.0000 1.0000
55.1200 171.0000 1.0000
55.1400 174.0000 1.0000
55.1600 194.0000 1.0000
55.1800 213.0000 1.0000
55.2000 211.0000 1.0000
55.2200 245.0000 1.0000
55.2400 273.0000 1.0000
55.2600 282.0000 1.0000
55.2800 283.0000 1.0000
55.3000 290.0000 1.0000
55.3200 272.0000 1.0000
55.3400 254.0000 1.0000
55.3600 257.0000 1.0000
55.3800 257.0000 1.0000
55.4000 239.0000 1.0000
55.4200 226.0000 1.0000
55.4400 245.0000 1.0000
55.4600 240.0000 1.0000
55.4800 221.0000 1.0000
55.5000 205.0000 1.0000
55.5200 191.0000 1.0000
55.5400 171.0000 1.0000
55.5600 162.0000 1.0000
55.5800 175.0000 1.0000
55.6000 166.0000 1.0000
55.6200 147.0000 1.0000
55.6400 152.0000 1.0000
55.6600 149.0000 1.0000
55.6800 151.0000 1.0000
55.7000 149.0000 1.0000
55.7200 132.0000 1.0000
55.7400 131.0000 1.0000
55.7600 133.0000 1.0000
55.7800 135.0000 1.0000
55.8000 135.0000 1.0000
55.8200 132.0000 1.0000
55.8400 131.0000 1.0000
55.8600 129.0000 1.0000
55.8800 134.0000 1.0000
55.9000 145.0000 1.0000
55.9200 150.0000 1.0000
55.9400 140.0000 1.0000
55.9600 143.0000 1.0000
55.9800 154.0000 1.0000
56.0000 136.0000 1.0000
56.0200 129.0000 1.0000
56.0400 136.0000 1.0000
56.0600 125.0000 1.0000
56.0800 126.0000 1.0000
56.1000 137.0000 1.0000
56.1200 143.0000 1.0000
56.1400 142.0000 1.0000
56.1600 138.0000 1.0000
56.1800 145.0000 1.0000
56.2000 141.0000 1.0000
56.2200 134.0000 1.0000
56.2400 144.0000 1.0000
56.2600 140.0000 1.0000
56.2800 130.0000 1.0000
56.3000 133.0000 1.0000
56.3200 133.0000 1.0000
56.3400 135.0000 1.0000
56.3600 118.0000 1.0000
56.3800 118.0000 1.0000
56.4000 133.0000 1.0000
56.4200 140.0000 1.0000
56.4400 146.0000 1.0000
56.4600 150.0000 1.0000
56.4800 145.0000 1.0000
56.5000 133.0000 1.0000
56.5200 134.0000 1.0000
56.5400 136.0000 1.0000
56.5600 135.0000 1.0000
56.5800 145.0000 1.0000
56.6000 157.0000 1.0000
56.6200 151.0000 1.0000
56.6400 157.0000 1.0000
56.6600 161.0000 1.0000
56.6800 161.0000 1.0000
56.7000 166.0000 1.0000
56.7200 168.0000 1.0000
56.7400 157.0000 1.0000
56.7600 147.0000 1.0000
56.7800 143.0000 1.0000
56.8000 155.0000 1.0000
56.8200 160.0000 1.0000
56.8400 142.0000 1.0000
56.8600 145.0000 1.0000
56.8800 145.0000 1.0000
56.9000 139.0000 1.0000
56.9200 142.0000 1.0000
56.9400 142.0000 1.0000
56.9600 138.0000 1.0000
56.9800 158.0000 1.0000
57.0000 160.0000 1.0000
57.0200 154.0000 1.0000
57.0400 159.0000 1.0000
57.0600 172.0000 1.0000
57.0800 178.0000 1.0000
57.1000 187.0000 1.0000
57.1200 189.0000 1.0000
57.1400 219.0000 1.0000
57.1600 228.0000 1.0000
57.1800 244.0000 1.0000
57.2000 238.0000 1.0000
57.2200 239.0000 1.0000
57.2400 280.0000 1.0000
57.2600 304.0000 1.0000
57.2800 350.0000 1.0000
57.3000 426.0000 1.0000
57.3200 495.0000 1.0000
57.3400 606.0000 1.0000
57.3600 798.0000 1.0000
57.3800 985.0000 1.0000
57.4000 1161.0000 1.0000
57.4200 1303.0000 1.0000
57.4400 1386.0000 1.0000
57.4600 1497.0000 1.0000
57.4800 1454.0000 1.0000
57.5000 1285.0000 1.0000
57.5200 1142.0000 1.0000
57.5400 1046.0000 1.0000
57.5600 1033.0000 1.0000
57.5800 985.0000 1.0000
57.6000 902.0000 1.0000
57.6200 842.0000 1.0000
57.6400 756.0000 1.0000
57.6600 644.0000 1.0000
57.6800 543.0000 1.0000
57.7000 425.0000 1.0000
57.7200 386.0000 1.0000
57.7400 298.0000 1.0000
57.7600 264.0000 1.0000
57.7800 256.0000 1.0000
57.8000 245.0000 1.0000
57.8200 230.0000 1.0000
57.8400 214.0000 1.0000
57.8600 195.0000 1.0000
57.8800 202.0000 1.0000
57.9000 195.0000 1.0000
57.9200 186.0000 1.0000
57.9400 192.0000 1.0000
57.9600 177.0000 1.0000
57.9800 160.0000 1.0000
58.0000 171.0000 1.0000
58.0200 165.0000 1.0000
58.0400 167.0000 1.0000
58.0600 171.0000 1.0000
58.0800 157.0000 1.0000
58.1000 142.0000 1.0000
58.1200 132.0000 1.0000
58.1400 142.0000 1.0000
58.1600 157.0000 1.0000
58.1800 134.0000 1.0000
58.2000 140.0000 1.0000
58.2200 133.0000 1.0000
58.2400 144.0000 1.0000
58.2600 149.0000 1.0000
58.2800 133.0000 1.0000
58.3000 138.0000 1.0000
58.3200 138.0000 1.0000
58.3400 142.0000 1.0000
58.3600 145.0000 1.0000
58.3800 162.0000 1.0000
58.4000 161.0000 1.0000
58.4200 133.0000 1.0000
58.4400 161.0000 1.0000
58.4600 162.0000 1.0000
58.4800 149.0000 1.0000
58.5000 188.0000 1.0000
58.5200 182.0000 1.0000
58.5400 160.0000 1.0000
58.5600 167.0000 1.0000
58.5800 162.0000 1.0000
58.6000 167.0000 1.0000
58.6200 161.0000 1.0000
58.6400 177.0000 1.0000
58.6600 179.0000 1.0000
58.6800 192.0000 1.0000
58.7000 178.0000 1.0000
58.7200 176.0000 1.0000
58.7400 176.0000 1.0000
58.7600 178.0000 1.0000
58.7800 153.0000 1.0000
58.8000 154.0000 1.0000
58.8200 139.0000 1.0000
58.8400 151.0000 1.0000
58.8600 149.0000 1.0000
58.8800 139.0000 1.0000
58.9000 141.0000 1.0000
58.9200 128.0000 1.0000
58.9400 130.0000 1.0000
58.9600 123.0000 1.0000
58.9800 145.0000 1.0000
59.0000 136.0000 1.0000
59.0200 142.0000 1.0000
59.0400 119.0000 1.0000
59.0600 134.0000 1.0000
59.0800 132.0000 1.0000
59.1000 164.0000 1.0000
59.1200 145.0000 1.0000
59.1400 154.0000 1.0000
59.1600 141.0000 1.0000
59.1800 158.0000 1.0000
59.2000 158.0000 1.0000
59.2200 156.0000 1.0000
59.2400 148.0000 1.0000
59.2600 151.0000 1.0000
59.2800 150.0000 1.0000
59.3000 160.0000 1.0000
59.3200 163.0000 1.0000
59.3400 151.0000 1.0000
59.3600 156.0000 1.0000
59.3800 180.0000 1.0000
59.4000 157.0000 1.0000
59.4200 159.0000 1.0000
59.4400 150.0000 1.0000
59.4600 172.0000 1.0000
59.4800 151.0000 1.0000
59.5000 185.0000 1.0000
59.5200 187.0000 1.0000
59.5400 186.0000 1.0000
59.5600 202.0000 1.0000
59.5800 181.0000 1.0000
59.6000 224.0000 1.0000
59.6200 211.0000 1.0000
59.6400 237.0000 1.0000
59.6600 230.0000 1.0000
59.6800 253.0000 1.0000
59.7000 286.0000 1.0000
59.7200 292.0000 1.0000
59.7400 280.0000 1.0000
59.7600 335.0000 1.0000
59.7800 342.0000 1.0000
59.8000 450.0000 1.0000
59.8200 494.0000 1.0000
59.8400 536.0000 1.0000
59.8600 730.0000 1.0000
59.8800 794.0000 1.0000
59.9000 823.0000 1.0000
59.9200 846.0000 1.0000
59.9400 880.0000 1.0000
59.9600 777.0000 1.0000
59.9800 674.0000 1.0000
60.0000 677.0000 1.0000
60.0200 600.0000 1.0000
60.0400 570.0000 1.0000
60.0600 601.0000 1.0000
60.0800 550.0000 1.0000
60.1000 517.0000 1.0000
60.1200 476.0000 1.0000
60.1400 427.0000 1.0000
60.1600 385.0000 1.0000
60.1800 291.0000 1.0000
60.2000 295.0000 1.0000
60.2200 256.0000 1.0000
60.2400 234.0000 1.0000
60.2600 221.0000 1.0000
60.2800 233.0000 1.0000
60.3000 207.0000 1.0000
60.3200 226.0000 1.0000
60.3400 217.0000 1.0000
60.3600 183.0000 1.0000
60.3800 182.0000 1.0000
60.4000 173.0000 1.0000
60.4200 207.0000 1.0000
60.4400 180.0000 1.0000
60.4600 172.0000 1.0000
60.4800 187.0000 1.0000
60.5000 170.0000 1.0000
60.5200 169.0000 1.0000
60.5400 196.0000 1.0000
60.5600 168.0000 1.0000
60.5800 168.0000 1.0000
60.6000 182.0000 1.0000
60.6200 206.0000 1.0000
60.6400 159.0000 1.0000
60.6600 181.0000 1.0000
60.6800 175.0000 1.0000
60.7000 167.0000 1.0000
60.7200 182.0000 1.0000
60.7400 179.0000 1.0000
60.7600 184.0000 1.0000
60.7800 170.0000 1.0000
60.8000 174.0000 1.0000
60.8200 159.0000 1.0000
60.8400 161.0000 1.0000
60.8600 179.0000 1.0000
60.8800 175.0000 1.0000
60.9000 170.0000 1.0000
60.9200 182.0000 1.0000
60.9400 169.0000 1.0000
60.9600 153.0000 1.0000
60.9800 198.0000 1.0000
61.0000 152.0000 1.0000
61.0200 198.0000 1.0000
61.0400 167.0000 1.0000
61.0600 206.0000 1.0000
61.0800 199.0000 1.0000
61.1000 207.0000 1.0000
61.1200 199.0000 1.0000
61.1400 221.0000 1.0000
61.1600 214.0000 1.0000
61.1800 244.0000 1.0000
61.2000 267.0000 1.0000
61.2200 292.0000 1.0000
61.2400 277.0000 1.0000
61.2600 280.0000 1.0000
61.2800 271.0000 1.0000
61.3000 295.0000 1.0000
61.3200 266.0000 1.0000
61.3400 217.0000 1.0000
61.3600 243.0000 1.0000
61.3800 213.0000 1.0000
61.4000 201.0000 1.0000
61.4200 212.0000 1.0000
61.4400 198.0000 1.0000
61.4600 217.0000 1.0000
61.4800 185.0000 1.0000
61.5000 165.0000 1.0000
61.5200 190.0000 1.0000
61.5400 186.0000 1.0000
61.5600 182.0000 1.0000
61.5800 184.0000 1.0000
61.6000 177.0000 1.0000
61.6200 177.0000 1.0000
61.6400 187.0000 1.0000
61.6600 199.0000 1.0000
61.6800 209.0000 1.0000
61.7000 191.0000 1.0000
61.7200 192.0000 1.0000
61.7400 201.0000 1.0000
61.7600 193.0000 1.0000
61.7800 182.0000 1.0000
61.8000 166.0000 1.0000
61.8200 184.0000 1.0000
61.8400 201.0000 1.0000
61.8600 193.0000 1.0000
61.8800 195.0000 1.0000
61.9000 207.0000 1.0000
61.9200 187.0000 1.0000
61.9400 158.0000 1.0000
61.9600 183.0000 1.0000
61.9800 177.0000 1.0000
62.0000 169.0000 1.0000
62.0200 202.0000 1.0000
62.0400 174.0000 1.0000
62.0600 178.0000 1.0000
62.0800 211.0000 1.0000
62.1000 193.0000 1.0000
62.1200 180.0000 1.0000
62.1400 171.0000 1.0000
62.1600 185.0000 1.0000
62.1800 165.0000 1.0000
62.2000 176.0000 1.0000
62.2200 172.0000 1.0000
62.2400 179.0000 1.0000
62.2600 176.0000 1.0000
62.2800 181.0000 1.0000
62.3000 177.0000 1.0000
62.3200 172.0000 1.0000
62.3400 187.0000 1.0000
62.3600 167.0000 1.0000
62.3800 198.0000 1.0000
62.4000 181.0000 1.0000
62.4200 185.0000 1.0000
62.4400 168.0000 1.0000
62.4600 185.0000 1.0000
62.4800 172.0000 1.0000
62.5000 153.0000 1.0000
62.5200 168.0000 1.0000
62.5400 172.0000 1.0000
62.5600 179.0000 1.0000
62.5800 175.0000 1.0000
62.6000 161.0000 1.0000
62.6200 161.0000 1.0000
62.6400 162.0000 1.0000
62.6600 182.0000 1.0000
62.6800 181.0000 1.0000
62.7000 173.0000 1.0000
62.7200 161.0000 1.0000
62.7400 152.0000 1.0000
62.7600 139.0000 1.0000
62.7800 143.0000 1.0000
62.8000 181.0000 1.0000
62.8200 168.0000 1.0000
62.8400 154.0000 1.0000
62.8600 145.0000 1.0000
62.8800 172.0000 1.0000
62.9000 165.0000 1.0000
62.9200 158.0000 1.0000
62.9400 155.0000 1.0000
62.9600 166.0000 1.0000
62.9800 169.0000 1.0000
63.0000 154.0000 1.0000
63.0200 166.0000 1.0000
63.0400 167.0000 1.0000
63.0600 182.0000 1.0000
63.0800 162.0000 1.0000
63.1000 167.0000 1.0000
63.1200 139.0000 1.0000
63.1400 158.0000 1.0000
63.1600 159.0000 1.0000
63.1800 153.0000 1.0000
63.2000 132.0000 1.0000
63.2200 142.0000 1.0000
63.2400 158.0000 1.0000
63.2600 163.0000 1.0000
63.2800 152.0000 1.0000
63.3000 170.0000 1.0000
63.3200 156.0000 1.0000
63.3400 149.0000 1.0000
63.3600 157.0000 1.0000
63.3800 156.0000 1.0000
63.4000 168.0000 1.0000
63.4200 177.0000 1.0000
63.4400 159.0000 1.0000
63.4600 177.0000 1.0000
63.4800 190.0000 1.0000
63.5000 191.0000 1.0000
63.5200 165.0000 1.0000
63.5400 184.0000 1.0000
63.5600 193.0000 1.0000
63.5800 187.0000 1.0000
63.6000 205.0000 1.0000
63.6200 208.0000 1.0000
63.6400 210.0000 1.0000
63.6600 207.0000 1.0000
63.6800 217.0000 1.0000
63.7000 226.0000 1.0000
63.7200 223.0000 1.0000
63.7400 254.0000 1.0000
63.7600 247.0000 1.0000
63.7800 252.0000 1.0000
63.8000 241.0000 1.0000
63.8200 258.0000 1.0000
63.8400 252.0000 1.0000
63.8600 265.0000 1.0000
63.8800 266.0000 1.0000
63.9000 273.0000 1.0000
63.9200 277.0000 1.0000
63.9400 319.0000 1.0000
63.9600 300.0000 1.0000
63.9800 321.0000 1.0000
64.0000 316.0000 1.0000
64.0200 289.0000 1.0000
64.0400 297.0000 1.0000
64.0600 271.0000 1.0000
64.0800 218.0000 1.0000
64.1000 218.0000 1.0000
64.1200 219.0000 1.0000
64.1400 241.0000 1.0000
64.1600 243.0000 1.0000
64.1800 233.0000 1.0000
64.2000 199.0000 1.0000
64.2200 192.0000 1.0000
64.2400 188.0000 1.0000
64.2600 180.0000 1.0000
64.2800 155.0000 1.0000
64.3000 167.0000 1.0000
64.3200 165.0000 1.0000
64.3400 162.0000 1.0000
64.3600 167.0000 1.0000
64.3800 158.0000 1.0000
64.4000 156.0000 1.0000
64.4200 164.0000 1.0000
64.4400 167.0000 1.0000
64.4600 161.0000 1.0000
64.4800 171.0000 1.0000
64.5000 171.0000 1.0000
64.5200 165.0000 1.0000
64.5400 155.0000 1.0000
64.5600 152.0000 1.0000
64.5800 158.0000 1.0000
64.6000 150.0000 1.0000
64.6200 138.0000 1.0000
64.6400 152.0000 1.0000
64.6600 148.0000 1.0000
64.6800 139.0000 1.0000
64.7000 125.0000 1.0000
64.7200 138.0000 1.0000
64.7400 140.0000 1.0000
64.7600 117.0000 1.0000
64.7800 131.0000 1.0000
64.8000 138.0000 1.0000
64.8200 141.0000 1.0000
64.8400 145.0000 1.0000
64.8600 144.0000 1.0000
64.8800 150.0000 1.0000
64.9000 157.0000 1.0000
64.9200 154.0000 1.0000
64.9400 152.0000 1.0000
64.9600 152.0000 1.0000
64.9800 152.0000 1.0000
65.0000 152.0000 1.0000
*RAS_INT_END
*RAS_DATA_END
