*RAS_DATA_START
*RAS_HEADER_START
*CORR_POS_DB_NAME "Angle Correction ASC6 SC WITH Mono_04082019"
*CORR_POS_GONIO_RADIUS ""
*CORR_POS_NODE_INDEX01 ""
*CORR_POS_NODE_INDEX02 ""
*CORR_POS_NODE_INDEX03 ""
*CORR_POS_NODE_INDEX04 ""
*CORR_POS_NODE_INDEX05 ""
*CORR_POS_NODE_INDEX06 ""
*CORR_POS_NODE_INDEX07 ""
*CORR_POS_NODE_INDEX08 ""
*CORR_POS_NODE_INDEX09 ""
*CORR_POS_NODE_INDEX10 ""
*CORR_POS_NODE_INDEX11 ""
*CORR_POS_NODE_LABEL01 "Si(111)"
*CORR_POS_NODE_LABEL02 "Si(220)"
*CORR_POS_NODE_LABEL03 "Si(311)"
*CORR_POS_NODE_LABEL04 "Si(400)"
*CORR_POS_NODE_LABEL05 "Si(331)"
*CORR_POS_NODE_LABEL06 "Si(422)"
*CORR_POS_NODE_LABEL07 "Si(511)"
*CORR_POS_NODE_LABEL08 "Si(440)"
*CORR_POS_NODE_LABEL09 "Si(531)"
*CORR_POS_NODE_LABEL10 "Si(620)"
*CORR_POS_NODE_LABEL11 "Si(533)"
*CORR_POS_NODE_POS_CALC01 "28.377"
*CORR_POS_NODE_POS_CALC02 "47.2506"
*CORR_POS_NODE_POS_CALC03 "56.0725"
*CORR_POS_NODE_POS_CALC04 "69.0822"
*CORR_POS_NODE_POS_CALC05 "76.3294"
*CORR_POS_NODE_POS_CALC06 "87.9853"
*CORR_POS_NODE_POS_CALC07 "94.9091"
*CORR_POS_NODE_POS_CALC08 "106.668"
*CORR_POS_NODE_POS_CALC09 "114.054"
*CORR_POS_NODE_POS_CALC10 "127.511"
*CORR_POS_NODE_POS_CALC11 "136.864"
*CORR_POS_NODE_POS_MEAS01 "28.5058"
*CORR_POS_NODE_POS_MEAS02 "47.345"
*CORR_POS_NODE_POS_MEAS03 "56.1421"
*CORR_POS_NODE_POS_MEAS04 "69.1304"
*CORR_POS_NODE_POS_MEAS05 "76.366"
*CORR_POS_NODE_POS_MEAS06 "88.0213"
*CORR_POS_NODE_POS_MEAS07 "94.9406"
*CORR_POS_NODE_POS_MEAS08 "106.689"
*CORR_POS_NODE_POS_MEAS09 "114.065"
*CORR_POS_NODE_POS_MEAS10 "127.518"
*CORR_POS_NODE_POS_MEAS11 "136.869"
*CORR_POS_OPT_ATTR "集中法"
*CORR_POS_PARAM_MU ""
*CORR_POS_PARAM_PL ""
*CORR_POS_SEMODEL_TYPE "0"
*CORR_POS_STANDARD_TYPE ""
*CORR_POS_VALUE_ANALYZER "None"
*CORR_POS_VALUE_CMONO "None"
*CORR_POS_VALUE_IMONO "None"
*CORR_POS_VALUE_IS "1.250deg"
*CORR_POS_VALUE_ISL "10.0mm"
*CORR_POS_VALUE_ISOLLER "5.0deg"
*CORR_POS_VALUE_RS1 "1.250deg"
*CORR_POS_VALUE_RS2 "0.3mm"
*CORR_POS_VALUE_RSOLLER "5.0deg"
*CORR_POS_XG_FOCUS_L ""
*CORR_POS_XG_WAVE_TYPE ""
*CORR_POS_XG_WAVE_VALUE ""
*DISP_FMT_X "%.2f"
*DISP_FMT_Y "%.0f"
*DISP_FULLSCALE "4862.4000000000"
*DISP_LINE_COLOR "255.0000000000"
*DISP_LINE_STYLE "0.0000000000"
*DISP_LINE_WIDTH "0.2500000000"
*DISP_NOTE "Collected Data-25"
*DISP_OFFSET_Y "0.0000000000"
*DISP_PEAKSEARCH_UNIT_Y "CPS"
*DISP_RANGE_BOTTOM "0.0000000000"
*DISP_RANGE_LEFT "5.0000000000"
*DISP_RANGE_LOGCUTOFF "0.0100000000"
*DISP_RANGE_RIGHT "65.0000000000"
*DISP_RANGE_TOP "4862.4000000000"
*DISP_SCALE_MODE_Y "0.0000000000"
*DISP_TAB_NAME "Theta/2-Theta"
*DISP_TITLE_Y "Intensity"
*DISP_UNIT_Y "CPS"
*DISP_WINDOW_NAME "MSG_MACROENGINE"
*FILE_COMMENT " "
*FILE_MD5 ""
*FILE_MEMO " "
*FILE_OPERATOR "Administrator"
*FILE_PART_ID "MEAS_PBEA_00223"
*FILE_SAMPLE " "
*FILE_TYPE "RAS_RAW"
*FILE_USERGROUP "System Manager"
*FILE_VERSION "1.0000000000"
*HW_ATTACHMENT_ID "ATT1031"
*HW_ATTACHMENT_NAME "6サンプルチェンジャ|ASC-6"
*HW_COUNTER_ID-0 "CUT0021"
*HW_COUNTER_ID-1 "CUT0020"
*HW_COUNTER_ID-2 "CUT0020"
*HW_COUNTER_ID-3 "CMC0021"
*HW_COUNTER_NAME-0 "SC-70|SC-70"
*HW_COUNTER_NAME-1 "None|None"
*HW_COUNTER_NAME-2 "None|None"
*HW_COUNTER_NAME-3 "検出器モノクロメータ|Detector monochromator"
*HW_COUNTER_SELECT_NAME "SC-70|SC-70"
*HW_ECP_HV "671.5000000000"
*HW_ECP_HV_UNIT "V"
*HW_GONIOMETER_ID "GON0070"
*HW_GONIOMETER_NAME "MiniFlex 300/600|MiniFlex 300/600"
*HW_GONIOMETER_RADIUS-0 "79.0"
*HW_GONIOMETER_RADIUS-1 "91.5"
*HW_GONIOMETER_RADIUS-2 "150.0"
*HW_GONIOMETER_RADIUS-3 "0"
*HW_GONIOMETER_RADIUS-4 "103.4"
*HW_GONIOMETER_RADIUS-5 "150.0"
*HW_GONIOMETER_RADIUS-6 "46.6"
*HW_GONIOMETER_RADIUS-7 "160.0"
*HW_I_OPT_ID-0 "ISL0021"
*HW_I_OPT_ID-1 "ISO0021"
*HW_I_OPT_NAME-0 "発散スリット|Divergence slit"
*HW_I_OPT_NAME-1 "入射平行スリット|Incident parallel slit"
*HW_R_ATTENUATER_AUTOMODE "0"
*HW_R_OPT_ID-0 "RSS0021"
*HW_R_OPT_ID-1 "RSO0021"
*HW_R_OPT_ID-2 "RRS0021"
*HW_R_OPT_NAME-0 "散乱スリット|Scattering slit"
*HW_R_OPT_NAME-1 "受光平行スリット|Receiving soller slit"
*HW_R_OPT_NAME-2 "受光スリット|Receiving slit"
*HW_SAMPLE_HOLDER_ID "SMP0000"
*HW_SAMPLE_HOLDER_NAME "無し|None"
*HW_XG_CURRENT_MAX "15"
*HW_XG_CURRENT_MIN "2"
*HW_XG_CURRENT_RESOLUTION "1"
*HW_XG_CURRENT_UNIT "mA"
*HW_XG_FOCUS "1mm x 10mm"
*HW_XG_FOCUS_TYPE "Normal"
*HW_XG_ID "1060"
*HW_XG_NAME "300W/600W 封入管-B|300W/600W Sealed tube-B"
*HW_XG_TARGET_ATOMIC_NUMBER "29.0000000000"
*HW_XG_TARGET_NAME "Cu"
*HW_XG_TYPE "Hermetic"
*HW_XG_VOLTAGE_MAX "40"
*HW_XG_VOLTAGE_MIN "20"
*HW_XG_VOLTAGE_RESOLUTION "1"
*HW_XG_VOLTAGE_UNIT "kV"
*HW_XG_WATT_MAX "0.600"
*HW_XG_WATT_UNIT "kW"
*HW_XG_WAVE_LENGTH_ALPHA1 "1.540593"
*HW_XG_WAVE_LENGTH_ALPHA2 "1.544414"
*HW_XG_WAVE_LENGTH_BETA "1.392250"
*MEAS_COND_AXIS_NAME-0 "Theta/2-Theta"
*MEAS_COND_AXIS_NAME-1 "Spin"
*MEAS_COND_AXIS_NAME-2 "Change"
*MEAS_COND_AXIS_NAME-3 "Soller(inc.)"
*MEAS_COND_AXIS_NAME-4 "IHS"
*MEAS_COND_AXIS_NAME-5 "DS"
*MEAS_COND_AXIS_NAME-6 "SS"
*MEAS_COND_AXIS_NAME-7 "Soller(rec.)"
*MEAS_COND_AXIS_NAME-8 "RS"
*MEAS_COND_AXIS_NAME-9 "Filter"
*MEAS_COND_AXIS_NAME-10 "Monochromator"
*MEAS_COND_AXIS_NAME-11 "HV"
*MEAS_COND_AXIS_NAME-12 "PHA"
*MEAS_COND_AXIS_NAME_INTERNAL-0 "TwoThetaTheta"
*MEAS_COND_AXIS_NAME_INTERNAL-1 "Spin"
*MEAS_COND_AXIS_NAME_INTERNAL-2 "Change"
*MEAS_COND_AXIS_NAME_INTERNAL-3 "IncidentSollerSlit"
*MEAS_COND_AXIS_NAME_INTERNAL-4 "IncidentAxdSlit"
*MEAS_COND_AXIS_NAME_INTERNAL-5 "IncidentSlitBox"
*MEAS_COND_AXIS_NAME_INTERNAL-6 "ReceivingSlitBox1"
*MEAS_COND_AXIS_NAME_INTERNAL-7 "ReceivingSollerSlit"
*MEAS_COND_AXIS_NAME_INTERNAL-8 "ReceivingSlitBox2"
*MEAS_COND_AXIS_NAME_INTERNAL-9 "Filter"
*MEAS_COND_AXIS_NAME_INTERNAL-10 "CounterMonochromator"
*MEAS_COND_AXIS_NAME_INTERNAL-11 "HV"
*MEAS_COND_AXIS_NAME_INTERNAL-12 "PHA"
*MEAS_COND_AXIS_NAME_MAGICNO-0 "268632064.0000000000"
*MEAS_COND_AXIS_NAME_MAGICNO-1 "16842752.0000000000"
*MEAS_COND_AXIS_NAME_MAGICNO-2 "16842752.0000000000"
*MEAS_COND_AXIS_NAME_MAGICNO-3 "20971521.0000000000"
*MEAS_COND_AXIS_NAME_MAGICNO-4 "22020097.0000000000"
*MEAS_COND_AXIS_NAME_MAGICNO-5 "22020097.0000000000"
*MEAS_COND_AXIS_NAME_MAGICNO-6 "23068673.0000000000"
*MEAS_COND_AXIS_NAME_MAGICNO-7 "20971521.0000000000"
*MEAS_COND_AXIS_NAME_MAGICNO-8 "23068673.0000000000"
*MEAS_COND_AXIS_NAME_MAGICNO-9 "20971521.0000000000"
*MEAS_COND_AXIS_NAME_MAGICNO-10 "20971521.0000000000"
*MEAS_COND_AXIS_NAME_MAGICNO-11 "0.0000000000"
*MEAS_COND_AXIS_NAME_MAGICNO-12 "0.0000000000"
*MEAS_COND_AXIS_OFFSET-0 "0.0000000000"
*MEAS_COND_AXIS_OFFSET-1 "-"
*MEAS_COND_AXIS_OFFSET-2 "-"
*MEAS_COND_AXIS_OFFSET-3 "-"
*MEAS_COND_AXIS_OFFSET-4 "-"
*MEAS_COND_AXIS_OFFSET-5 "-"
*MEAS_COND_AXIS_OFFSET-6 "-"
*MEAS_COND_AXIS_OFFSET-7 "-"
*MEAS_COND_AXIS_OFFSET-8 "-"
*MEAS_COND_AXIS_OFFSET-9 "-"
*MEAS_COND_AXIS_OFFSET-10 "-"
*MEAS_COND_AXIS_OFFSET-11 "-"
*MEAS_COND_AXIS_OFFSET-12 "-"
*MEAS_COND_AXIS_POSITION-0 "65.0000000000"
*MEAS_COND_AXIS_POSITION-1 "0.0000000000"
*MEAS_COND_AXIS_POSITION-2 "5.0000000000"
*MEAS_COND_AXIS_POSITION-3 "5.0deg"
*MEAS_COND_AXIS_POSITION-4 "10.0mm"
*MEAS_COND_AXIS_POSITION-5 "1.250deg"
*MEAS_COND_AXIS_POSITION-6 "1.250deg"
*MEAS_COND_AXIS_POSITION-7 "5.0deg"
*MEAS_COND_AXIS_POSITION-8 "0.3mm"
*MEAS_COND_AXIS_POSITION-9 "None"
*MEAS_COND_AXIS_POSITION-10 "Bent"
*MEAS_COND_AXIS_POSITION-11 "671.5000000000"
*MEAS_COND_AXIS_POSITION-12 "551.2500000000"
*MEAS_COND_AXIS_UNIT-0 "deg"
*MEAS_COND_AXIS_UNIT-1 ""
*MEAS_COND_AXIS_UNIT-2 ""
*MEAS_COND_AXIS_UNIT-3 ""
*MEAS_COND_AXIS_UNIT-4 ""
*MEAS_COND_AXIS_UNIT-5 ""
*MEAS_COND_AXIS_UNIT-6 ""
*MEAS_COND_AXIS_UNIT-7 ""
*MEAS_COND_AXIS_UNIT-8 ""
*MEAS_COND_AXIS_UNIT-9 ""
*MEAS_COND_AXIS_UNIT-10 ""
*MEAS_COND_AXIS_UNIT-11 "V"
*MEAS_COND_AXIS_UNIT-12 "mV"
*MEAS_COND_CORRECTION_SLIT_COUNTERMONO "None"
*MEAS_COND_CORRECTION_SLIT_DS "1.250deg"
*MEAS_COND_CORRECTION_SLIT_FILTER "None"
*MEAS_COND_CORRECTION_SLIT_IHS "10.0mm"
*MEAS_COND_CORRECTION_SLIT_RS "0.3mm"
*MEAS_COND_CORRECTION_SLIT_SOLLER_INC "5.0deg"
*MEAS_COND_CORRECTION_SLIT_SOLLER_REC "5.0deg"
*MEAS_COND_CORRECTION_SLIT_SS "1.250deg"
*MEAS_COND_COUNTER_CNTLOSS_CORR "0.0000000000"
*MEAS_COND_COUNTER_PHABASE "551.2500000000"
*MEAS_COND_COUNTER_PHAWINDOW "926.2500000000"
*MEAS_COND_COUNTER_PHA_UNIT "mV"
*MEAS_COND_COUNTER_TAUDIFF "0.2500000000"
*MEAS_COND_COUNTER_TAUINT "0.7500000000"
*MEAS_COND_IRRADIATION_MODE "OFF"
*MEAS_COND_IRRADIATION_WIDTH ""
*MEAS_COND_OPT_ATTR " "
*MEAS_COND_OPT_NAME ""
*MEAS_COND_UNSYMMETRIC_MODE "OFF"
*MEAS_COND_XG_CURRENT "15.0000000000"
*MEAS_COND_XG_VOLTAGE "40.0000000000"
*MEAS_COND_XG_WAVE_TYPE "Ka"
*MEAS_DATA_COUNT "3001.0000000000"
*MEAS_SCAN_AXIS_X "Theta/2-Theta"
*MEAS_SCAN_AXIS_X_INTERNAL "TwoThetaTheta"
*MEAS_SCAN_END_TIME "05/08/25 01:58:22"
*MEAS_SCAN_MODE "STEP"
*MEAS_SCAN_MONITOR "0"
*MEAS_SCAN_RESOLUTION_X "0.0025"
*MEAS_SCAN_SPEED "2.00"
*MEAS_SCAN_SPEED_UNIT "sec."
*MEAS_SCAN_SPEED_USER "2.00"
*MEAS_SCAN_START "5.0000000000"
*MEAS_SCAN_START_TIME "05/08/25 00:13:06"
*MEAS_SCAN_STEP "0.0200000000"
*MEAS_SCAN_STOP "65.0000000000"
*MEAS_SCAN_UNIT_X "deg"
*MEAS_SCAN_UNIT_Y "counts"
*SLIT_SYSTEM "0"
*RAS_HEADER_END
*RAS_INT_START
5.0000 1008.0000 1.0000
5.0200 870.0000 1.0000
5.0400 1041.0000 1.0000
5.0600 989.0000 1.0000
5.0800 897.0000 1.0000
5.1000 908.0000 1.0000
5.1200 996.0000 1.0000
5.1400 963.0000 1.0000
5.1600 1017.0000 1.0000
5.1800 1042.0000 1.0000
5.2000 941.0000 1.0000
5.2200 927.0000 1.0000
5.2400 898.0000 1.0000
5.2600 919.0000 1.0000
5.2800 859.0000 1.0000
5.3000 902.0000 1.0000
5.3200 899.0000 1.0000
5.3400 874.0000 1.0000
5.3600 871.0000 1.0000
5.3800 826.0000 1.0000
5.4000 861.0000 1.0000
5.4200 837.0000 1.0000
5.4400 910.0000 1.0000
5.4600 937.0000 1.0000
5.4800 879.0000 1.0000
5.5000 859.0000 1.0000
5.5200 832.0000 1.0000
5.5400 829.0000 1.0000
5.5600 930.0000 1.0000
5.5800 853.0000 1.0000
5.6000 880.0000 1.0000
5.6200 844.0000 1.0000
5.6400 798.0000 1.0000
5.6600 831.0000 1.0000
5.6800 924.0000 1.0000
5.7000 914.0000 1.0000
5.7200 895.0000 1.0000
5.7400 895.0000 1.0000
5.7600 943.0000 1.0000
5.7800 892.0000 1.0000
5.8000 818.0000 1.0000
5.8200 809.0000 1.0000
5.8400 815.0000 1.0000
5.8600 797.0000 1.0000
5.8800 807.0000 1.0000
5.9000 842.0000 1.0000
5.9200 849.0000 1.0000
5.9400 830.0000 1.0000
5.9600 868.0000 1.0000
5.9800 931.0000 1.0000
6.0000 943.0000 1.0000
6.0200 893.0000 1.0000
6.0400 931.0000 1.0000
6.0600 909.0000 1.0000
6.0800 817.0000 1.0000
6.1000 821.0000 1.0000
6.1200 861.0000 1.0000
6.1400 833.0000 1.0000
6.1600 785.0000 1.0000
6.1800 810.0000 1.0000
6.2000 750.0000 1.0000
6.2200 682.0000 1.0000
6.2400 721.0000 1.0000
6.2600 737.0000 1.0000
6.2800 791.0000 1.0000
6.3000 800.0000 1.0000
6.3200 745.0000 1.0000
6.3400 731.0000 1.0000
6.3600 740.0000 1.0000
6.3800 749.0000 1.0000
6.4000 727.0000 1.0000
6.4200 710.0000 1.0000
6.4400 734.0000 1.0000
6.4600 694.0000 1.0000
6.4800 692.0000 1.0000
6.5000 692.0000 1.0000
6.5200 739.0000 1.0000
6.5400 717.0000 1.0000
6.5600 723.0000 1.0000
6.5800 738.0000 1.0000
6.6000 739.0000 1.0000
6.6200 703.0000 1.0000
6.6400 681.0000 1.0000
6.6600 662.0000 1.0000
6.6800 679.0000 1.0000
6.7000 689.0000 1.0000
6.7200 681.0000 1.0000
6.7400 654.0000 1.0000
6.7600 666.0000 1.0000
6.7800 689.0000 1.0000
6.8000 695.0000 1.0000
6.8200 679.0000 1.0000
6.8400 666.0000 1.0000
6.8600 673.0000 1.0000
6.8800 679.0000 1.0000
6.9000 674.0000 1.0000
6.9200 651.0000 1.0000
6.9400 643.0000 1.0000
6.9600 609.0000 1.0000
6.9800 607.0000 1.0000
7.0000 632.0000 1.0000
7.0200 604.0000 1.0000
7.0400 608.0000 1.0000
7.0600 656.0000 1.0000
7.0800 631.0000 1.0000
7.1000 587.0000 1.0000
7.1200 580.0000 1.0000
7.1400 623.0000 1.0000
7.1600 665.0000 1.0000
7.1800 648.0000 1.0000
7.2000 641.0000 1.0000
7.2200 598.0000 1.0000
7.2400 593.0000 1.0000
7.2600 633.0000 1.0000
7.2800 621.0000 1.0000
7.3000 622.0000 1.0000
7.3200 620.0000 1.0000
7.3400 616.0000 1.0000
7.3600 591.0000 1.0000
7.3800 597.0000 1.0000
7.4000 646.0000 1.0000
7.4200 644.0000 1.0000
7.4400 673.0000 1.0000
7.4600 696.0000 1.0000
7.4800 642.0000 1.0000
7.5000 608.0000 1.0000
7.5200 646.0000 1.0000
7.5400 669.0000 1.0000
7.5600 625.0000 1.0000
7.5800 638.0000 1.0000
7.6000 656.0000 1.0000
7.6200 628.0000 1.0000
7.6400 631.0000 1.0000
7.6600 641.0000 1.0000
7.6800 581.0000 1.0000
7.7000 611.0000 1.0000
7.7200 656.0000 1.0000
7.7400 599.0000 1.0000
7.7600 571.0000 1.0000
7.7800 608.0000 1.0000
7.8000 616.0000 1.0000
7.8200 585.0000 1.0000
7.8400 577.0000 1.0000
7.8600 585.0000 1.0000
7.8800 600.0000 1.0000
7.9000 563.0000 1.0000
7.9200 561.0000 1.0000
7.9400 654.0000 1.0000
7.9600 620.0000 1.0000
7.9800 578.0000 1.0000
8.0000 610.0000 1.0000
8.0200 594.0000 1.0000
8.0400 606.0000 1.0000
8.0600 600.0000 1.0000
8.0800 597.0000 1.0000
8.1000 620.0000 1.0000
8.1200 612.0000 1.0000
8.1400 576.0000 1.0000
8.1600 588.0000 1.0000
8.1800 596.0000 1.0000
8.2000 613.0000 1.0000
8.2200 618.0000 1.0000
8.2400 667.0000 1.0000
8.2600 672.0000 1.0000
8.2800 645.0000 1.0000
8.3000 615.0000 1.0000
8.3200 602.0000 1.0000
8.3400 603.0000 1.0000
8.3600 639.0000 1.0000
8.3800 734.0000 1.0000
8.4000 714.0000 1.0000
8.4200 681.0000 1.0000
8.4400 748.0000 1.0000
8.4600 786.0000 1.0000
8.4800 771.0000 1.0000
8.5000 813.0000 1.0000
8.5200 847.0000 1.0000
8.5400 851.0000 1.0000
8.5600 847.0000 1.0000
8.5800 817.0000 1.0000
8.6000 836.0000 1.0000
8.6200 800.0000 1.0000
8.6400 727.0000 1.0000
8.6600 654.0000 1.0000
8.6800 601.0000 1.0000
8.7000 591.0000 1.0000
8.7200 538.0000 1.0000
8.7400 481.0000 1.0000
8.7600 493.0000 1.0000
8.7800 432.0000 1.0000
8.8000 399.0000 1.0000
8.8200 424.0000 1.0000
8.8400 419.0000 1.0000
8.8600 405.0000 1.0000
8.8800 396.0000 1.0000
8.9000 420.0000 1.0000
8.9200 375.0000 1.0000
8.9400 385.0000 1.0000
8.9600 363.0000 1.0000
8.9800 358.0000 1.0000
9.0000 374.0000 1.0000
9.0200 423.0000 1.0000
9.0400 399.0000 1.0000
9.0600 359.0000 1.0000
9.0800 360.0000 1.0000
9.1000 376.0000 1.0000
9.1200 391.0000 1.0000
9.1400 376.0000 1.0000
9.1600 418.0000 1.0000
9.1800 409.0000 1.0000
9.2000 386.0000 1.0000
9.2200 347.0000 1.0000
9.2400 378.0000 1.0000
9.2600 387.0000 1.0000
9.2800 360.0000 1.0000
9.3000 372.0000 1.0000
9.3200 373.0000 1.0000
9.3400 376.0000 1.0000
9.3600 403.0000 1.0000
9.3800 410.0000 1.0000
9.4000 418.0000 1.0000
9.4200 377.0000 1.0000
9.4400 400.0000 1.0000
9.4600 425.0000 1.0000
9.4800 495.0000 1.0000
9.5000 482.0000 1.0000
9.5200 493.0000 1.0000
9.5400 476.0000 1.0000
9.5600 489.0000 1.0000
9.5800 453.0000 1.0000
9.6000 389.0000 1.0000
9.6200 400.0000 1.0000
9.6400 335.0000 1.0000
9.6600 325.0000 1.0000
9.6800 305.0000 1.0000
9.7000 320.0000 1.0000
9.7200 373.0000 1.0000
9.7400 332.0000 1.0000
9.7600 350.0000 1.0000
9.7800 325.0000 1.0000
9.8000 378.0000 1.0000
9.8200 381.0000 1.0000
9.8400 393.0000 1.0000
9.8600 417.0000 1.0000
9.8800 335.0000 1.0000
9.9000 359.0000 1.0000
9.9200 460.0000 1.0000
9.9400 448.0000 1.0000
9.9600 443.0000 1.0000
9.9800 496.0000 1.0000
10.0000 505.0000 1.0000
10.0200 565.0000 1.0000
10.0400 566.0000 1.0000
10.0600 621.0000 1.0000
10.0800 745.0000 1.0000
10.1000 748.0000 1.0000
10.1200 707.0000 1.0000
10.1400 894.0000 1.0000
10.1600 995.0000 1.0000
10.1800 1116.0000 1.0000
10.2000 1382.0000 1.0000
10.2200 1489.0000 1.0000
10.2400 1672.0000 1.0000
10.2600 1884.0000 1.0000
10.2800 1982.0000 1.0000
10.3000 1635.0000 1.0000
10.3200 1377.0000 1.0000
10.3400 1059.0000 1.0000
10.3600 696.0000 1.0000
10.3800 547.0000 1.0000
10.4000 347.0000 1.0000
10.4200 303.0000 1.0000
10.4400 290.0000 1.0000
10.4600 279.0000 1.0000
10.4800 275.0000 1.0000
10.5000 292.0000 1.0000
10.5200 235.0000 1.0000
10.5400 229.0000 1.0000
10.5600 248.0000 1.0000
10.5800 198.0000 1.0000
10.6000 224.0000 1.0000
10.6200 238.0000 1.0000
10.6400 237.0000 1.0000
10.6600 231.0000 1.0000
10.6800 196.0000 1.0000
10.7000 203.0000 1.0000
10.7200 234.0000 1.0000
10.7400 223.0000 1.0000
10.7600 229.0000 1.0000
10.7800 234.0000 1.0000
10.8000 187.0000 1.0000
10.8200 197.0000 1.0000
10.8400 171.0000 1.0000
10.8600 215.0000 1.0000
10.8800 232.0000 1.0000
10.9000 208.0000 1.0000
10.9200 216.0000 1.0000
10.9400 219.0000 1.0000
10.9600 203.0000 1.0000
10.9800 225.0000 1.0000
11.0000 207.0000 1.0000
11.0200 185.0000 1.0000
11.0400 210.0000 1.0000
11.0600 181.0000 1.0000
11.0800 196.0000 1.0000
11.1000 227.0000 1.0000
11.1200 188.0000 1.0000
11.1400 206.0000 1.0000
11.1600 194.0000 1.0000
11.1800 164.0000 1.0000
11.2000 194.0000 1.0000
11.2200 197.0000 1.0000
11.2400 195.0000 1.0000
11.2600 186.0000 1.0000
11.2800 166.0000 1.0000
11.3000 161.0000 1.0000
11.3200 190.0000 1.0000
11.3400 193.0000 1.0000
11.3600 165.0000 1.0000
11.3800 205.0000 1.0000
11.4000 203.0000 1.0000
11.4200 206.0000 1.0000
11.4400 191.0000 1.0000
11.4600 179.0000 1.0000
11.4800 186.0000 1.0000
11.5000 211.0000 1.0000
11.5200 174.0000 1.0000
11.5400 167.0000 1.0000
11.5600 183.0000 1.0000
11.5800 192.0000 1.0000
11.6000 224.0000 1.0000
11.6200 185.0000 1.0000
11.6400 174.0000 1.0000
11.6600 180.0000 1.0000
11.6800 163.0000 1.0000
11.7000 161.0000 1.0000
11.7200 171.0000 1.0000
11.7400 193.0000 1.0000
11.7600 164.0000 1.0000
11.7800 176.0000 1.0000
11.8000 174.0000 1.0000
11.8200 160.0000 1.0000
11.8400 183.0000 1.0000
11.8600 191.0000 1.0000
11.8800 184.0000 1.0000
11.9000 198.0000 1.0000
11.9200 206.0000 1.0000
11.9400 200.0000 1.0000
11.9600 246.0000 1.0000
11.9800 211.0000 1.0000
12.0000 209.0000 1.0000
12.0200 215.0000 1.0000
12.0400 202.0000 1.0000
12.0600 195.0000 1.0000
12.0800 198.0000 1.0000
12.1000 218.0000 1.0000
12.1200 211.0000 1.0000
12.1400 183.0000 1.0000
12.1600 223.0000 1.0000
12.1800 235.0000 1.0000
12.2000 262.0000 1.0000
12.2200 257.0000 1.0000
12.2400 261.0000 1.0000
12.2600 278.0000 1.0000
12.2800 283.0000 1.0000
12.3000 290.0000 1.0000
12.3200 299.0000 1.0000
12.3400 267.0000 1.0000
12.3600 232.0000 1.0000
12.3800 210.0000 1.0000
12.4000 214.0000 1.0000
12.4200 193.0000 1.0000
12.4400 176.0000 1.0000
12.4600 189.0000 1.0000
12.4800 148.0000 1.0000
12.5000 162.0000 1.0000
12.5200 166.0000 1.0000
12.5400 167.0000 1.0000
12.5600 177.0000 1.0000
12.5800 168.0000 1.0000
12.6000 145.0000 1.0000
12.6200 165.0000 1.0000
12.6400 149.0000 1.0000
12.6600 179.0000 1.0000
12.6800 179.0000 1.0000
12.7000 178.0000 1.0000
12.7200 163.0000 1.0000
12.7400 178.0000 1.0000
12.7600 163.0000 1.0000
12.7800 182.0000 1.0000
12.8000 140.0000 1.0000
12.8200 143.0000 1.0000
12.8400 191.0000 1.0000
12.8600 177.0000 1.0000
12.8800 170.0000 1.0000
12.9000 160.0000 1.0000
12.9200 167.0000 1.0000
12.9400 142.0000 1.0000
12.9600 162.0000 1.0000
12.9800 174.0000 1.0000
13.0000 189.0000 1.0000
13.0200 155.0000 1.0000
13.0400 146.0000 1.0000
13.0600 138.0000 1.0000
13.0800 147.0000 1.0000
13.1000 144.0000 1.0000
13.1200 153.0000 1.0000
13.1400 177.0000 1.0000
13.1600 176.0000 1.0000
13.1800 156.0000 1.0000
13.2000 167.0000 1.0000
13.2200 183.0000 1.0000
13.2400 184.0000 1.0000
13.2600 165.0000 1.0000
13.2800 162.0000 1.0000
13.3000 170.0000 1.0000
13.3200 185.0000 1.0000
13.3400 206.0000 1.0000
13.3600 178.0000 1.0000
13.3800 203.0000 1.0000
13.4000 225.0000 1.0000
13.4200 208.0000 1.0000
13.4400 217.0000 1.0000
13.4600 211.0000 1.0000
13.4800 221.0000 1.0000
13.5000 236.0000 1.0000
13.5200 242.0000 1.0000
13.5400 253.0000 1.0000
13.5600 293.0000 1.0000
13.5800 321.0000 1.0000
13.6000 343.0000 1.0000
13.6200 356.0000 1.0000
13.6400 368.0000 1.0000
13.6600 351.0000 1.0000
13.6800 367.0000 1.0000
13.7000 381.0000 1.0000
13.7200 333.0000 1.0000
13.7400 290.0000 1.0000
13.7600 288.0000 1.0000
13.7800 243.0000 1.0000
13.8000 201.0000 1.0000
13.8200 183.0000 1.0000
13.8400 176.0000 1.0000
13.8600 158.0000 1.0000
13.8800 167.0000 1.0000
13.9000 170.0000 1.0000
13.9200 155.0000 1.0000
13.9400 156.0000 1.0000
13.9600 145.0000 1.0000
13.9800 138.0000 1.0000
14.0000 152.0000 1.0000
14.0200 151.0000 1.0000
14.0400 139.0000 1.0000
14.0600 144.0000 1.0000
14.0800 134.0000 1.0000
14.1000 127.0000 1.0000
14.1200 133.0000 1.0000
14.1400 131.0000 1.0000
14.1600 122.0000 1.0000
14.1800 133.0000 1.0000
14.2000 146.0000 1.0000
14.2200 136.0000 1.0000
14.2400 131.0000 1.0000
14.2600 133.0000 1.0000
14.2800 128.0000 1.0000
14.3000 132.0000 1.0000
14.3200 132.0000 1.0000
14.3400 155.0000 1.0000
14.3600 151.0000 1.0000
14.3800 120.0000 1.0000
14.4000 121.0000 1.0000
14.4200 132.0000 1.0000
14.4400 143.0000 1.0000
14.4600 146.0000 1.0000
14.4800 146.0000 1.0000
14.5000 150.0000 1.0000
14.5200 128.0000 1.0000
14.5400 129.0000 1.0000
14.5600 132.0000 1.0000
14.5800 145.0000 1.0000
14.6000 154.0000 1.0000
14.6200 142.0000 1.0000
14.6400 139.0000 1.0000
14.6600 139.0000 1.0000
14.6800 149.0000 1.0000
14.7000 143.0000 1.0000
14.7200 149.0000 1.0000
14.7400 170.0000 1.0000
14.7600 188.0000 1.0000
14.7800 184.0000 1.0000
14.8000 186.0000 1.0000
14.8200 196.0000 1.0000
14.8400 190.0000 1.0000
14.8600 178.0000 1.0000
14.8800 180.0000 1.0000
14.9000 180.0000 1.0000
14.9200 181.0000 1.0000
14.9400 177.0000 1.0000
14.9600 158.0000 1.0000
14.9800 167.0000 1.0000
15.0000 164.0000 1.0000
15.0200 163.0000 1.0000
15.0400 163.0000 1.0000
15.0600 139.0000 1.0000
15.0800 144.0000 1.0000
15.1000 148.0000 1.0000
15.1200 134.0000 1.0000
15.1400 115.0000 1.0000
15.1600 121.0000 1.0000
15.1800 136.0000 1.0000
15.2000 145.0000 1.0000
15.2200 145.0000 1.0000
15.2400 129.0000 1.0000
15.2600 131.0000 1.0000
15.2800 146.0000 1.0000
15.3000 152.0000 1.0000
15.3200 137.0000 1.0000
15.3400 132.0000 1.0000
15.3600 133.0000 1.0000
15.3800 135.0000 1.0000
15.4000 143.0000 1.0000
15.4200 152.0000 1.0000
15.4400 148.0000 1.0000
15.4600 150.0000 1.0000
15.4800 158.0000 1.0000
15.5000 156.0000 1.0000
15.5200 151.0000 1.0000
15.5400 148.0000 1.0000
15.5600 153.0000 1.0000
15.5800 149.0000 1.0000
15.6000 151.0000 1.0000
15.6200 155.0000 1.0000
15.6400 150.0000 1.0000
15.6600 147.0000 1.0000
15.6800 145.0000 1.0000
15.7000 135.0000 1.0000
15.7200 125.0000 1.0000
15.7400 128.0000 1.0000
15.7600 124.0000 1.0000
15.7800 127.0000 1.0000
15.8000 148.0000 1.0000
15.8200 139.0000 1.0000
15.8400 134.0000 1.0000
15.8600 123.0000 1.0000
15.8800 124.0000 1.0000
15.9000 133.0000 1.0000
15.9200 126.0000 1.0000
15.9400 127.0000 1.0000
15.9600 120.0000 1.0000
15.9800 111.0000 1.0000
16.0000 122.0000 1.0000
16.0200 133.0000 1.0000
16.0400 119.0000 1.0000
16.0600 106.0000 1.0000
16.0800 103.0000 1.0000
16.1000 104.0000 1.0000
16.1200 108.0000 1.0000
16.1400 117.0000 1.0000
16.1600 124.0000 1.0000
16.1800 140.0000 1.0000
16.2000 145.0000 1.0000
16.2200 139.0000 1.0000
16.2400 128.0000 1.0000
16.2600 130.0000 1.0000
16.2800 136.0000 1.0000
16.3000 131.0000 1.0000
16.3200 122.0000 1.0000
16.3400 115.0000 1.0000
16.3600 111.0000 1.0000
16.3800 109.0000 1.0000
16.4000 117.0000 1.0000
16.4200 130.0000 1.0000
16.4400 134.0000 1.0000
16.4600 131.0000 1.0000
16.4800 122.0000 1.0000
16.5000 118.0000 1.0000
16.5200 126.0000 1.0000
16.5400 122.0000 1.0000
16.5600 118.0000 1.0000
16.5800 122.0000 1.0000
16.6000 121.0000 1.0000
16.6200 113.0000 1.0000
16.6400 118.0000 1.0000
16.6600 125.0000 1.0000
16.6800 133.0000 1.0000
16.7000 113.0000 1.0000
16.7200 124.0000 1.0000
16.7400 132.0000 1.0000
16.7600 118.0000 1.0000
16.7800 113.0000 1.0000
16.8000 104.0000 1.0000
16.8200 110.0000 1.0000
16.8400 110.0000 1.0000
16.8600 109.0000 1.0000
16.8800 113.0000 1.0000
16.9000 129.0000 1.0000
16.9200 124.0000 1.0000
16.9400 116.0000 1.0000
16.9600 116.0000 1.0000
16.9800 126.0000 1.0000
17.0000 123.0000 1.0000
17.0200 123.0000 1.0000
17.0400 151.0000 1.0000
17.0600 154.0000 1.0000
17.0800 150.0000 1.0000
17.1000 130.0000 1.0000
17.1200 149.0000 1.0000
17.1400 145.0000 1.0000
17.1600 141.0000 1.0000
17.1800 149.0000 1.0000
17.2000 141.0000 1.0000
17.2200 145.0000 1.0000
17.2400 154.0000 1.0000
17.2600 130.0000 1.0000
17.2800 132.0000 1.0000
17.3000 130.0000 1.0000
17.3200 121.0000 1.0000
17.3400 129.0000 1.0000
17.3600 126.0000 1.0000
17.3800 133.0000 1.0000
17.4000 132.0000 1.0000
17.4200 142.0000 1.0000
17.4400 153.0000 1.0000
17.4600 146.0000 1.0000
17.4800 151.0000 1.0000
17.5000 162.0000 1.0000
17.5200 156.0000 1.0000
17.5400 145.0000 1.0000
17.5600 134.0000 1.0000
17.5800 140.0000 1.0000
17.6000 147.0000 1.0000
17.6200 148.0000 1.0000
17.6400 143.0000 1.0000
17.6600 143.0000 1.0000
17.6800 149.0000 1.0000
17.7000 154.0000 1.0000
17.7200 170.0000 1.0000
17.7400 173.0000 1.0000
17.7600 170.0000 1.0000
17.7800 179.0000 1.0000
17.8000 194.0000 1.0000
17.8200 206.0000 1.0000
17.8400 209.0000 1.0000
17.8600 180.0000 1.0000
17.8800 169.0000 1.0000
17.9000 164.0000 1.0000
17.9200 168.0000 1.0000
17.9400 153.0000 1.0000
17.9600 139.0000 1.0000
17.9800 140.0000 1.0000
18.0000 145.0000 1.0000
18.0200 126.0000 1.0000
18.0400 134.0000 1.0000
18.0600 125.0000 1.0000
18.0800 135.0000 1.0000
18.1000 141.0000 1.0000
18.1200 136.0000 1.0000
18.1400 152.0000 1.0000
18.1600 136.0000 1.0000
18.1800 133.0000 1.0000
18.2000 121.0000 1.0000
18.2200 126.0000 1.0000
18.2400 129.0000 1.0000
18.2600 123.0000 1.0000
18.2800 130.0000 1.0000
18.3000 122.0000 1.0000
18.3200 139.0000 1.0000
18.3400 154.0000 1.0000
18.3600 133.0000 1.0000
18.3800 137.0000 1.0000
18.4000 148.0000 1.0000
18.4200 146.0000 1.0000
18.4400 129.0000 1.0000
18.4600 127.0000 1.0000
18.4800 157.0000 1.0000
18.5000 130.0000 1.0000
18.5200 124.0000 1.0000
18.5400 132.0000 1.0000
18.5600 153.0000 1.0000
18.5800 145.0000 1.0000
18.6000 163.0000 1.0000
18.6200 145.0000 1.0000
18.6400 156.0000 1.0000
18.6600 159.0000 1.0000
18.6800 143.0000 1.0000
18.7000 160.0000 1.0000
18.7200 172.0000 1.0000
18.7400 170.0000 1.0000
18.7600 160.0000 1.0000
18.7800 174.0000 1.0000
18.8000 175.0000 1.0000
18.8200 160.0000 1.0000
18.8400 177.0000 1.0000
18.8600 171.0000 1.0000
18.8800 155.0000 1.0000
18.9000 171.0000 1.0000
18.9200 176.0000 1.0000
18.9400 152.0000 1.0000
18.9600 158.0000 1.0000
18.9800 181.0000 1.0000
19.0000 175.0000 1.0000
19.0200 194.0000 1.0000
19.0400 180.0000 1.0000
19.0600 133.0000 1.0000
19.0800 160.0000 1.0000
19.1000 195.0000 1.0000
19.1200 173.0000 1.0000
19.1400 194.0000 1.0000
19.1600 187.0000 1.0000
19.1800 186.0000 1.0000
19.2000 173.0000 1.0000
19.2200 179.0000 1.0000
19.2400 193.0000 1.0000
19.2600 180.0000 1.0000
19.2800 174.0000 1.0000
19.3000 208.0000 1.0000
19.3200 227.0000 1.0000
19.3400 199.0000 1.0000
19.3600 237.0000 1.0000
19.3800 238.0000 1.0000
19.4000 239.0000 1.0000
19.4200 243.0000 1.0000
19.4400 249.0000 1.0000
19.4600 225.0000 1.0000
19.4800 209.0000 1.0000
19.5000 222.0000 1.0000
19.5200 208.0000 1.0000
19.5400 199.0000 1.0000
19.5600 199.0000 1.0000
19.5800 211.0000 1.0000
19.6000 200.0000 1.0000
19.6200 198.0000 1.0000
19.6400 229.0000 1.0000
19.6600 208.0000 1.0000
19.6800 205.0000 1.0000
19.7000 213.0000 1.0000
19.7200 198.0000 1.0000
19.7400 196.0000 1.0000
19.7600 206.0000 1.0000
19.7800 185.0000 1.0000
19.8000 172.0000 1.0000
19.8200 175.0000 1.0000
19.8400 184.0000 1.0000
19.8600 167.0000 1.0000
19.8800 190.0000 1.0000
19.9000 204.0000 1.0000
19.9200 183.0000 1.0000
19.9400 160.0000 1.0000
19.9600 150.0000 1.0000
19.9800 151.0000 1.0000
20.0000 177.0000 1.0000
20.0200 164.0000 1.0000
20.0400 158.0000 1.0000
20.0600 166.0000 1.0000
20.0800 184.0000 1.0000
20.1000 177.0000 1.0000
20.1200 171.0000 1.0000
20.1400 165.0000 1.0000
20.1600 182.0000 1.0000
20.1800 177.0000 1.0000
20.2000 181.0000 1.0000
20.2200 207.0000 1.0000
20.2400 198.0000 1.0000
20.2600 195.0000 1.0000
20.2800 195.0000 1.0000
20.3000 221.0000 1.0000
20.3200 228.0000 1.0000
20.3400 284.0000 1.0000
20.3600 227.0000 1.0000
20.3800 321.0000 1.0000
20.4000 266.0000 1.0000
20.4200 304.0000 1.0000
20.4400 321.0000 1.0000
20.4600 364.0000 1.0000
20.4800 407.0000 1.0000
20.5000 457.0000 1.0000
20.5200 457.0000 1.0000
20.5400 566.0000 1.0000
20.5600 659.0000 1.0000
20.5800 751.0000 1.0000
20.6000 1019.0000 1.0000
20.6200 1294.0000 1.0000
20.6400 1498.0000 1.0000
20.6600 1614.0000 1.0000
20.6800 1704.0000 1.0000
20.7000 1800.0000 1.0000
20.7200 1690.0000 1.0000
20.7400 1450.0000 1.0000
20.7600 1159.0000 1.0000
20.7800 853.0000 1.0000
20.8000 607.0000 1.0000
20.8200 502.0000 1.0000
20.8400 449.0000 1.0000
20.8600 353.0000 1.0000
20.8800 337.0000 1.0000
20.9000 315.0000 1.0000
20.9200 297.0000 1.0000
20.9400 248.0000 1.0000
20.9600 249.0000 1.0000
20.9800 194.0000 1.0000
21.0000 214.0000 1.0000
21.0200 217.0000 1.0000
21.0400 186.0000 1.0000
21.0600 193.0000 1.0000
21.0800 205.0000 1.0000
21.1000 193.0000 1.0000
21.1200 155.0000 1.0000
21.1400 190.0000 1.0000
21.1600 195.0000 1.0000
21.1800 208.0000 1.0000
21.2000 189.0000 1.0000
21.2200 172.0000 1.0000
21.2400 164.0000 1.0000
21.2600 193.0000 1.0000
21.2800 180.0000 1.0000
21.3000 170.0000 1.0000
21.3200 184.0000 1.0000
21.3400 184.0000 1.0000
21.3600 184.0000 1.0000
21.3800 174.0000 1.0000
21.4000 190.0000 1.0000
21.4200 196.0000 1.0000
21.4400 193.0000 1.0000
21.4600 191.0000 1.0000
21.4800 197.0000 1.0000
21.5000 195.0000 1.0000
21.5200 233.0000 1.0000
21.5400 232.0000 1.0000
21.5600 238.0000 1.0000
21.5800 271.0000 1.0000
21.6000 280.0000 1.0000
21.6200 286.0000 1.0000
21.6400 338.0000 1.0000
21.6600 411.0000 1.0000
21.6800 487.0000 1.0000
21.7000 559.0000 1.0000
21.7200 623.0000 1.0000
21.7400 768.0000 1.0000
21.7600 860.0000 1.0000
21.7800 945.0000 1.0000
21.8000 1051.0000 1.0000
21.8200 1126.0000 1.0000
21.8400 1134.0000 1.0000
21.8600 988.0000 1.0000
21.8800 897.0000 1.0000
21.9000 756.0000 1.0000
21.9200 592.0000 1.0000
21.9400 434.0000 1.0000
21.9600 374.0000 1.0000
21.9800 271.0000 1.0000
22.0000 256.0000 1.0000
22.0200 244.0000 1.0000
22.0400 214.0000 1.0000
22.0600 219.0000 1.0000
22.0800 185.0000 1.0000
22.1000 201.0000 1.0000
22.1200 201.0000 1.0000
22.1400 211.0000 1.0000
22.1600 205.0000 1.0000
22.1800 187.0000 1.0000
22.2000 202.0000 1.0000
22.2200 197.0000 1.0000
22.2400 204.0000 1.0000
22.2600 176.0000 1.0000
22.2800 200.0000 1.0000
22.3000 183.0000 1.0000
22.3200 201.0000 1.0000
22.3400 169.0000 1.0000
22.3600 193.0000 1.0000
22.3800 185.0000 1.0000
22.4000 191.0000 1.0000
22.4200 176.0000 1.0000
22.4400 193.0000 1.0000
22.4600 187.0000 1.0000
22.4800 191.0000 1.0000
22.5000 216.0000 1.0000
22.5200 217.0000 1.0000
22.5400 205.0000 1.0000
22.5600 231.0000 1.0000
22.5800 217.0000 1.0000
22.6000 226.0000 1.0000
22.6200 219.0000 1.0000
22.6400 276.0000 1.0000
22.6600 286.0000 1.0000
22.6800 314.0000 1.0000
22.7000 337.0000 1.0000
22.7200 358.0000 1.0000
22.7400 349.0000 1.0000
22.7600 412.0000 1.0000
22.7800 392.0000 1.0000
22.8000 341.0000 1.0000
22.8200 306.0000 1.0000
22.8400 269.0000 1.0000
22.8600 272.0000 1.0000
22.8800 233.0000 1.0000
22.9000 226.0000 1.0000
22.9200 217.0000 1.0000
22.9400 217.0000 1.0000
22.9600 222.0000 1.0000
22.9800 222.0000 1.0000
23.0000 211.0000 1.0000
23.0200 199.0000 1.0000
23.0400 190.0000 1.0000
23.0600 223.0000 1.0000
23.0800 227.0000 1.0000
23.1000 241.0000 1.0000
23.1200 218.0000 1.0000
23.1400 223.0000 1.0000
23.1600 233.0000 1.0000
23.1800 225.0000 1.0000
23.2000 248.0000 1.0000
23.2200 267.0000 1.0000
23.2400 307.0000 1.0000
23.2600 296.0000 1.0000
23.2800 316.0000 1.0000
23.3000 340.0000 1.0000
23.3200 393.0000 1.0000
23.3400 483.0000 1.0000
23.3600 483.0000 1.0000
23.3800 559.0000 1.0000
23.4000 612.0000 1.0000
23.4200 711.0000 1.0000
23.4400 759.0000 1.0000
23.4600 732.0000 1.0000
23.4800 680.0000 1.0000
23.5000 657.0000 1.0000
23.5200 580.0000 1.0000
23.5400 515.0000 1.0000
23.5600 464.0000 1.0000
23.5800 457.0000 1.0000
23.6000 410.0000 1.0000
23.6200 422.0000 1.0000
23.6400 441.0000 1.0000
23.6600 486.0000 1.0000
23.6800 539.0000 1.0000
23.7000 582.0000 1.0000
23.7200 607.0000 1.0000
23.7400 633.0000 1.0000
23.7600 626.0000 1.0000
23.7800 603.0000 1.0000
23.8000 610.0000 1.0000
23.8200 534.0000 1.0000
23.8400 486.0000 1.0000
23.8600 428.0000 1.0000
23.8800 410.0000 1.0000
23.9000 384.0000 1.0000
23.9200 371.0000 1.0000
23.9400 355.0000 1.0000
23.9600 395.0000 1.0000
23.9800 416.0000 1.0000
24.0000 407.0000 1.0000
24.0200 462.0000 1.0000
24.0400 515.0000 1.0000
24.0600 568.0000 1.0000
24.0800 599.0000 1.0000
24.1000 640.0000 1.0000
24.1200 706.0000 1.0000
24.1400 723.0000 1.0000
24.1600 766.0000 1.0000
24.1800 715.0000 1.0000
24.2000 684.0000 1.0000
24.2200 573.0000 1.0000
24.2400 526.0000 1.0000
24.2600 460.0000 1.0000
24.2800 388.0000 1.0000
24.3000 371.0000 1.0000
24.3200 301.0000 1.0000
24.3400 265.0000 1.0000
24.3600 229.0000 1.0000
24.3800 213.0000 1.0000
24.4000 206.0000 1.0000
24.4200 192.0000 1.0000
24.4400 197.0000 1.0000
24.4600 191.0000 1.0000
24.4800 183.0000 1.0000
24.5000 178.0000 1.0000
24.5200 188.0000 1.0000
24.5400 194.0000 1.0000
24.5600 185.0000 1.0000
24.5800 182.0000 1.0000
24.6000 194.0000 1.0000
24.6200 191.0000 1.0000
24.6400 170.0000 1.0000
24.6600 178.0000 1.0000
24.6800 185.0000 1.0000
24.7000 192.0000 1.0000
24.7200 174.0000 1.0000
24.7400 177.0000 1.0000
24.7600 202.0000 1.0000
24.7800 203.0000 1.0000
24.8000 192.0000 1.0000
24.8200 192.0000 1.0000
24.8400 201.0000 1.0000
24.8600 196.0000 1.0000
24.8800 216.0000 1.0000
24.9000 222.0000 1.0000
24.9200 208.0000 1.0000
24.9400 210.0000 1.0000
24.9600 216.0000 1.0000
24.9800 214.0000 1.0000
25.0000 239.0000 1.0000
25.0200 248.0000 1.0000
25.0400 254.0000 1.0000
25.0600 251.0000 1.0000
25.0800 230.0000 1.0000
25.1000 250.0000 1.0000
25.1200 267.0000 1.0000
25.1400 275.0000 1.0000
25.1600 307.0000 1.0000
25.1800 352.0000 1.0000
25.2000 348.0000 1.0000
25.2200 382.0000 1.0000
25.2400 450.0000 1.0000
25.2600 582.0000 1.0000
25.2800 704.0000 1.0000
25.3000 820.0000 1.0000
25.3200 957.0000 1.0000
25.3400 1136.0000 1.0000
25.3600 1337.0000 1.0000
25.3800 1428.0000 1.0000
25.4000 1456.0000 1.0000
25.4200 1389.0000 1.0000
25.4400 1283.0000 1.0000
25.4600 1134.0000 1.0000
25.4800 976.0000 1.0000
25.5000 767.0000 1.0000
25.5200 624.0000 1.0000
25.5400 542.0000 1.0000
25.5600 458.0000 1.0000
25.5800 388.0000 1.0000
25.6000 364.0000 1.0000
25.6200 357.0000 1.0000
25.6400 325.0000 1.0000
25.6600 308.0000 1.0000
25.6800 299.0000 1.0000
25.7000 306.0000 1.0000
25.7200 286.0000 1.0000
25.7400 288.0000 1.0000
25.7600 280.0000 1.0000
25.7800 293.0000 1.0000
25.8000 310.0000 1.0000
25.8200 315.0000 1.0000
25.8400 300.0000 1.0000
25.8600 293.0000 1.0000
25.8800 326.0000 1.0000
25.9000 382.0000 1.0000
25.9200 393.0000 1.0000
25.9400 430.0000 1.0000
25.9600 451.0000 1.0000
25.9800 455.0000 1.0000
26.0000 516.0000 1.0000
26.0200 568.0000 1.0000
26.0400 623.0000 1.0000
26.0600 655.0000 1.0000
26.0800 659.0000 1.0000
26.1000 669.0000 1.0000
26.1200 713.0000 1.0000
26.1400 771.0000 1.0000
26.1600 825.0000 1.0000
26.1800 896.0000 1.0000
26.2000 924.0000 1.0000
26.2200 1060.0000 1.0000
26.2400 1223.0000 1.0000
26.2600 1450.0000 1.0000
26.2800 1707.0000 1.0000
26.3000 1953.0000 1.0000
26.3200 2277.0000 1.0000
26.3400 2784.0000 1.0000
26.3600 3488.0000 1.0000
26.3800 4328.0000 1.0000
26.4000 5340.0000 1.0000
26.4200 6478.0000 1.0000
26.4400 7401.0000 1.0000
26.4600 7999.0000 1.0000
26.4800 8104.0000 1.0000
26.5000 7531.0000 1.0000
26.5200 6547.0000 1.0000
26.5400 5211.0000 1.0000
26.5600 3917.0000 1.0000
26.5800 2882.0000 1.0000
26.6000 2031.0000 1.0000
26.6200 1355.0000 1.0000
26.6400 950.0000 1.0000
26.6600 805.0000 1.0000
26.6800 715.0000 1.0000
26.7000 624.0000 1.0000
26.7200 605.0000 1.0000
26.7400 589.0000 1.0000
26.7600 613.0000 1.0000
26.7800 612.0000 1.0000
26.8000 575.0000 1.0000
26.8200 582.0000 1.0000
26.8400 586.0000 1.0000
26.8600 596.0000 1.0000
26.8800 635.0000 1.0000
26.9000 640.0000 1.0000
26.9200 607.0000 1.0000
26.9400 583.0000 1.0000
26.9600 544.0000 1.0000
26.9800 511.0000 1.0000
27.0000 487.0000 1.0000
27.0200 460.0000 1.0000
27.0400 457.0000 1.0000
27.0600 406.0000 1.0000
27.0800 362.0000 1.0000
27.1000 390.0000 1.0000
27.1200 387.0000 1.0000
27.1400 383.0000 1.0000
27.1600 430.0000 1.0000
27.1800 459.0000 1.0000
27.2000 483.0000 1.0000
27.2200 522.0000 1.0000
27.2400 568.0000 1.0000
27.2600 628.0000 1.0000
27.2800 646.0000 1.0000
27.3000 686.0000 1.0000
27.3200 736.0000 1.0000
27.3400 738.0000 1.0000
27.3600 735.0000 1.0000
27.3800 723.0000 1.0000
27.4000 722.0000 1.0000
27.4200 735.0000 1.0000
27.4400 766.0000 1.0000
27.4600 807.0000 1.0000
27.4800 907.0000 1.0000
27.5000 1057.0000 1.0000
27.5200 1244.0000 1.0000
27.5400 1451.0000 1.0000
27.5600 1685.0000 1.0000
27.5800 1914.0000 1.0000
27.6000 2132.0000 1.0000
27.6200 2333.0000 1.0000
27.6400 2451.0000 1.0000
27.6600 2505.0000 1.0000
27.6800 2478.0000 1.0000
27.7000 2487.0000 1.0000
27.7200 2442.0000 1.0000
27.7400 2374.0000 1.0000
27.7600 2396.0000 1.0000
27.7800 2456.0000 1.0000
27.8000 2527.0000 1.0000
27.8200 2521.0000 1.0000
27.8400 2485.0000 1.0000
27.8600 2366.0000 1.0000
27.8800 2141.0000 1.0000
27.9000 1843.0000 1.0000
27.9200 1471.0000 1.0000
27.9400 1189.0000 1.0000
27.9600 982.0000 1.0000
27.9800 823.0000 1.0000
28.0000 711.0000 1.0000
28.0200 638.0000 1.0000
28.0400 672.0000 1.0000
28.0600 707.0000 1.0000
28.0800 704.0000 1.0000
28.1000 726.0000 1.0000
28.1200 781.0000 1.0000
28.1400 833.0000 1.0000
28.1600 865.0000 1.0000
28.1800 895.0000 1.0000
28.2000 905.0000 1.0000
28.2200 899.0000 1.0000
28.2400 874.0000 1.0000
28.2600 844.0000 1.0000
28.2800 826.0000 1.0000
28.3000 775.0000 1.0000
28.3200 706.0000 1.0000
28.3400 611.0000 1.0000
28.3600 521.0000 1.0000
28.3800 473.0000 1.0000
28.4000 417.0000 1.0000
28.4200 361.0000 1.0000
28.4400 285.0000 1.0000
28.4600 236.0000 1.0000
28.4800 214.0000 1.0000
28.5000 219.0000 1.0000
28.5200 213.0000 1.0000
28.5400 190.0000 1.0000
28.5600 180.0000 1.0000
28.5800 191.0000 1.0000
28.6000 182.0000 1.0000
28.6200 184.0000 1.0000
28.6400 184.0000 1.0000
28.6600 166.0000 1.0000
28.6800 173.0000 1.0000
28.7000 167.0000 1.0000
28.7200 159.0000 1.0000
28.7400 169.0000 1.0000
28.7600 173.0000 1.0000
28.7800 167.0000 1.0000
28.8000 160.0000 1.0000
28.8200 156.0000 1.0000
28.8400 166.0000 1.0000
28.8600 173.0000 1.0000
28.8800 163.0000 1.0000
28.9000 162.0000 1.0000
28.9200 185.0000 1.0000
28.9400 179.0000 1.0000
28.9600 157.0000 1.0000
28.9800 153.0000 1.0000
29.0000 166.0000 1.0000
29.0200 161.0000 1.0000
29.0400 155.0000 1.0000
29.0600 170.0000 1.0000
29.0800 184.0000 1.0000
29.1000 176.0000 1.0000
29.1200 168.0000 1.0000
29.1400 172.0000 1.0000
29.1600 173.0000 1.0000
29.1800 179.0000 1.0000
29.2000 179.0000 1.0000
29.2200 188.0000 1.0000
29.2400 208.0000 1.0000
29.2600 222.0000 1.0000
29.2800 198.0000 1.0000
29.3000 197.0000 1.0000
29.3200 214.0000 1.0000
29.3400 215.0000 1.0000
29.3600 214.0000 1.0000
29.3800 217.0000 1.0000
29.4000 231.0000 1.0000
29.4200 250.0000 1.0000
29.4400 265.0000 1.0000
29.4600 274.0000 1.0000
29.4800 302.0000 1.0000
29.5000 309.0000 1.0000
29.5200 352.0000 1.0000
29.5400 413.0000 1.0000
29.5600 423.0000 1.0000
29.5800 434.0000 1.0000
29.6000 461.0000 1.0000
29.6200 463.0000 1.0000
29.6400 455.0000 1.0000
29.6600 428.0000 1.0000
29.6800 405.0000 1.0000
29.7000 401.0000 1.0000
29.7200 371.0000 1.0000
29.7400 328.0000 1.0000
29.7600 320.0000 1.0000
29.7800 313.0000 1.0000
29.8000 279.0000 1.0000
29.8200 303.0000 1.0000
29.8400 306.0000 1.0000
29.8600 289.0000 1.0000
29.8800 299.0000 1.0000
29.9000 313.0000 1.0000
29.9200 309.0000 1.0000
29.9400 313.0000 1.0000
29.9600 337.0000 1.0000
29.9800 345.0000 1.0000
30.0000 373.0000 1.0000
30.0200 401.0000 1.0000
30.0400 437.0000 1.0000
30.0600 462.0000 1.0000
30.0800 466.0000 1.0000
30.1000 532.0000 1.0000
30.1200 573.0000 1.0000
30.1400 592.0000 1.0000
30.1600 632.0000 1.0000
30.1800 671.0000 1.0000
30.2000 717.0000 1.0000
30.2200 729.0000 1.0000
30.2400 715.0000 1.0000
30.2600 717.0000 1.0000
30.2800 684.0000 1.0000
30.3000 634.0000 1.0000
30.3200 591.0000 1.0000
30.3400 554.0000 1.0000
30.3600 530.0000 1.0000
30.3800 466.0000 1.0000
30.4000 402.0000 1.0000
30.4200 357.0000 1.0000
30.4400 263.0000 1.0000
30.4600 257.0000 1.0000
30.4800 249.0000 1.0000
30.5000 234.0000 1.0000
30.5200 225.0000 1.0000
30.5400 230.0000 1.0000
30.5600 235.0000 1.0000
30.5800 261.0000 1.0000
30.6000 258.0000 1.0000
30.6200 239.0000 1.0000
30.6400 271.0000 1.0000
30.6600 270.0000 1.0000
30.6800 258.0000 1.0000
30.7000 226.0000 1.0000
30.7200 232.0000 1.0000
30.7400 232.0000 1.0000
30.7600 202.0000 1.0000
30.7800 191.0000 1.0000
30.8000 208.0000 1.0000
30.8200 187.0000 1.0000
30.8400 169.0000 1.0000
30.8600 152.0000 1.0000
30.8800 157.0000 1.0000
30.9000 152.0000 1.0000
30.9200 144.0000 1.0000
30.9400 166.0000 1.0000
30.9600 190.0000 1.0000
30.9800 171.0000 1.0000
31.0000 166.0000 1.0000
31.0200 188.0000 1.0000
31.0400 191.0000 1.0000
31.0600 207.0000 1.0000
31.0800 232.0000 1.0000
31.1000 213.0000 1.0000
31.1200 242.0000 1.0000
31.1400 258.0000 1.0000
31.1600 268.0000 1.0000
31.1800 326.0000 1.0000
31.2000 330.0000 1.0000
31.2200 346.0000 1.0000
31.2400 363.0000 1.0000
31.2600 362.0000 1.0000
31.2800 352.0000 1.0000
31.3000 334.0000 1.0000
31.3200 276.0000 1.0000
31.3400 268.0000 1.0000
31.3600 240.0000 1.0000
31.3800 236.0000 1.0000
31.4000 238.0000 1.0000
31.4200 222.0000 1.0000
31.4400 256.0000 1.0000
31.4600 244.0000 1.0000
31.4800 246.0000 1.0000
31.5000 252.0000 1.0000
31.5200 247.0000 1.0000
31.5400 257.0000 1.0000
31.5600 248.0000 1.0000
31.5800 251.0000 1.0000
31.6000 227.0000 1.0000
31.6200 248.0000 1.0000
31.6400 197.0000 1.0000
31.6600 183.0000 1.0000
31.6800 180.0000 1.0000
31.7000 180.0000 1.0000
31.7200 180.0000 1.0000
31.7400 157.0000 1.0000
31.7600 162.0000 1.0000
31.7800 148.0000 1.0000
31.8000 154.0000 1.0000
31.8200 156.0000 1.0000
31.8400 153.0000 1.0000
31.8600 145.0000 1.0000
31.8800 156.0000 1.0000
31.9000 131.0000 1.0000
31.9200 136.0000 1.0000
31.9400 143.0000 1.0000
31.9600 135.0000 1.0000
31.9800 157.0000 1.0000
32.0000 135.0000 1.0000
32.0200 135.0000 1.0000
32.0400 147.0000 1.0000
32.0600 163.0000 1.0000
32.0800 144.0000 1.0000
32.1000 145.0000 1.0000
32.1200 163.0000 1.0000
32.1400 184.0000 1.0000
32.1600 165.0000 1.0000
32.1800 152.0000 1.0000
32.2000 152.0000 1.0000
32.2200 166.0000 1.0000
32.2400 179.0000 1.0000
32.2600 176.0000 1.0000
32.2800 177.0000 1.0000
32.3000 206.0000 1.0000
32.3200 212.0000 1.0000
32.3400 200.0000 1.0000
32.3600 196.0000 1.0000
32.3800 224.0000 1.0000
32.4000 227.0000 1.0000
32.4200 205.0000 1.0000
32.4400 223.0000 1.0000
32.4600 197.0000 1.0000
32.4800 189.0000 1.0000
32.5000 196.0000 1.0000
32.5200 183.0000 1.0000
32.5400 175.0000 1.0000
32.5600 206.0000 1.0000
32.5800 201.0000 1.0000
32.6000 197.0000 1.0000
32.6200 220.0000 1.0000
32.6400 257.0000 1.0000
32.6600 283.0000 1.0000
32.6800 314.0000 1.0000
32.7000 376.0000 1.0000
32.7200 414.0000 1.0000
32.7400 421.0000 1.0000
32.7600 436.0000 1.0000
32.7800 495.0000 1.0000
32.8000 444.0000 1.0000
32.8200 400.0000 1.0000
32.8400 369.0000 1.0000
32.8600 315.0000 1.0000
32.8800 292.0000 1.0000
32.9000 268.0000 1.0000
32.9200 219.0000 1.0000
32.9400 200.0000 1.0000
32.9600 168.0000 1.0000
32.9800 157.0000 1.0000
33.0000 169.0000 1.0000
33.0200 164.0000 1.0000
33.0400 145.0000 1.0000
33.0600 175.0000 1.0000
33.0800 164.0000 1.0000
33.1000 171.0000 1.0000
33.1200 145.0000 1.0000
33.1400 157.0000 1.0000
33.1600 133.0000 1.0000
33.1800 144.0000 1.0000
33.2000 161.0000 1.0000
33.2200 135.0000 1.0000
33.2400 137.0000 1.0000
33.2600 134.0000 1.0000
33.2800 141.0000 1.0000
33.3000 143.0000 1.0000
33.3200 139.0000 1.0000
33.3400 123.0000 1.0000
33.3600 144.0000 1.0000
33.3800 149.0000 1.0000
33.4000 155.0000 1.0000
33.4200 160.0000 1.0000
33.4400 135.0000 1.0000
33.4600 151.0000 1.0000
33.4800 180.0000 1.0000
33.5000 187.0000 1.0000
33.5200 159.0000 1.0000
33.5400 174.0000 1.0000
33.5600 198.0000 1.0000
33.5800 229.0000 1.0000
33.6000 225.0000 1.0000
33.6200 240.0000 1.0000
33.6400 263.0000 1.0000
33.6600 271.0000 1.0000
33.6800 298.0000 1.0000
33.7000 280.0000 1.0000
33.7200 290.0000 1.0000
33.7400 267.0000 1.0000
33.7600 275.0000 1.0000
33.7800 261.0000 1.0000
33.8000 249.0000 1.0000
33.8200 242.0000 1.0000
33.8400 256.0000 1.0000
33.8600 263.0000 1.0000
33.8800 231.0000 1.0000
33.9000 255.0000 1.0000
33.9200 213.0000 1.0000
33.9400 257.0000 1.0000
33.9600 251.0000 1.0000
33.9800 229.0000 1.0000
34.0000 239.0000 1.0000
34.0200 291.0000 1.0000
34.0400 237.0000 1.0000
34.0600 268.0000 1.0000
34.0800 245.0000 1.0000
34.1000 302.0000 1.0000
34.1200 262.0000 1.0000
34.1400 297.0000 1.0000
34.1600 339.0000 1.0000
34.1800 352.0000 1.0000
34.2000 385.0000 1.0000
34.2200 368.0000 1.0000
34.2400 332.0000 1.0000
34.2600 353.0000 1.0000
34.2800 357.0000 1.0000
34.3000 337.0000 1.0000
34.3200 305.0000 1.0000
34.3400 291.0000 1.0000
34.3600 295.0000 1.0000
34.3800 264.0000 1.0000
34.4000 260.0000 1.0000
34.4200 259.0000 1.0000
34.4400 266.0000 1.0000
34.4600 241.0000 1.0000
34.4800 221.0000 1.0000
34.5000 257.0000 1.0000
34.5200 241.0000 1.0000
34.5400 249.0000 1.0000
34.5600 259.0000 1.0000
34.5800 247.0000 1.0000
34.6000 263.0000 1.0000
34.6200 279.0000 1.0000
34.6400 292.0000 1.0000
34.6600 285.0000 1.0000
34.6800 300.0000 1.0000
34.7000 300.0000 1.0000
34.7200 321.0000 1.0000
34.7400 350.0000 1.0000
34.7600 406.0000 1.0000
34.7800 477.0000 1.0000
34.8000 480.0000 1.0000
34.8200 549.0000 1.0000
34.8400 620.0000 1.0000
34.8600 784.0000 1.0000
34.8800 994.0000 1.0000
34.9000 1198.0000 1.0000
34.9200 1351.0000 1.0000
34.9400 1589.0000 1.0000
34.9600 1785.0000 1.0000
34.9800 1924.0000 1.0000
35.0000 1818.0000 1.0000
35.0200 1720.0000 1.0000
35.0400 1568.0000 1.0000
35.0600 1392.0000 1.0000
35.0800 1260.0000 1.0000
35.1000 1023.0000 1.0000
35.1200 902.0000 1.0000
35.1400 762.0000 1.0000
35.1600 691.0000 1.0000
35.1800 641.0000 1.0000
35.2000 594.0000 1.0000
35.2200 520.0000 1.0000
35.2400 493.0000 1.0000
35.2600 477.0000 1.0000
35.2800 468.0000 1.0000
35.3000 442.0000 1.0000
35.3200 407.0000 1.0000
35.3400 397.0000 1.0000
35.3600 383.0000 1.0000
35.3800 393.0000 1.0000
35.4000 356.0000 1.0000
35.4200 323.0000 1.0000
35.4400 331.0000 1.0000
35.4600 317.0000 1.0000
35.4800 301.0000 1.0000
35.5000 317.0000 1.0000
35.5200 325.0000 1.0000
35.5400 287.0000 1.0000
35.5600 277.0000 1.0000
35.5800 258.0000 1.0000
35.6000 239.0000 1.0000
35.6200 233.0000 1.0000
35.6400 229.0000 1.0000
35.6600 223.0000 1.0000
35.6800 197.0000 1.0000
35.7000 200.0000 1.0000
35.7200 202.0000 1.0000
35.7400 163.0000 1.0000
35.7600 174.0000 1.0000
35.7800 195.0000 1.0000
35.8000 205.0000 1.0000
35.8200 192.0000 1.0000
35.8400 223.0000 1.0000
35.8600 247.0000 1.0000
35.8800 233.0000 1.0000
35.9000 256.0000 1.0000
35.9200 239.0000 1.0000
35.9400 262.0000 1.0000
35.9600 269.0000 1.0000
35.9800 307.0000 1.0000
36.0000 299.0000 1.0000
36.0200 279.0000 1.0000
36.0400 267.0000 1.0000
36.0600 265.0000 1.0000
36.0800 261.0000 1.0000
36.1000 252.0000 1.0000
36.1200 231.0000 1.0000
36.1400 242.0000 1.0000
36.1600 252.0000 1.0000
36.1800 244.0000 1.0000
36.2000 243.0000 1.0000
36.2200 285.0000 1.0000
36.2400 247.0000 1.0000
36.2600 324.0000 1.0000
36.2800 393.0000 1.0000
36.3000 461.0000 1.0000
36.3200 534.0000 1.0000
36.3400 641.0000 1.0000
36.3600 678.0000 1.0000
36.3800 733.0000 1.0000
36.4000 726.0000 1.0000
36.4200 751.0000 1.0000
36.4400 732.0000 1.0000
36.4600 595.0000 1.0000
36.4800 516.0000 1.0000
36.5000 420.0000 1.0000
36.5200 397.0000 1.0000
36.5400 379.0000 1.0000
36.5600 329.0000 1.0000
36.5800 272.0000 1.0000
36.6000 275.0000 1.0000
36.6200 244.0000 1.0000
36.6400 234.0000 1.0000
36.6600 238.0000 1.0000
36.6800 222.0000 1.0000
36.7000 259.0000 1.0000
36.7200 242.0000 1.0000
36.7400 256.0000 1.0000
36.7600 267.0000 1.0000
36.7800 242.0000 1.0000
36.8000 251.0000 1.0000
36.8200 246.0000 1.0000
36.8400 267.0000 1.0000
36.8600 252.0000 1.0000
36.8800 250.0000 1.0000
36.9000 250.0000 1.0000
36.9200 236.0000 1.0000
36.9400 233.0000 1.0000
36.9600 208.0000 1.0000
36.9800 221.0000 1.0000
37.0000 207.0000 1.0000
37.0200 197.0000 1.0000
37.0400 214.0000 1.0000
37.0600 191.0000 1.0000
37.0800 192.0000 1.0000
37.1000 165.0000 1.0000
37.1200 173.0000 1.0000
37.1400 174.0000 1.0000
37.1600 198.0000 1.0000
37.1800 193.0000 1.0000
37.2000 208.0000 1.0000
37.2200 188.0000 1.0000
37.2400 213.0000 1.0000
37.2600 239.0000 1.0000
37.2800 234.0000 1.0000
37.3000 253.0000 1.0000
37.3200 244.0000 1.0000
37.3400 231.0000 1.0000
37.3600 227.0000 1.0000
37.3800 259.0000 1.0000
37.4000 300.0000 1.0000
37.4200 310.0000 1.0000
37.4400 295.0000 1.0000
37.4600 336.0000 1.0000
37.4800 398.0000 1.0000
37.5000 475.0000 1.0000
37.5200 524.0000 1.0000
37.5400 599.0000 1.0000
37.5600 673.0000 1.0000
37.5800 735.0000 1.0000
37.6000 772.0000 1.0000
37.6200 769.0000 1.0000
37.6400 742.0000 1.0000
37.6600 681.0000 1.0000
37.6800 590.0000 1.0000
37.7000 509.0000 1.0000
37.7200 451.0000 1.0000
37.7400 391.0000 1.0000
37.7600 352.0000 1.0000
37.7800 275.0000 1.0000
37.8000 210.0000 1.0000
37.8200 175.0000 1.0000
37.8400 160.0000 1.0000
37.8600 162.0000 1.0000
37.8800 163.0000 1.0000
37.9000 164.0000 1.0000
37.9200 172.0000 1.0000
37.9400 186.0000 1.0000
37.9600 200.0000 1.0000
37.9800 197.0000 1.0000
38.0000 193.0000 1.0000
38.0200 195.0000 1.0000
38.0400 223.0000 1.0000
38.0600 248.0000 1.0000
38.0800 246.0000 1.0000
38.1000 230.0000 1.0000
38.1200 226.0000 1.0000
38.1400 254.0000 1.0000
38.1600 218.0000 1.0000
38.1800 219.0000 1.0000
38.2000 200.0000 1.0000
38.2200 203.0000 1.0000
38.2400 196.0000 1.0000
38.2600 199.0000 1.0000
38.2800 209.0000 1.0000
38.3000 201.0000 1.0000
38.3200 209.0000 1.0000
38.3400 203.0000 1.0000
38.3600 223.0000 1.0000
38.3800 215.0000 1.0000
38.4000 193.0000 1.0000
38.4200 182.0000 1.0000
38.4400 186.0000 1.0000
38.4600 162.0000 1.0000
38.4800 160.0000 1.0000
38.5000 161.0000 1.0000
38.5200 180.0000 1.0000
38.5400 180.0000 1.0000
38.5600 168.0000 1.0000
38.5800 155.0000 1.0000
38.6000 151.0000 1.0000
38.6200 155.0000 1.0000
38.6400 132.0000 1.0000
38.6600 148.0000 1.0000
38.6800 183.0000 1.0000
38.7000 175.0000 1.0000
38.7200 177.0000 1.0000
38.7400 184.0000 1.0000
38.7600 172.0000 1.0000
38.7800 184.0000 1.0000
38.8000 189.0000 1.0000
38.8200 192.0000 1.0000
38.8400 201.0000 1.0000
38.8600 204.0000 1.0000
38.8800 199.0000 1.0000
38.9000 199.0000 1.0000
38.9200 226.0000 1.0000
38.9400 223.0000 1.0000
38.9600 230.0000 1.0000
38.9800 240.0000 1.0000
39.0000 251.0000 1.0000
39.0200 242.0000 1.0000
39.0400 234.0000 1.0000
39.0600 273.0000 1.0000
39.0800 268.0000 1.0000
39.1000 260.0000 1.0000
39.1200 273.0000 1.0000
39.1400 302.0000 1.0000
39.1600 324.0000 1.0000
39.1800 332.0000 1.0000
39.2000 367.0000 1.0000
39.2200 409.0000 1.0000
39.2400 469.0000 1.0000
39.2600 561.0000 1.0000
39.2800 592.0000 1.0000
39.3000 608.0000 1.0000
39.3200 611.0000 1.0000
39.3400 595.0000 1.0000
39.3600 580.0000 1.0000
39.3800 531.0000 1.0000
39.4000 467.0000 1.0000
39.4200 417.0000 1.0000
39.4400 369.0000 1.0000
39.4600 318.0000 1.0000
39.4800 271.0000 1.0000
39.5000 245.0000 1.0000
39.5200 218.0000 1.0000
39.5400 203.0000 1.0000
39.5600 194.0000 1.0000
39.5800 180.0000 1.0000
39.6000 174.0000 1.0000
39.6200 172.0000 1.0000
39.6400 161.0000 1.0000
39.6600 171.0000 1.0000
39.6800 161.0000 1.0000
39.7000 143.0000 1.0000
39.7200 151.0000 1.0000
39.7400 155.0000 1.0000
39.7600 142.0000 1.0000
39.7800 137.0000 1.0000
39.8000 139.0000 1.0000
39.8200 136.0000 1.0000
39.8400 141.0000 1.0000
39.8600 144.0000 1.0000
39.8800 156.0000 1.0000
39.9000 156.0000 1.0000
39.9200 147.0000 1.0000
39.9400 153.0000 1.0000
39.9600 166.0000 1.0000
39.9800 178.0000 1.0000
40.0000 189.0000 1.0000
40.0200 222.0000 1.0000
40.0400 240.0000 1.0000
40.0600 259.0000 1.0000
40.0800 308.0000 1.0000
40.1000 357.0000 1.0000
40.1200 375.0000 1.0000
40.1400 380.0000 1.0000
40.1600 372.0000 1.0000
40.1800 339.0000 1.0000
40.2000 305.0000 1.0000
40.2200 276.0000 1.0000
40.2400 257.0000 1.0000
40.2600 225.0000 1.0000
40.2800 210.0000 1.0000
40.3000 198.0000 1.0000
40.3200 186.0000 1.0000
40.3400 171.0000 1.0000
40.3600 147.0000 1.0000
40.3800 151.0000 1.0000
40.4000 151.0000 1.0000
40.4200 150.0000 1.0000
40.4400 148.0000 1.0000
40.4600 147.0000 1.0000
40.4800 153.0000 1.0000
40.5000 164.0000 1.0000
40.5200 164.0000 1.0000
40.5400 153.0000 1.0000
40.5600 155.0000 1.0000
40.5800 160.0000 1.0000
40.6000 168.0000 1.0000
40.6200 176.0000 1.0000
40.6400 170.0000 1.0000
40.6600 152.0000 1.0000
40.6800 143.0000 1.0000
40.7000 139.0000 1.0000
40.7200 147.0000 1.0000
40.7400 159.0000 1.0000
40.7600 140.0000 1.0000
40.7800 142.0000 1.0000
40.8000 150.0000 1.0000
40.8200 146.0000 1.0000
40.8400 148.0000 1.0000
40.8600 145.0000 1.0000
40.8800 144.0000 1.0000
40.9000 149.0000 1.0000
40.9200 150.0000 1.0000
40.9400 155.0000 1.0000
40.9600 158.0000 1.0000
40.9800 150.0000 1.0000
41.0000 154.0000 1.0000
41.0200 165.0000 1.0000
41.0400 170.0000 1.0000
41.0600 164.0000 1.0000
41.0800 165.0000 1.0000
41.1000 177.0000 1.0000
41.1200 174.0000 1.0000
41.1400 157.0000 1.0000
41.1600 173.0000 1.0000
41.1800 181.0000 1.0000
41.2000 177.0000 1.0000
41.2200 177.0000 1.0000
41.2400 186.0000 1.0000
41.2600 181.0000 1.0000
41.2800 180.0000 1.0000
41.3000 214.0000 1.0000
41.3200 240.0000 1.0000
41.3400 236.0000 1.0000
41.3600 256.0000 1.0000
41.3800 262.0000 1.0000
41.4000 254.0000 1.0000
41.4200 272.0000 1.0000
41.4400 271.0000 1.0000
41.4600 252.0000 1.0000
41.4800 255.0000 1.0000
41.5000 254.0000 1.0000
41.5200 281.0000 1.0000
41.5400 272.0000 1.0000
41.5600 245.0000 1.0000
41.5800 248.0000 1.0000
41.6000 265.0000 1.0000
41.6200 252.0000 1.0000
41.6400 237.0000 1.0000
41.6600 240.0000 1.0000
41.6800 223.0000 1.0000
41.7000 214.0000 1.0000
41.7200 215.0000 1.0000
41.7400 185.0000 1.0000
41.7600 171.0000 1.0000
41.7800 170.0000 1.0000
41.8000 191.0000 1.0000
41.8200 191.0000 1.0000
41.8400 176.0000 1.0000
41.8600 168.0000 1.0000
41.8800 182.0000 1.0000
41.9000 183.0000 1.0000
41.9200 169.0000 1.0000
41.9400 180.0000 1.0000
41.9600 197.0000 1.0000
41.9800 195.0000 1.0000
42.0000 200.0000 1.0000
42.0200 223.0000 1.0000
42.0400 236.0000 1.0000
42.0600 228.0000 1.0000
42.0800 247.0000 1.0000
42.1000 280.0000 1.0000
42.1200 290.0000 1.0000
42.1400 319.0000 1.0000
42.1600 336.0000 1.0000
42.1800 352.0000 1.0000
42.2000 390.0000 1.0000
42.2200 436.0000 1.0000
42.2400 473.0000 1.0000
42.2600 536.0000 1.0000
42.2800 558.0000 1.0000
42.3000 535.0000 1.0000
42.3200 530.0000 1.0000
42.3400 478.0000 1.0000
42.3600 440.0000 1.0000
42.3800 424.0000 1.0000
42.4000 372.0000 1.0000
42.4200 320.0000 1.0000
42.4400 287.0000 1.0000
42.4600 273.0000 1.0000
42.4800 239.0000 1.0000
42.5000 234.0000 1.0000
42.5200 206.0000 1.0000
42.5400 213.0000 1.0000
42.5600 211.0000 1.0000
42.5800 228.0000 1.0000
42.6000 231.0000 1.0000
42.6200 241.0000 1.0000
42.6400 270.0000 1.0000
42.6600 258.0000 1.0000
42.6800 276.0000 1.0000
42.7000 297.0000 1.0000
42.7200 297.0000 1.0000
42.7400 314.0000 1.0000
42.7600 271.0000 1.0000
42.7800 279.0000 1.0000
42.8000 287.0000 1.0000
42.8200 291.0000 1.0000
42.8400 272.0000 1.0000
42.8600 260.0000 1.0000
42.8800 285.0000 1.0000
42.9000 279.0000 1.0000
42.9200 245.0000 1.0000
42.9400 266.0000 1.0000
42.9600 274.0000 1.0000
42.9800 300.0000 1.0000
43.0000 349.0000 1.0000
43.0200 374.0000 1.0000
43.0400 445.0000 1.0000
43.0600 546.0000 1.0000
43.0800 679.0000 1.0000
43.1000 800.0000 1.0000
43.1200 1004.0000 1.0000
43.1400 1219.0000 1.0000
43.1600 1409.0000 1.0000
43.1800 1612.0000 1.0000
43.2000 1606.0000 1.0000
43.2200 1555.0000 1.0000
43.2400 1462.0000 1.0000
43.2600 1372.0000 1.0000
43.2800 1163.0000 1.0000
43.3000 1034.0000 1.0000
43.3200 926.0000 1.0000
43.3400 768.0000 1.0000
43.3600 642.0000 1.0000
43.3800 502.0000 1.0000
43.4000 379.0000 1.0000
43.4200 303.0000 1.0000
43.4400 252.0000 1.0000
43.4600 213.0000 1.0000
43.4800 224.0000 1.0000
43.5000 207.0000 1.0000
43.5200 175.0000 1.0000
43.5400 159.0000 1.0000
43.5600 167.0000 1.0000
43.5800 162.0000 1.0000
43.6000 172.0000 1.0000
43.6200 157.0000 1.0000
43.6400 162.0000 1.0000
43.6600 151.0000 1.0000
43.6800 148.0000 1.0000
43.7000 139.0000 1.0000
43.7200 149.0000 1.0000
43.7400 134.0000 1.0000
43.7600 148.0000 1.0000
43.7800 159.0000 1.0000
43.8000 148.0000 1.0000
43.8200 179.0000 1.0000
43.8400 166.0000 1.0000
43.8600 158.0000 1.0000
43.8800 159.0000 1.0000
43.9000 179.0000 1.0000
43.9200 169.0000 1.0000
43.9400 157.0000 1.0000
43.9600 150.0000 1.0000
43.9800 171.0000 1.0000
44.0000 154.0000 1.0000
44.0200 150.0000 1.0000
44.0400 147.0000 1.0000
44.0600 159.0000 1.0000
44.0800 154.0000 1.0000
44.1000 125.0000 1.0000
44.1200 144.0000 1.0000
44.1400 131.0000 1.0000
44.1600 141.0000 1.0000
44.1800 126.0000 1.0000
44.2000 129.0000 1.0000
44.2200 115.0000 1.0000
44.2400 137.0000 1.0000
44.2600 125.0000 1.0000
44.2800 104.0000 1.0000
44.3000 126.0000 1.0000
44.3200 144.0000 1.0000
44.3400 156.0000 1.0000
44.3600 148.0000 1.0000
44.3800 151.0000 1.0000
44.4000 140.0000 1.0000
44.4200 185.0000 1.0000
44.4400 179.0000 1.0000
44.4600 209.0000 1.0000
44.4800 206.0000 1.0000
44.5000 198.0000 1.0000
44.5200 210.0000 1.0000
44.5400 201.0000 1.0000
44.5600 232.0000 1.0000
44.5800 218.0000 1.0000
44.6000 202.0000 1.0000
44.6200 191.0000 1.0000
44.6400 205.0000 1.0000
44.6600 196.0000 1.0000
44.6800 255.0000 1.0000
44.7000 181.0000 1.0000
44.7200 224.0000 1.0000
44.7400 180.0000 1.0000
44.7600 210.0000 1.0000
44.7800 208.0000 1.0000
44.8000 190.0000 1.0000
44.8200 184.0000 1.0000
44.8400 188.0000 1.0000
44.8600 189.0000 1.0000
44.8800 145.0000 1.0000
44.9000 176.0000 1.0000
44.9200 164.0000 1.0000
44.9400 197.0000 1.0000
44.9600 189.0000 1.0000
44.9800 184.0000 1.0000
45.0000 173.0000 1.0000
45.0200 173.0000 1.0000
45.0400 166.0000 1.0000
45.0600 141.0000 1.0000
45.0800 172.0000 1.0000
45.1000 160.0000 1.0000
45.1200 179.0000 1.0000
45.1400 150.0000 1.0000
45.1600 171.0000 1.0000
45.1800 167.0000 1.0000
45.2000 160.0000 1.0000
45.2200 155.0000 1.0000
45.2400 165.0000 1.0000
45.2600 159.0000 1.0000
45.2800 153.0000 1.0000
45.3000 142.0000 1.0000
45.3200 148.0000 1.0000
45.3400 147.0000 1.0000
45.3600 168.0000 1.0000
45.3800 165.0000 1.0000
45.4000 172.0000 1.0000
45.4200 180.0000 1.0000
45.4400 191.0000 1.0000
45.4600 206.0000 1.0000
45.4800 220.0000 1.0000
45.5000 257.0000 1.0000
45.5200 263.0000 1.0000
45.5400 278.0000 1.0000
45.5600 336.0000 1.0000
45.5800 345.0000 1.0000
45.6000 397.0000 1.0000
45.6200 396.0000 1.0000
45.6400 377.0000 1.0000
45.6600 378.0000 1.0000
45.6800 356.0000 1.0000
45.7000 344.0000 1.0000
45.7200 290.0000 1.0000
45.7400 249.0000 1.0000
45.7600 266.0000 1.0000
45.7800 251.0000 1.0000
45.8000 236.0000 1.0000
45.8200 196.0000 1.0000
45.8400 176.0000 1.0000
45.8600 167.0000 1.0000
45.8800 152.0000 1.0000
45.9000 149.0000 1.0000
45.9200 145.0000 1.0000
45.9400 149.0000 1.0000
45.9600 148.0000 1.0000
45.9800 148.0000 1.0000
46.0000 163.0000 1.0000
46.0200 158.0000 1.0000
46.0400 167.0000 1.0000
46.0600 154.0000 1.0000
46.0800 151.0000 1.0000
46.1000 114.0000 1.0000
46.1200 140.0000 1.0000
46.1400 125.0000 1.0000
46.1600 119.0000 1.0000
46.1800 125.0000 1.0000
46.2000 119.0000 1.0000
46.2200 116.0000 1.0000
46.2400 113.0000 1.0000
46.2600 118.0000 1.0000
46.2800 106.0000 1.0000
46.3000 109.0000 1.0000
46.3200 123.0000 1.0000
46.3400 112.0000 1.0000
46.3600 105.0000 1.0000
46.3800 111.0000 1.0000
46.4000 118.0000 1.0000
46.4200 134.0000 1.0000
46.4400 117.0000 1.0000
46.4600 96.0000 1.0000
46.4800 107.0000 1.0000
46.5000 120.0000 1.0000
46.5200 129.0000 1.0000
46.5400 116.0000 1.0000
46.5600 119.0000 1.0000
46.5800 120.0000 1.0000
46.6000 129.0000 1.0000
46.6200 129.0000 1.0000
46.6400 135.0000 1.0000
46.6600 131.0000 1.0000
46.6800 123.0000 1.0000
46.7000 139.0000 1.0000
46.7200 142.0000 1.0000
46.7400 162.0000 1.0000
46.7600 151.0000 1.0000
46.7800 144.0000 1.0000
46.8000 167.0000 1.0000
46.8200 154.0000 1.0000
46.8400 124.0000 1.0000
46.8600 125.0000 1.0000
46.8800 138.0000 1.0000
46.9000 133.0000 1.0000
46.9200 123.0000 1.0000
46.9400 130.0000 1.0000
46.9600 124.0000 1.0000
46.9800 116.0000 1.0000
47.0000 119.0000 1.0000
47.0200 123.0000 1.0000
47.0400 123.0000 1.0000
47.0600 120.0000 1.0000
47.0800 125.0000 1.0000
47.1000 120.0000 1.0000
47.1200 123.0000 1.0000
47.1400 125.0000 1.0000
47.1600 132.0000 1.0000
47.1800 126.0000 1.0000
47.2000 142.0000 1.0000
47.2200 132.0000 1.0000
47.2400 138.0000 1.0000
47.2600 149.0000 1.0000
47.2800 160.0000 1.0000
47.3000 149.0000 1.0000
47.3200 172.0000 1.0000
47.3400 162.0000 1.0000
47.3600 158.0000 1.0000
47.3800 169.0000 1.0000
47.4000 156.0000 1.0000
47.4200 162.0000 1.0000
47.4400 151.0000 1.0000
47.4600 151.0000 1.0000
47.4800 146.0000 1.0000
47.5000 138.0000 1.0000
47.5200 141.0000 1.0000
47.5400 144.0000 1.0000
47.5600 134.0000 1.0000
47.5800 137.0000 1.0000
47.6000 126.0000 1.0000
47.6200 129.0000 1.0000
47.6400 128.0000 1.0000
47.6600 124.0000 1.0000
47.6800 123.0000 1.0000
47.7000 126.0000 1.0000
47.7200 120.0000 1.0000
47.7400 129.0000 1.0000
47.7600 130.0000 1.0000
47.7800 134.0000 1.0000
47.8000 131.0000 1.0000
47.8200 133.0000 1.0000
47.8400 117.0000 1.0000
47.8600 107.0000 1.0000
47.8800 112.0000 1.0000
47.9000 104.0000 1.0000
47.9200 114.0000 1.0000
47.9400 130.0000 1.0000
47.9600 122.0000 1.0000
47.9800 130.0000 1.0000
48.0000 133.0000 1.0000
48.0200 146.0000 1.0000
48.0400 152.0000 1.0000
48.0600 153.0000 1.0000
48.0800 151.0000 1.0000
48.1000 162.0000 1.0000
48.1200 161.0000 1.0000
48.1400 187.0000 1.0000
48.1600 194.0000 1.0000
48.1800 190.0000 1.0000
48.2000 198.0000 1.0000
48.2200 202.0000 1.0000
48.2400 201.0000 1.0000
48.2600 182.0000 1.0000
48.2800 156.0000 1.0000
48.3000 158.0000 1.0000
48.3200 165.0000 1.0000
48.3400 159.0000 1.0000
48.3600 161.0000 1.0000
48.3800 154.0000 1.0000
48.4000 148.0000 1.0000
48.4200 137.0000 1.0000
48.4400 142.0000 1.0000
48.4600 156.0000 1.0000
48.4800 150.0000 1.0000
48.5000 141.0000 1.0000
48.5200 143.0000 1.0000
48.5400 140.0000 1.0000
48.5600 140.0000 1.0000
48.5800 144.0000 1.0000
48.6000 135.0000 1.0000
48.6200 133.0000 1.0000
48.6400 132.0000 1.0000
48.6600 144.0000 1.0000
48.6800 150.0000 1.0000
48.7000 147.0000 1.0000
48.7200 149.0000 1.0000
48.7400 152.0000 1.0000
48.7600 169.0000 1.0000
48.7800 174.0000 1.0000
48.8000 178.0000 1.0000
48.8200 193.0000 1.0000
48.8400 203.0000 1.0000
48.8600 190.0000 1.0000
48.8800 175.0000 1.0000
48.9000 181.0000 1.0000
48.9200 197.0000 1.0000
48.9400 206.0000 1.0000
48.9600 208.0000 1.0000
48.9800 219.0000 1.0000
49.0000 222.0000 1.0000
49.0200 236.0000 1.0000
49.0400 261.0000 1.0000
49.0600 253.0000 1.0000
49.0800 236.0000 1.0000
49.1000 231.0000 1.0000
49.1200 226.0000 1.0000
49.1400 227.0000 1.0000
49.1600 212.0000 1.0000
49.1800 200.0000 1.0000
49.2000 205.0000 1.0000
49.2200 183.0000 1.0000
49.2400 165.0000 1.0000
49.2600 161.0000 1.0000
49.2800 159.0000 1.0000
49.3000 160.0000 1.0000
49.3200 156.0000 1.0000
49.3400 162.0000 1.0000
49.3600 171.0000 1.0000
49.3800 161.0000 1.0000
49.4000 159.0000 1.0000
49.4200 161.0000 1.0000
49.4400 171.0000 1.0000
49.4600 181.0000 1.0000
49.4800 195.0000 1.0000
49.5000 197.0000 1.0000
49.5200 215.0000 1.0000
49.5400 241.0000 1.0000
49.5600 247.0000 1.0000
49.5800 265.0000 1.0000
49.6000 276.0000 1.0000
49.6200 304.0000 1.0000
49.6400 329.0000 1.0000
49.6600 356.0000 1.0000
49.6800 389.0000 1.0000
49.7000 376.0000 1.0000
49.7200 389.0000 1.0000
49.7400 413.0000 1.0000
49.7600 419.0000 1.0000
49.7800 448.0000 1.0000
49.8000 428.0000 1.0000
49.8200 422.0000 1.0000
49.8400 465.0000 1.0000
49.8600 474.0000 1.0000
49.8800 533.0000 1.0000
49.9000 633.0000 1.0000
49.9200 737.0000 1.0000
49.9400 829.0000 1.0000
49.9600 964.0000 1.0000
49.9800 1024.0000 1.0000
50.0000 1024.0000 1.0000
50.0200 962.0000 1.0000
50.0400 878.0000 1.0000
50.0600 803.0000 1.0000
50.0800 733.0000 1.0000
50.1000 671.0000 1.0000
50.1200 564.0000 1.0000
50.1400 543.0000 1.0000
50.1600 497.0000 1.0000
50.1800 416.0000 1.0000
50.2000 352.0000 1.0000
50.2200 273.0000 1.0000
50.2400 216.0000 1.0000
50.2600 206.0000 1.0000
50.2800 201.0000 1.0000
50.3000 199.0000 1.0000
50.3200 209.0000 1.0000
50.3400 190.0000 1.0000
50.3600 216.0000 1.0000
50.3800 214.0000 1.0000
50.4000 219.0000 1.0000
50.4200 213.0000 1.0000
50.4400 215.0000 1.0000
50.4600 226.0000 1.0000
50.4800 240.0000 1.0000
50.5000 257.0000 1.0000
50.5200 279.0000 1.0000
50.5400 283.0000 1.0000
50.5600 286.0000 1.0000
50.5800 299.0000 1.0000
50.6000 271.0000 1.0000
50.6200 257.0000 1.0000
50.6400 255.0000 1.0000
50.6600 240.0000 1.0000
50.6800 237.0000 1.0000
50.7000 219.0000 1.0000
50.7200 207.0000 1.0000
50.7400 214.0000 1.0000
50.7600 182.0000 1.0000
50.7800 184.0000 1.0000
50.8000 170.0000 1.0000
50.8200 170.0000 1.0000
50.8400 136.0000 1.0000
50.8600 151.0000 1.0000
50.8800 165.0000 1.0000
50.9000 151.0000 1.0000
50.9200 168.0000 1.0000
50.9400 162.0000 1.0000
50.9600 171.0000 1.0000
50.9800 171.0000 1.0000
51.0000 186.0000 1.0000
51.0200 178.0000 1.0000
51.0400 191.0000 1.0000
51.0600 202.0000 1.0000
51.0800 218.0000 1.0000
51.1000 205.0000 1.0000
51.1200 243.0000 1.0000
51.1400 273.0000 1.0000
51.1600 312.0000 1.0000
51.1800 309.0000 1.0000
51.2000 335.0000 1.0000
51.2200 319.0000 1.0000
51.2400 306.0000 1.0000
51.2600 305.0000 1.0000
51.2800 281.0000 1.0000
51.3000 244.0000 1.0000
51.3200 228.0000 1.0000
51.3400 211.0000 1.0000
51.3600 211.0000 1.0000
51.3800 215.0000 1.0000
51.4000 188.0000 1.0000
51.4200 178.0000 1.0000
51.4400 160.0000 1.0000
51.4600 151.0000 1.0000
51.4800 142.0000 1.0000
51.5000 145.0000 1.0000
51.5200 128.0000 1.0000
51.5400 124.0000 1.0000
51.5600 142.0000 1.0000
51.5800 137.0000 1.0000
51.6000 131.0000 1.0000
51.6200 120.0000 1.0000
51.6400 121.0000 1.0000
51.6600 97.0000 1.0000
51.6800 116.0000 1.0000
51.7000 112.0000 1.0000
51.7200 114.0000 1.0000
51.7400 118.0000 1.0000
51.7600 123.0000 1.0000
51.7800 143.0000 1.0000
51.8000 123.0000 1.0000
51.8200 145.0000 1.0000
51.8400 119.0000 1.0000
51.8600 139.0000 1.0000
51.8800 140.0000 1.0000
51.9000 134.0000 1.0000
51.9200 108.0000 1.0000
51.9400 144.0000 1.0000
51.9600 144.0000 1.0000
51.9800 145.0000 1.0000
52.0000 140.0000 1.0000
52.0200 159.0000 1.0000
52.0400 171.0000 1.0000
52.0600 156.0000 1.0000
52.0800 176.0000 1.0000
52.1000 169.0000 1.0000
52.1200 202.0000 1.0000
52.1400 207.0000 1.0000
52.1600 162.0000 1.0000
52.1800 211.0000 1.0000
52.2000 203.0000 1.0000
52.2200 205.0000 1.0000
52.2400 272.0000 1.0000
52.2600 270.0000 1.0000
52.2800 335.0000 1.0000
52.3000 355.0000 1.0000
52.3200 519.0000 1.0000
52.3400 540.0000 1.0000
52.3600 597.0000 1.0000
52.3800 730.0000 1.0000
52.4000 735.0000 1.0000
52.4200 794.0000 1.0000
52.4400 715.0000 1.0000
52.4600 713.0000 1.0000
52.4800 636.0000 1.0000
52.5000 641.0000 1.0000
52.5200 570.0000 1.0000
52.5400 519.0000 1.0000
52.5600 489.0000 1.0000
52.5800 445.0000 1.0000
52.6000 415.0000 1.0000
52.6200 358.0000 1.0000
52.6400 288.0000 1.0000
52.6600 247.0000 1.0000
52.6800 217.0000 1.0000
52.7000 188.0000 1.0000
52.7200 188.0000 1.0000
52.7400 191.0000 1.0000
52.7600 166.0000 1.0000
52.7800 185.0000 1.0000
52.8000 188.0000 1.0000
52.8200 170.0000 1.0000
52.8400 196.0000 1.0000
52.8600 195.0000 1.0000
52.8800 190.0000 1.0000
52.9000 222.0000 1.0000
52.9200 163.0000 1.0000
52.9400 190.0000 1.0000
52.9600 208.0000 1.0000
52.9800 214.0000 1.0000
53.0000 210.0000 1.0000
53.0200 183.0000 1.0000
53.0400 212.0000 1.0000
53.0600 185.0000 1.0000
53.0800 186.0000 1.0000
53.1000 198.0000 1.0000
53.1200 164.0000 1.0000
53.1400 161.0000 1.0000
53.1600 158.0000 1.0000
53.1800 158.0000 1.0000
53.2000 157.0000 1.0000
53.2200 139.0000 1.0000
53.2400 157.0000 1.0000
53.2600 141.0000 1.0000
53.2800 140.0000 1.0000
53.3000 153.0000 1.0000
53.3200 140.0000 1.0000
53.3400 131.0000 1.0000
53.3600 138.0000 1.0000
53.3800 144.0000 1.0000
53.4000 130.0000 1.0000
53.4200 126.0000 1.0000
53.4400 135.0000 1.0000
53.4600 125.0000 1.0000
53.4800 119.0000 1.0000
53.5000 115.0000 1.0000
53.5200 140.0000 1.0000
53.5400 141.0000 1.0000
53.5600 147.0000 1.0000
53.5800 141.0000 1.0000
53.6000 138.0000 1.0000
53.6200 150.0000 1.0000
53.6400 168.0000 1.0000
53.6600 162.0000 1.0000
53.6800 136.0000 1.0000
53.7000 139.0000 1.0000
53.7200 138.0000 1.0000
53.7400 164.0000 1.0000
53.7600 158.0000 1.0000
53.7800 170.0000 1.0000
53.8000 173.0000 1.0000
53.8200 185.0000 1.0000
53.8400 178.0000 1.0000
53.8600 164.0000 1.0000
53.8800 168.0000 1.0000
53.9000 175.0000 1.0000
53.9200 167.0000 1.0000
53.9400 172.0000 1.0000
53.9600 178.0000 1.0000
53.9800 178.0000 1.0000
54.0000 184.0000 1.0000
54.0200 165.0000 1.0000
54.0400 165.0000 1.0000
54.0600 176.0000 1.0000
54.0800 167.0000 1.0000
54.1000 151.0000 1.0000
54.1200 146.0000 1.0000
54.1400 153.0000 1.0000
54.1600 166.0000 1.0000
54.1800 173.0000 1.0000
54.2000 188.0000 1.0000
54.2200 189.0000 1.0000
54.2400 172.0000 1.0000
54.2600 173.0000 1.0000
54.2800 170.0000 1.0000
54.3000 188.0000 1.0000
54.3200 178.0000 1.0000
54.3400 177.0000 1.0000
54.3600 179.0000 1.0000
54.3800 179.0000 1.0000
54.4000 191.0000 1.0000
54.4200 166.0000 1.0000
54.4400 162.0000 1.0000
54.4600 151.0000 1.0000
54.4800 170.0000 1.0000
54.5000 164.0000 1.0000
54.5200 161.0000 1.0000
54.5400 148.0000 1.0000
54.5600 157.0000 1.0000
54.5800 183.0000 1.0000
54.6000 199.0000 1.0000
54.6200 220.0000 1.0000
54.6400 247.0000 1.0000
54.6600 272.0000 1.0000
54.6800 302.0000 1.0000
54.7000 354.0000 1.0000
54.7200 351.0000 1.0000
54.7400 336.0000 1.0000
54.7600 327.0000 1.0000
54.7800 323.0000 1.0000
54.8000 311.0000 1.0000
54.8200 307.0000 1.0000
54.8400 282.0000 1.0000
54.8600 254.0000 1.0000
54.8800 245.0000 1.0000
54.9000 235.0000 1.0000
54.9200 215.0000 1.0000
54.9400 194.0000 1.0000
54.9600 181.0000 1.0000
54.9800 176.0000 1.0000
55.0000 188.0000 1.0000
55.0200 179.0000 1.0000
55.0400 171.0000 1.0000
55.0600 175.0000 1.0000
55.0800 192.0000 1.0000
55.1000 197.0000 1.0000
55.1200 216.0000 1.0000
55.1400 248.0000 1.0000
55.1600 268.0000 1.0000
55.1800 253.0000 1.0000
55.2000 260.0000 1.0000
55.2200 285.0000 1.0000
55.2400 295.0000 1.0000
55.2600 267.0000 1.0000
55.2800 264.0000 1.0000
55.3000 278.0000 1.0000
55.3200 267.0000 1.0000
55.3400 253.0000 1.0000
55.3600 240.0000 1.0000
55.3800 239.0000 1.0000
55.4000 219.0000 1.0000
55.4200 200.0000 1.0000
55.4400 189.0000 1.0000
55.4600 182.0000 1.0000
55.4800 165.0000 1.0000
55.5000 154.0000 1.0000
55.5200 135.0000 1.0000
55.5400 141.0000 1.0000
55.5600 158.0000 1.0000
55.5800 139.0000 1.0000
55.6000 142.0000 1.0000
55.6200 145.0000 1.0000
55.6400 153.0000 1.0000
55.6600 158.0000 1.0000
55.6800 137.0000 1.0000
55.7000 139.0000 1.0000
55.7200 143.0000 1.0000
55.7400 142.0000 1.0000
55.7600 144.0000 1.0000
55.7800 136.0000 1.0000
55.8000 140.0000 1.0000
55.8200 142.0000 1.0000
55.8400 150.0000 1.0000
55.8600 142.0000 1.0000
55.8800 125.0000 1.0000
55.9000 139.0000 1.0000
55.9200 153.0000 1.0000
55.9400 154.0000 1.0000
55.9600 130.0000 1.0000
55.9800 123.0000 1.0000
56.0000 146.0000 1.0000
56.0200 153.0000 1.0000
56.0400 142.0000 1.0000
56.0600 138.0000 1.0000
56.0800 140.0000 1.0000
56.1000 128.0000 1.0000
56.1200 126.0000 1.0000
56.1400 131.0000 1.0000
56.1600 129.0000 1.0000
56.1800 141.0000 1.0000
56.2000 147.0000 1.0000
56.2200 123.0000 1.0000
56.2400 124.0000 1.0000
56.2600 145.0000 1.0000
56.2800 143.0000 1.0000
56.3000 139.0000 1.0000
56.3200 133.0000 1.0000
56.3400 127.0000 1.0000
56.3600 126.0000 1.0000
56.3800 132.0000 1.0000
56.4000 143.0000 1.0000
56.4200 142.0000 1.0000
56.4400 152.0000 1.0000
56.4600 153.0000 1.0000
56.4800 168.0000 1.0000
56.5000 157.0000 1.0000
56.5200 146.0000 1.0000
56.5400 155.0000 1.0000
56.5600 155.0000 1.0000
56.5800 161.0000 1.0000
56.6000 161.0000 1.0000
56.6200 168.0000 1.0000
56.6400 166.0000 1.0000
56.6600 157.0000 1.0000
56.6800 143.0000 1.0000
56.7000 154.0000 1.0000
56.7200 153.0000 1.0000
56.7400 141.0000 1.0000
56.7600 130.0000 1.0000
56.7800 127.0000 1.0000
56.8000 128.0000 1.0000
56.8200 123.0000 1.0000
56.8400 117.0000 1.0000
56.8600 123.0000 1.0000
56.8800 113.0000 1.0000
56.9000 131.0000 1.0000
56.9200 141.0000 1.0000
56.9400 142.0000 1.0000
56.9600 143.0000 1.0000
56.9800 144.0000 1.0000
57.0000 148.0000 1.0000
57.0200 162.0000 1.0000
57.0400 166.0000 1.0000
57.0600 179.0000 1.0000
57.0800 199.0000 1.0000
57.1000 208.0000 1.0000
57.1200 228.0000 1.0000
57.1400 255.0000 1.0000
57.1600 265.0000 1.0000
57.1800 306.0000 1.0000
57.2000 362.0000 1.0000
57.2200 429.0000 1.0000
57.2400 510.0000 1.0000
57.2600 646.0000 1.0000
57.2800 796.0000 1.0000
57.3000 968.0000 1.0000
57.3200 1160.0000 1.0000
57.3400 1314.0000 1.0000
57.3600 1354.0000 1.0000
57.3800 1287.0000 1.0000
57.4000 1202.0000 1.0000
57.4200 1071.0000 1.0000
57.4400 1009.0000 1.0000
57.4600 926.0000 1.0000
57.4800 907.0000 1.0000
57.5000 863.0000 1.0000
57.5200 799.0000 1.0000
57.5400 736.0000 1.0000
57.5600 634.0000 1.0000
57.5800 514.0000 1.0000
57.6000 403.0000 1.0000
57.6200 338.0000 1.0000
57.6400 303.0000 1.0000
57.6600 268.0000 1.0000
57.6800 265.0000 1.0000
57.7000 221.0000 1.0000
57.7200 201.0000 1.0000
57.7400 229.0000 1.0000
57.7600 233.0000 1.0000
57.7800 202.0000 1.0000
57.8000 196.0000 1.0000
57.8200 214.0000 1.0000
57.8400 190.0000 1.0000
57.8600 198.0000 1.0000
57.8800 215.0000 1.0000
57.9000 195.0000 1.0000
57.9200 181.0000 1.0000
57.9400 184.0000 1.0000
57.9600 170.0000 1.0000
57.9800 159.0000 1.0000
58.0000 162.0000 1.0000
58.0200 134.0000 1.0000
58.0400 148.0000 1.0000
58.0600 142.0000 1.0000
58.0800 135.0000 1.0000
58.1000 134.0000 1.0000
58.1200 121.0000 1.0000
58.1400 121.0000 1.0000
58.1600 136.0000 1.0000
58.1800 143.0000 1.0000
58.2000 133.0000 1.0000
58.2200 140.0000 1.0000
58.2400 139.0000 1.0000
58.2600 158.0000 1.0000
58.2800 157.0000 1.0000
58.3000 135.0000 1.0000
58.3200 145.0000 1.0000
58.3400 155.0000 1.0000
58.3600 159.0000 1.0000
58.3800 154.0000 1.0000
58.4000 151.0000 1.0000
58.4200 168.0000 1.0000
58.4400 156.0000 1.0000
58.4600 156.0000 1.0000
58.4800 152.0000 1.0000
58.5000 160.0000 1.0000
58.5200 138.0000 1.0000
58.5400 171.0000 1.0000
58.5600 163.0000 1.0000
58.5800 145.0000 1.0000
58.6000 164.0000 1.0000
58.6200 166.0000 1.0000
58.6400 156.0000 1.0000
58.6600 147.0000 1.0000
58.6800 135.0000 1.0000
58.7000 152.0000 1.0000
58.7200 155.0000 1.0000
58.7400 142.0000 1.0000
58.7600 153.0000 1.0000
58.7800 125.0000 1.0000
58.8000 132.0000 1.0000
58.8200 125.0000 1.0000
58.8400 137.0000 1.0000
58.8600 143.0000 1.0000
58.8800 125.0000 1.0000
58.9000 124.0000 1.0000
58.9200 119.0000 1.0000
58.9400 146.0000 1.0000
58.9600 140.0000 1.0000
58.9800 126.0000 1.0000
59.0000 140.0000 1.0000
59.0200 139.0000 1.0000
59.0400 148.0000 1.0000
59.0600 160.0000 1.0000
59.0800 141.0000 1.0000
59.1000 150.0000 1.0000
59.1200 139.0000 1.0000
59.1400 144.0000 1.0000
59.1600 135.0000 1.0000
59.1800 146.0000 1.0000
59.2000 130.0000 1.0000
59.2200 139.0000 1.0000
59.2400 144.0000 1.0000
59.2600 140.0000 1.0000
59.2800 137.0000 1.0000
59.3000 156.0000 1.0000
59.3200 158.0000 1.0000
59.3400 147.0000 1.0000
59.3600 138.0000 1.0000
59.3800 145.0000 1.0000
59.4000 145.0000 1.0000
59.4200 174.0000 1.0000
59.4400 166.0000 1.0000
59.4600 169.0000 1.0000
59.4800 192.0000 1.0000
59.5000 204.0000 1.0000
59.5200 213.0000 1.0000
59.5400 207.0000 1.0000
59.5600 230.0000 1.0000
59.5800 219.0000 1.0000
59.6000 236.0000 1.0000
59.6200 267.0000 1.0000
59.6400 282.0000 1.0000
59.6600 288.0000 1.0000
59.6800 351.0000 1.0000
59.7000 393.0000 1.0000
59.7200 427.0000 1.0000
59.7400 528.0000 1.0000
59.7600 576.0000 1.0000
59.7800 662.0000 1.0000
59.8000 724.0000 1.0000
59.8200 706.0000 1.0000
59.8400 674.0000 1.0000
59.8600 638.0000 1.0000
59.8800 577.0000 1.0000
59.9000 511.0000 1.0000
59.9200 522.0000 1.0000
59.9400 500.0000 1.0000
59.9600 467.0000 1.0000
59.9800 483.0000 1.0000
60.0000 485.0000 1.0000
60.0200 416.0000 1.0000
60.0400 406.0000 1.0000
60.0600 348.0000 1.0000
60.0800 313.0000 1.0000
60.1000 258.0000 1.0000
60.1200 210.0000 1.0000
60.1400 215.0000 1.0000
60.1600 205.0000 1.0000
60.1800 226.0000 1.0000
60.2000 209.0000 1.0000
60.2200 222.0000 1.0000
60.2400 183.0000 1.0000
60.2600 193.0000 1.0000
60.2800 186.0000 1.0000
60.3000 198.0000 1.0000
60.3200 191.0000 1.0000
60.3400 167.0000 1.0000
60.3600 186.0000 1.0000
60.3800 163.0000 1.0000
60.4000 152.0000 1.0000
60.4200 168.0000 1.0000
60.4400 201.0000 1.0000
60.4600 148.0000 1.0000
60.4800 176.0000 1.0000
60.5000 201.0000 1.0000
60.5200 191.0000 1.0000
60.5400 168.0000 1.0000
60.5600 185.0000 1.0000
60.5800 186.0000 1.0000
60.6000 189.0000 1.0000
60.6200 198.0000 1.0000
60.6400 184.0000 1.0000
60.6600 198.0000 1.0000
60.6800 186.0000 1.0000
60.7000 173.0000 1.0000
60.7200 200.0000 1.0000
60.7400 197.0000 1.0000
60.7600 203.0000 1.0000
60.7800 171.0000 1.0000
60.8000 178.0000 1.0000
60.8200 152.0000 1.0000
60.8400 174.0000 1.0000
60.8600 172.0000 1.0000
60.8800 199.0000 1.0000
60.9000 169.0000 1.0000
60.9200 168.0000 1.0000
60.9400 193.0000 1.0000
60.9600 201.0000 1.0000
60.9800 205.0000 1.0000
61.0000 204.0000 1.0000
61.0200 215.0000 1.0000
61.0400 241.0000 1.0000
61.0600 210.0000 1.0000
61.0800 225.0000 1.0000
61.1000 251.0000 1.0000
61.1200 226.0000 1.0000
61.1400 284.0000 1.0000
61.1600 269.0000 1.0000
61.1800 298.0000 1.0000
61.2000 283.0000 1.0000
61.2200 268.0000 1.0000
61.2400 257.0000 1.0000
61.2600 249.0000 1.0000
61.2800 239.0000 1.0000
61.3000 210.0000 1.0000
61.3200 251.0000 1.0000
61.3400 212.0000 1.0000
61.3600 237.0000 1.0000
61.3800 217.0000 1.0000
61.4000 183.0000 1.0000
61.4200 189.0000 1.0000
61.4400 173.0000 1.0000
61.4600 147.0000 1.0000
61.4800 181.0000 1.0000
61.5000 168.0000 1.0000
61.5200 177.0000 1.0000
61.5400 168.0000 1.0000
61.5600 201.0000 1.0000
61.5800 175.0000 1.0000
61.6000 194.0000 1.0000
61.6200 172.0000 1.0000
61.6400 191.0000 1.0000
61.6600 192.0000 1.0000
61.6800 170.0000 1.0000
61.7000 164.0000 1.0000
61.7200 168.0000 1.0000
61.7400 181.0000 1.0000
61.7600 179.0000 1.0000
61.7800 198.0000 1.0000
61.8000 169.0000 1.0000
61.8200 159.0000 1.0000
61.8400 177.0000 1.0000
61.8600 168.0000 1.0000
61.8800 173.0000 1.0000
61.9000 147.0000 1.0000
61.9200 169.0000 1.0000
61.9400 164.0000 1.0000
61.9600 175.0000 1.0000
61.9800 168.0000 1.0000
62.0000 160.0000 1.0000
62.0200 161.0000 1.0000
62.0400 175.0000 1.0000
62.0600 175.0000 1.0000
62.0800 158.0000 1.0000
62.1000 172.0000 1.0000
62.1200 149.0000 1.0000
62.1400 164.0000 1.0000
62.1600 156.0000 1.0000
62.1800 150.0000 1.0000
62.2000 149.0000 1.0000
62.2200 122.0000 1.0000
62.2400 156.0000 1.0000
62.2600 144.0000 1.0000
62.2800 155.0000 1.0000
62.3000 162.0000 1.0000
62.3200 152.0000 1.0000
62.3400 149.0000 1.0000
62.3600 147.0000 1.0000
62.3800 142.0000 1.0000
62.4000 134.0000 1.0000
62.4200 135.0000 1.0000
62.4400 148.0000 1.0000
62.4600 143.0000 1.0000
62.4800 153.0000 1.0000
62.5000 133.0000 1.0000
62.5200 152.0000 1.0000
62.5400 165.0000 1.0000
62.5600 147.0000 1.0000
62.5800 148.0000 1.0000
62.6000 178.0000 1.0000
62.6200 156.0000 1.0000
62.6400 152.0000 1.0000
62.6600 164.0000 1.0000
62.6800 162.0000 1.0000
62.7000 170.0000 1.0000
62.7200 160.0000 1.0000
62.7400 144.0000 1.0000
62.7600 163.0000 1.0000
62.7800 174.0000 1.0000
62.8000 155.0000 1.0000
62.8200 167.0000 1.0000
62.8400 159.0000 1.0000
62.8600 147.0000 1.0000
62.8800 144.0000 1.0000
62.9000 154.0000 1.0000
62.9200 157.0000 1.0000
62.9400 154.0000 1.0000
62.9600 169.0000 1.0000
62.9800 150.0000 1.0000
63.0000 175.0000 1.0000
63.0200 135.0000 1.0000
63.0400 144.0000 1.0000
63.0600 139.0000 1.0000
63.0800 141.0000 1.0000
63.1000 153.0000 1.0000
63.1200 141.0000 1.0000
63.1400 153.0000 1.0000
63.1600 153.0000 1.0000
63.1800 156.0000 1.0000
63.2000 137.0000 1.0000
63.2200 145.0000 1.0000
63.2400 152.0000 1.0000
63.2600 160.0000 1.0000
63.2800 167.0000 1.0000
63.3000 176.0000 1.0000
63.3200 166.0000 1.0000
63.3400 188.0000 1.0000
63.3600 195.0000 1.0000
63.3800 189.0000 1.0000
63.4000 176.0000 1.0000
63.4200 190.0000 1.0000
63.4400 179.0000 1.0000
63.4600 179.0000 1.0000
63.4800 198.0000 1.0000
63.5000 189.0000 1.0000
63.5200 202.0000 1.0000
63.5400 215.0000 1.0000
63.5600 199.0000 1.0000
63.5800 216.0000 1.0000
63.6000 237.0000 1.0000
63.6200 230.0000 1.0000
63.6400 223.0000 1.0000
63.6600 220.0000 1.0000
63.6800 238.0000 1.0000
63.7000 232.0000 1.0000
63.7200 241.0000 1.0000
63.7400 232.0000 1.0000
63.7600 219.0000 1.0000
63.7800 236.0000 1.0000
63.8000 236.0000 1.0000
63.8200 234.0000 1.0000
63.8400 263.0000 1.0000
63.8600 275.0000 1.0000
63.8800 277.0000 1.0000
63.9000 291.0000 1.0000
63.9200 274.0000 1.0000
63.9400 257.0000 1.0000
63.9600 247.0000 1.0000
63.9800 239.0000 1.0000
64.0000 212.0000 1.0000
64.0200 224.0000 1.0000
64.0400 246.0000 1.0000
64.0600 226.0000 1.0000
64.0800 211.0000 1.0000
64.1000 193.0000 1.0000
64.1200 195.0000 1.0000
64.1400 220.0000 1.0000
64.1600 216.0000 1.0000
64.1800 194.0000 1.0000
64.2000 177.0000 1.0000
64.2200 176.0000 1.0000
64.2400 175.0000 1.0000
64.2600 186.0000 1.0000
64.2800 195.0000 1.0000
64.3000 213.0000 1.0000
64.3200 193.0000 1.0000
64.3400 193.0000 1.0000
64.3600 197.0000 1.0000
64.3800 194.0000 1.0000
64.4000 172.0000 1.0000
64.4200 171.0000 1.0000
64.4400 173.0000 1.0000
64.4600 175.0000 1.0000
64.4800 176.0000 1.0000
64.5000 166.0000 1.0000
64.5200 156.0000 1.0000
64.5400 165.0000 1.0000
64.5600 153.0000 1.0000
64.5800 147.0000 1.0000
64.6000 142.0000 1.0000
64.6200 143.0000 1.0000
64.6400 135.0000 1.0000
64.6600 136.0000 1.0000
64.6800 141.0000 1.0000
64.7000 147.0000 1.0000
64.7200 138.0000 1.0000
64.7400 130.0000 1.0000
64.7600 133.0000 1.0000
64.7800 142.0000 1.0000
64.8000 130.0000 1.0000
64.8200 140.0000 1.0000
64.8400 153.0000 1.0000
64.8600 145.0000 1.0000
64.8800 141.0000 1.0000
64.9000 152.0000 1.0000
64.9200 141.0000 1.0000
64.9400 133.0000 1.0000
64.9600 132.0000 1.0000
64.9800 132.0000 1.0000
65.0000 132.0000 1.0000
*RAS_INT_END
*RAS_DATA_END
