*RAS_DATA_START
*RAS_HEADER_START
*CORR_POS_DB_NAME "Angle Correction ASC6 SC WITH Mono_04082019"
*CORR_POS_GONIO_RADIUS ""
*CORR_POS_NODE_INDEX01 ""
*CORR_POS_NODE_INDEX02 ""
*CORR_POS_NODE_INDEX03 ""
*CORR_POS_NODE_INDEX04 ""
*CORR_POS_NODE_INDEX05 ""
*CORR_POS_NODE_INDEX06 ""
*CORR_POS_NODE_INDEX07 ""
*CORR_POS_NODE_INDEX08 ""
*CORR_POS_NODE_INDEX09 ""
*CORR_POS_NODE_INDEX10 ""
*CORR_POS_NODE_INDEX11 ""
*CORR_POS_NODE_LABEL01 "Si(111)"
*CORR_POS_NODE_LABEL02 "Si(220)"
*CORR_POS_NODE_LABEL03 "Si(311)"
*CORR_POS_NODE_LABEL04 "Si(400)"
*CORR_POS_NODE_LABEL05 "Si(331)"
*CORR_POS_NODE_LABEL06 "Si(422)"
*CORR_POS_NODE_LABEL07 "Si(511)"
*CORR_POS_NODE_LABEL08 "Si(440)"
*CORR_POS_NODE_LABEL09 "Si(531)"
*CORR_POS_NODE_LABEL10 "Si(620)"
*CORR_POS_NODE_LABEL11 "Si(533)"
*CORR_POS_NODE_POS_CALC01 "28.377"
*CORR_POS_NODE_POS_CALC02 "47.2506"
*CORR_POS_NODE_POS_CALC03 "56.0725"
*CORR_POS_NODE_POS_CALC04 "69.0822"
*CORR_POS_NODE_POS_CALC05 "76.3294"
*CORR_POS_NODE_POS_CALC06 "87.9853"
*CORR_POS_NODE_POS_CALC07 "94.9091"
*CORR_POS_NODE_POS_CALC08 "106.668"
*CORR_POS_NODE_POS_CALC09 "114.054"
*CORR_POS_NODE_POS_CALC10 "127.511"
*CORR_POS_NODE_POS_CALC11 "136.864"
*CORR_POS_NODE_POS_MEAS01 "28.5058"
*CORR_POS_NODE_POS_MEAS02 "47.345"
*CORR_POS_NODE_POS_MEAS03 "56.1421"
*CORR_POS_NODE_POS_MEAS04 "69.1304"
*CORR_POS_NODE_POS_MEAS05 "76.366"
*CORR_POS_NODE_POS_MEAS06 "88.0213"
*CORR_POS_NODE_POS_MEAS07 "94.9406"
*CORR_POS_NODE_POS_MEAS08 "106.689"
*CORR_POS_NODE_POS_MEAS09 "114.065"
*CORR_POS_NODE_POS_MEAS10 "127.518"
*CORR_POS_NODE_POS_MEAS11 "136.869"
*CORR_POS_OPT_ATTR "集中法"
*CORR_POS_PARAM_MU ""
*CORR_POS_PARAM_PL ""
*CORR_POS_SEMODEL_TYPE "0"
*CORR_POS_STANDARD_TYPE ""
*CORR_POS_VALUE_ANALYZER "None"
*CORR_POS_VALUE_CMONO "None"
*CORR_POS_VALUE_IMONO "None"
*CORR_POS_VALUE_IS "1.250deg"
*CORR_POS_VALUE_ISL "10.0mm"
*CORR_POS_VALUE_ISOLLER "5.0deg"
*CORR_POS_VALUE_RS1 "1.250deg"
*CORR_POS_VALUE_RS2 "0.3mm"
*CORR_POS_VALUE_RSOLLER "5.0deg"
*CORR_POS_XG_FOCUS_L ""
*CORR_POS_XG_WAVE_TYPE ""
*CORR_POS_XG_WAVE_VALUE ""
*DISP_FMT_X "%.2f"
*DISP_FMT_Y "%.0f"
*DISP_FULLSCALE "7008.0000000000"
*DISP_LINE_COLOR "255.0000000000"
*DISP_LINE_STYLE "0.0000000000"
*DISP_LINE_WIDTH "0.2500000000"
*DISP_NOTE "Collected Data-25"
*DISP_OFFSET_Y "0.0000000000"
*DISP_PEAKSEARCH_UNIT_Y "CPS"
*DISP_RANGE_BOTTOM "0.0000000000"
*DISP_RANGE_LEFT "5.0000000000"
*DISP_RANGE_LOGCUTOFF "0.0100000000"
*DISP_RANGE_RIGHT "65.0000000000"
*DISP_RANGE_TOP "7008.0000000000"
*DISP_SCALE_MODE_Y "0.0000000000"
*DISP_TAB_NAME "Theta/2-Theta"
*DISP_TITLE_Y "Intensity"
*DISP_UNIT_Y "CPS"
*DISP_WINDOW_NAME "MSG_MACROENGINE"
*FILE_COMMENT " "
*FILE_MD5 ""
*FILE_MEMO " "
*FILE_OPERATOR "administrator"
*FILE_PART_ID "MEAS_PBEA_00223"
*FILE_SAMPLE " "
*FILE_TYPE "RAS_RAW"
*FILE_USERGROUP "System Manager"
*FILE_VERSION "1.0000000000"
*HW_ATTACHMENT_ID "ATT1031"
*HW_ATTACHMENT_NAME "6サンプルチェンジャ|ASC-6"
*HW_COUNTER_ID-0 "CUT0021"
*HW_COUNTER_ID-1 "CUT0020"
*HW_COUNTER_ID-2 "CUT0020"
*HW_COUNTER_ID-3 "CMC0021"
*HW_COUNTER_NAME-0 "SC-70|SC-70"
*HW_COUNTER_NAME-1 "None|None"
*HW_COUNTER_NAME-2 "None|None"
*HW_COUNTER_NAME-3 "検出器モノクロメータ|Detector monochromator"
*HW_COUNTER_SELECT_NAME "SC-70|SC-70"
*HW_ECP_HV "671.5000000000"
*HW_ECP_HV_UNIT "V"
*HW_GONIOMETER_ID "GON0070"
*HW_GONIOMETER_NAME "MiniFlex 300/600|MiniFlex 300/600"
*HW_GONIOMETER_RADIUS-0 "79.0"
*HW_GONIOMETER_RADIUS-1 "91.5"
*HW_GONIOMETER_RADIUS-2 "150.0"
*HW_GONIOMETER_RADIUS-3 "0"
*HW_GONIOMETER_RADIUS-4 "103.4"
*HW_GONIOMETER_RADIUS-5 "150.0"
*HW_GONIOMETER_RADIUS-6 "46.6"
*HW_GONIOMETER_RADIUS-7 "160.0"
*HW_I_OPT_ID-0 "ISL0021"
*HW_I_OPT_ID-1 "ISO0021"
*HW_I_OPT_NAME-0 "発散スリット|Divergence slit"
*HW_I_OPT_NAME-1 "入射平行スリット|Incident parallel slit"
*HW_R_ATTENUATER_AUTOMODE "0"
*HW_R_OPT_ID-0 "RSS0021"
*HW_R_OPT_ID-1 "RSO0021"
*HW_R_OPT_ID-2 "RRS0021"
*HW_R_OPT_NAME-0 "散乱スリット|Scattering slit"
*HW_R_OPT_NAME-1 "受光平行スリット|Receiving soller slit"
*HW_R_OPT_NAME-2 "受光スリット|Receiving slit"
*HW_SAMPLE_HOLDER_ID "SMP0000"
*HW_SAMPLE_HOLDER_NAME "無し|None"
*HW_XG_CURRENT_MAX "15"
*HW_XG_CURRENT_MIN "2"
*HW_XG_CURRENT_RESOLUTION "1"
*HW_XG_CURRENT_UNIT "mA"
*HW_XG_FOCUS "1mm x 10mm"
*HW_XG_FOCUS_TYPE "Normal"
*HW_XG_ID "1060"
*HW_XG_NAME "300W/600W 封入管-B|300W/600W Sealed tube-B"
*HW_XG_TARGET_ATOMIC_NUMBER "29.0000000000"
*HW_XG_TARGET_NAME "Cu"
*HW_XG_TYPE "Hermetic"
*HW_XG_VOLTAGE_MAX "40"
*HW_XG_VOLTAGE_MIN "20"
*HW_XG_VOLTAGE_RESOLUTION "1"
*HW_XG_VOLTAGE_UNIT "kV"
*HW_XG_WATT_MAX "0.600"
*HW_XG_WATT_UNIT "kW"
*HW_XG_WAVE_LENGTH_ALPHA1 "1.540593"
*HW_XG_WAVE_LENGTH_ALPHA2 "1.544414"
*HW_XG_WAVE_LENGTH_BETA "1.392250"
*MEAS_COND_AXIS_NAME-0 "Theta/2-Theta"
*MEAS_COND_AXIS_NAME-1 "Spin"
*MEAS_COND_AXIS_NAME-2 "Change"
*MEAS_COND_AXIS_NAME-3 "Soller(inc.)"
*MEAS_COND_AXIS_NAME-4 "IHS"
*MEAS_COND_AXIS_NAME-5 "DS"
*MEAS_COND_AXIS_NAME-6 "SS"
*MEAS_COND_AXIS_NAME-7 "Soller(rec.)"
*MEAS_COND_AXIS_NAME-8 "RS"
*MEAS_COND_AXIS_NAME-9 "Filter"
*MEAS_COND_AXIS_NAME-10 "Monochromator"
*MEAS_COND_AXIS_NAME-11 "HV"
*MEAS_COND_AXIS_NAME-12 "PHA"
*MEAS_COND_AXIS_NAME_INTERNAL-0 "TwoThetaTheta"
*MEAS_COND_AXIS_NAME_INTERNAL-1 "Spin"
*MEAS_COND_AXIS_NAME_INTERNAL-2 "Change"
*MEAS_COND_AXIS_NAME_INTERNAL-3 "IncidentSollerSlit"
*MEAS_COND_AXIS_NAME_INTERNAL-4 "IncidentAxdSlit"
*MEAS_COND_AXIS_NAME_INTERNAL-5 "IncidentSlitBox"
*MEAS_COND_AXIS_NAME_INTERNAL-6 "ReceivingSlitBox1"
*MEAS_COND_AXIS_NAME_INTERNAL-7 "ReceivingSollerSlit"
*MEAS_COND_AXIS_NAME_INTERNAL-8 "ReceivingSlitBox2"
*MEAS_COND_AXIS_NAME_INTERNAL-9 "Filter"
*MEAS_COND_AXIS_NAME_INTERNAL-10 "CounterMonochromator"
*MEAS_COND_AXIS_NAME_INTERNAL-11 "HV"
*MEAS_COND_AXIS_NAME_INTERNAL-12 "PHA"
*MEAS_COND_AXIS_NAME_MAGICNO-0 "268632064.0000000000"
*MEAS_COND_AXIS_NAME_MAGICNO-1 "16842752.0000000000"
*MEAS_COND_AXIS_NAME_MAGICNO-2 "16842752.0000000000"
*MEAS_COND_AXIS_NAME_MAGICNO-3 "20971521.0000000000"
*MEAS_COND_AXIS_NAME_MAGICNO-4 "22020097.0000000000"
*MEAS_COND_AXIS_NAME_MAGICNO-5 "22020097.0000000000"
*MEAS_COND_AXIS_NAME_MAGICNO-6 "23068673.0000000000"
*MEAS_COND_AXIS_NAME_MAGICNO-7 "20971521.0000000000"
*MEAS_COND_AXIS_NAME_MAGICNO-8 "23068673.0000000000"
*MEAS_COND_AXIS_NAME_MAGICNO-9 "20971521.0000000000"
*MEAS_COND_AXIS_NAME_MAGICNO-10 "20971521.0000000000"
*MEAS_COND_AXIS_NAME_MAGICNO-11 "0.0000000000"
*MEAS_COND_AXIS_NAME_MAGICNO-12 "0.0000000000"
*MEAS_COND_AXIS_OFFSET-0 "0.0000000000"
*MEAS_COND_AXIS_OFFSET-1 "-"
*MEAS_COND_AXIS_OFFSET-2 "-"
*MEAS_COND_AXIS_OFFSET-3 "-"
*MEAS_COND_AXIS_OFFSET-4 "-"
*MEAS_COND_AXIS_OFFSET-5 "-"
*MEAS_COND_AXIS_OFFSET-6 "-"
*MEAS_COND_AXIS_OFFSET-7 "-"
*MEAS_COND_AXIS_OFFSET-8 "-"
*MEAS_COND_AXIS_OFFSET-9 "-"
*MEAS_COND_AXIS_OFFSET-10 "-"
*MEAS_COND_AXIS_OFFSET-11 "-"
*MEAS_COND_AXIS_OFFSET-12 "-"
*MEAS_COND_AXIS_POSITION-0 "65.0000000000"
*MEAS_COND_AXIS_POSITION-1 "0.0000000000"
*MEAS_COND_AXIS_POSITION-2 "3.0000000000"
*MEAS_COND_AXIS_POSITION-3 "5.0deg"
*MEAS_COND_AXIS_POSITION-4 "10.0mm"
*MEAS_COND_AXIS_POSITION-5 "1.250deg"
*MEAS_COND_AXIS_POSITION-6 "1.250deg"
*MEAS_COND_AXIS_POSITION-7 "5.0deg"
*MEAS_COND_AXIS_POSITION-8 "0.3mm"
*MEAS_COND_AXIS_POSITION-9 "None"
*MEAS_COND_AXIS_POSITION-10 "Bent"
*MEAS_COND_AXIS_POSITION-11 "671.5000000000"
*MEAS_COND_AXIS_POSITION-12 "551.2500000000"
*MEAS_COND_AXIS_UNIT-0 "deg"
*MEAS_COND_AXIS_UNIT-1 ""
*MEAS_COND_AXIS_UNIT-2 ""
*MEAS_COND_AXIS_UNIT-3 ""
*MEAS_COND_AXIS_UNIT-4 ""
*MEAS_COND_AXIS_UNIT-5 ""
*MEAS_COND_AXIS_UNIT-6 ""
*MEAS_COND_AXIS_UNIT-7 ""
*MEAS_COND_AXIS_UNIT-8 ""
*MEAS_COND_AXIS_UNIT-9 ""
*MEAS_COND_AXIS_UNIT-10 ""
*MEAS_COND_AXIS_UNIT-11 "V"
*MEAS_COND_AXIS_UNIT-12 "mV"
*MEAS_COND_CORRECTION_SLIT_COUNTERMONO "None"
*MEAS_COND_CORRECTION_SLIT_DS "1.250deg"
*MEAS_COND_CORRECTION_SLIT_FILTER "None"
*MEAS_COND_CORRECTION_SLIT_IHS "10.0mm"
*MEAS_COND_CORRECTION_SLIT_RS "0.3mm"
*MEAS_COND_CORRECTION_SLIT_SOLLER_INC "5.0deg"
*MEAS_COND_CORRECTION_SLIT_SOLLER_REC "5.0deg"
*MEAS_COND_CORRECTION_SLIT_SS "1.250deg"
*MEAS_COND_COUNTER_CNTLOSS_CORR "0.0000000000"
*MEAS_COND_COUNTER_PHABASE "551.2500000000"
*MEAS_COND_COUNTER_PHAWINDOW "926.2500000000"
*MEAS_COND_COUNTER_PHA_UNIT "mV"
*MEAS_COND_COUNTER_TAUDIFF "0.2500000000"
*MEAS_COND_COUNTER_TAUINT "0.7500000000"
*MEAS_COND_IRRADIATION_MODE "OFF"
*MEAS_COND_IRRADIATION_WIDTH ""
*MEAS_COND_OPT_ATTR " "
*MEAS_COND_OPT_NAME ""
*MEAS_COND_UNSYMMETRIC_MODE "OFF"
*MEAS_COND_XG_CURRENT "15.0000000000"
*MEAS_COND_XG_VOLTAGE "40.0000000000"
*MEAS_COND_XG_WAVE_TYPE "Ka"
*MEAS_DATA_COUNT "3001.0000000000"
*MEAS_SCAN_AXIS_X "Theta/2-Theta"
*MEAS_SCAN_AXIS_X_INTERNAL "TwoThetaTheta"
*MEAS_SCAN_END_TIME "06/17/25 22:58:33"
*MEAS_SCAN_MODE "STEP"
*MEAS_SCAN_MONITOR "0"
*MEAS_SCAN_RESOLUTION_X "0.0025"
*MEAS_SCAN_SPEED "2.00"
*MEAS_SCAN_SPEED_UNIT "sec."
*MEAS_SCAN_SPEED_USER "2.00"
*MEAS_SCAN_START "5.0000000000"
*MEAS_SCAN_START_TIME "06/17/25 21:13:17"
*MEAS_SCAN_STEP "0.0200000000"
*MEAS_SCAN_STOP "65.0000000000"
*MEAS_SCAN_UNIT_X "deg"
*MEAS_SCAN_UNIT_Y "counts"
*SLIT_SYSTEM "0"
*RAS_HEADER_END
*RAS_INT_START
5.0000 1016.0000 1.0000
5.0200 997.0000 1.0000
5.0400 900.0000 1.0000
5.0600 948.0000 1.0000
5.0800 867.0000 1.0000
5.1000 835.0000 1.0000
5.1200 850.0000 1.0000
5.1400 854.0000 1.0000
5.1600 912.0000 1.0000
5.1800 908.0000 1.0000
5.2000 880.0000 1.0000
5.2200 855.0000 1.0000
5.2400 870.0000 1.0000
5.2600 813.0000 1.0000
5.2800 888.0000 1.0000
5.3000 832.0000 1.0000
5.3200 804.0000 1.0000
5.3400 825.0000 1.0000
5.3600 836.0000 1.0000
5.3800 833.0000 1.0000
5.4000 782.0000 1.0000
5.4200 865.0000 1.0000
5.4400 783.0000 1.0000
5.4600 821.0000 1.0000
5.4800 767.0000 1.0000
5.5000 910.0000 1.0000
5.5200 819.0000 1.0000
5.5400 802.0000 1.0000
5.5600 863.0000 1.0000
5.5800 840.0000 1.0000
5.6000 784.0000 1.0000
5.6200 728.0000 1.0000
5.6400 824.0000 1.0000
5.6600 782.0000 1.0000
5.6800 743.0000 1.0000
5.7000 783.0000 1.0000
5.7200 800.0000 1.0000
5.7400 742.0000 1.0000
5.7600 749.0000 1.0000
5.7800 827.0000 1.0000
5.8000 799.0000 1.0000
5.8200 783.0000 1.0000
5.8400 755.0000 1.0000
5.8600 768.0000 1.0000
5.8800 746.0000 1.0000
5.9000 791.0000 1.0000
5.9200 782.0000 1.0000
5.9400 780.0000 1.0000
5.9600 696.0000 1.0000
5.9800 756.0000 1.0000
6.0000 837.0000 1.0000
6.0200 872.0000 1.0000
6.0400 897.0000 1.0000
6.0600 795.0000 1.0000
6.0800 756.0000 1.0000
6.1000 821.0000 1.0000
6.1200 778.0000 1.0000
6.1400 709.0000 1.0000
6.1600 719.0000 1.0000
6.1800 689.0000 1.0000
6.2000 645.0000 1.0000
6.2200 646.0000 1.0000
6.2400 629.0000 1.0000
6.2600 588.0000 1.0000
6.2800 619.0000 1.0000
6.3000 628.0000 1.0000
6.3200 694.0000 1.0000
6.3400 689.0000 1.0000
6.3600 625.0000 1.0000
6.3800 615.0000 1.0000
6.4000 665.0000 1.0000
6.4200 663.0000 1.0000
6.4400 615.0000 1.0000
6.4600 578.0000 1.0000
6.4800 579.0000 1.0000
6.5000 609.0000 1.0000
6.5200 559.0000 1.0000
6.5400 560.0000 1.0000
6.5600 612.0000 1.0000
6.5800 605.0000 1.0000
6.6000 549.0000 1.0000
6.6200 525.0000 1.0000
6.6400 574.0000 1.0000
6.6600 589.0000 1.0000
6.6800 584.0000 1.0000
6.7000 560.0000 1.0000
6.7200 564.0000 1.0000
6.7400 557.0000 1.0000
6.7600 528.0000 1.0000
6.7800 521.0000 1.0000
6.8000 527.0000 1.0000
6.8200 559.0000 1.0000
6.8400 568.0000 1.0000
6.8600 583.0000 1.0000
6.8800 586.0000 1.0000
6.9000 522.0000 1.0000
6.9200 516.0000 1.0000
6.9400 519.0000 1.0000
6.9600 480.0000 1.0000
6.9800 490.0000 1.0000
7.0000 531.0000 1.0000
7.0200 522.0000 1.0000
7.0400 501.0000 1.0000
7.0600 524.0000 1.0000
7.0800 554.0000 1.0000
7.1000 574.0000 1.0000
7.1200 556.0000 1.0000
7.1400 515.0000 1.0000
7.1600 511.0000 1.0000
7.1800 497.0000 1.0000
7.2000 483.0000 1.0000
7.2200 530.0000 1.0000
7.2400 529.0000 1.0000
7.2600 512.0000 1.0000
7.2800 493.0000 1.0000
7.3000 507.0000 1.0000
7.3200 549.0000 1.0000
7.3400 524.0000 1.0000
7.3600 520.0000 1.0000
7.3800 509.0000 1.0000
7.4000 507.0000 1.0000
7.4200 531.0000 1.0000
7.4400 492.0000 1.0000
7.4600 476.0000 1.0000
7.4800 519.0000 1.0000
7.5000 506.0000 1.0000
7.5200 484.0000 1.0000
7.5400 488.0000 1.0000
7.5600 482.0000 1.0000
7.5800 498.0000 1.0000
7.6000 499.0000 1.0000
7.6200 471.0000 1.0000
7.6400 462.0000 1.0000
7.6600 461.0000 1.0000
7.6800 506.0000 1.0000
7.7000 546.0000 1.0000
7.7200 518.0000 1.0000
7.7400 475.0000 1.0000
7.7600 510.0000 1.0000
7.7800 487.0000 1.0000
7.8000 474.0000 1.0000
7.8200 473.0000 1.0000
7.8400 498.0000 1.0000
7.8600 461.0000 1.0000
7.8800 455.0000 1.0000
7.9000 480.0000 1.0000
7.9200 510.0000 1.0000
7.9400 527.0000 1.0000
7.9600 514.0000 1.0000
7.9800 480.0000 1.0000
8.0000 469.0000 1.0000
8.0200 508.0000 1.0000
8.0400 551.0000 1.0000
8.0600 501.0000 1.0000
8.0800 497.0000 1.0000
8.1000 526.0000 1.0000
8.1200 529.0000 1.0000
8.1400 555.0000 1.0000
8.1600 536.0000 1.0000
8.1800 557.0000 1.0000
8.2000 572.0000 1.0000
8.2200 598.0000 1.0000
8.2400 608.0000 1.0000
8.2600 636.0000 1.0000
8.2800 602.0000 1.0000
8.3000 669.0000 1.0000
8.3200 687.0000 1.0000
8.3400 699.0000 1.0000
8.3600 776.0000 1.0000
8.3800 841.0000 1.0000
8.4000 839.0000 1.0000
8.4200 872.0000 1.0000
8.4400 910.0000 1.0000
8.4600 972.0000 1.0000
8.4800 1040.0000 1.0000
8.5000 1119.0000 1.0000
8.5200 1268.0000 1.0000
8.5400 1391.0000 1.0000
8.5600 1565.0000 1.0000
8.5800 1688.0000 1.0000
8.6000 1864.0000 1.0000
8.6200 2031.0000 1.0000
8.6400 2275.0000 1.0000
8.6600 2455.0000 1.0000
8.6800 2385.0000 1.0000
8.7000 2006.0000 1.0000
8.7200 1693.0000 1.0000
8.7400 1417.0000 1.0000
8.7600 1071.0000 1.0000
8.7800 762.0000 1.0000
8.8000 552.0000 1.0000
8.8200 523.0000 1.0000
8.8400 469.0000 1.0000
8.8600 439.0000 1.0000
8.8800 383.0000 1.0000
8.9000 370.0000 1.0000
8.9200 383.0000 1.0000
8.9400 366.0000 1.0000
8.9600 413.0000 1.0000
8.9800 370.0000 1.0000
9.0000 370.0000 1.0000
9.0200 385.0000 1.0000
9.0400 339.0000 1.0000
9.0600 367.0000 1.0000
9.0800 319.0000 1.0000
9.1000 331.0000 1.0000
9.1200 322.0000 1.0000
9.1400 331.0000 1.0000
9.1600 318.0000 1.0000
9.1800 364.0000 1.0000
9.2000 311.0000 1.0000
9.2200 310.0000 1.0000
9.2400 313.0000 1.0000
9.2600 276.0000 1.0000
9.2800 304.0000 1.0000
9.3000 267.0000 1.0000
9.3200 257.0000 1.0000
9.3400 300.0000 1.0000
9.3600 270.0000 1.0000
9.3800 287.0000 1.0000
9.4000 292.0000 1.0000
9.4200 302.0000 1.0000
9.4400 265.0000 1.0000
9.4600 263.0000 1.0000
9.4800 276.0000 1.0000
9.5000 313.0000 1.0000
9.5200 294.0000 1.0000
9.5400 223.0000 1.0000
9.5600 244.0000 1.0000
9.5800 287.0000 1.0000
9.6000 253.0000 1.0000
9.6200 247.0000 1.0000
9.6400 246.0000 1.0000
9.6600 267.0000 1.0000
9.6800 270.0000 1.0000
9.7000 256.0000 1.0000
9.7200 290.0000 1.0000
9.7400 248.0000 1.0000
9.7600 262.0000 1.0000
9.7800 264.0000 1.0000
9.8000 261.0000 1.0000
9.8200 234.0000 1.0000
9.8400 251.0000 1.0000
9.8600 237.0000 1.0000
9.8800 233.0000 1.0000
9.9000 242.0000 1.0000
9.9200 243.0000 1.0000
9.9400 271.0000 1.0000
9.9600 263.0000 1.0000
9.9800 247.0000 1.0000
10.0000 262.0000 1.0000
10.0200 254.0000 1.0000
10.0400 229.0000 1.0000
10.0600 232.0000 1.0000
10.0800 252.0000 1.0000
10.1000 229.0000 1.0000
10.1200 270.0000 1.0000
10.1400 286.0000 1.0000
10.1600 259.0000 1.0000
10.1800 307.0000 1.0000
10.2000 282.0000 1.0000
10.2200 329.0000 1.0000
10.2400 294.0000 1.0000
10.2600 359.0000 1.0000
10.2800 389.0000 1.0000
10.3000 356.0000 1.0000
10.3200 377.0000 1.0000
10.3400 343.0000 1.0000
10.3600 276.0000 1.0000
10.3800 270.0000 1.0000
10.4000 241.0000 1.0000
10.4200 235.0000 1.0000
10.4400 244.0000 1.0000
10.4600 227.0000 1.0000
10.4800 255.0000 1.0000
10.5000 223.0000 1.0000
10.5200 199.0000 1.0000
10.5400 243.0000 1.0000
10.5600 212.0000 1.0000
10.5800 219.0000 1.0000
10.6000 203.0000 1.0000
10.6200 241.0000 1.0000
10.6400 213.0000 1.0000
10.6600 209.0000 1.0000
10.6800 217.0000 1.0000
10.7000 197.0000 1.0000
10.7200 213.0000 1.0000
10.7400 235.0000 1.0000
10.7600 236.0000 1.0000
10.7800 201.0000 1.0000
10.8000 244.0000 1.0000
10.8200 221.0000 1.0000
10.8400 240.0000 1.0000
10.8600 224.0000 1.0000
10.8800 217.0000 1.0000
10.9000 232.0000 1.0000
10.9200 181.0000 1.0000
10.9400 210.0000 1.0000
10.9600 208.0000 1.0000
10.9800 232.0000 1.0000
11.0000 212.0000 1.0000
11.0200 226.0000 1.0000
11.0400 193.0000 1.0000
11.0600 196.0000 1.0000
11.0800 221.0000 1.0000
11.1000 195.0000 1.0000
11.1200 227.0000 1.0000
11.1400 247.0000 1.0000
11.1600 198.0000 1.0000
11.1800 191.0000 1.0000
11.2000 192.0000 1.0000
11.2200 205.0000 1.0000
11.2400 205.0000 1.0000
11.2600 196.0000 1.0000
11.2800 206.0000 1.0000
11.3000 205.0000 1.0000
11.3200 205.0000 1.0000
11.3400 191.0000 1.0000
11.3600 186.0000 1.0000
11.3800 194.0000 1.0000
11.4000 176.0000 1.0000
11.4200 175.0000 1.0000
11.4400 195.0000 1.0000
11.4600 210.0000 1.0000
11.4800 194.0000 1.0000
11.5000 140.0000 1.0000
11.5200 156.0000 1.0000
11.5400 173.0000 1.0000
11.5600 168.0000 1.0000
11.5800 210.0000 1.0000
11.6000 174.0000 1.0000
11.6200 203.0000 1.0000
11.6400 177.0000 1.0000
11.6600 178.0000 1.0000
11.6800 184.0000 1.0000
11.7000 166.0000 1.0000
11.7200 199.0000 1.0000
11.7400 172.0000 1.0000
11.7600 188.0000 1.0000
11.7800 195.0000 1.0000
11.8000 165.0000 1.0000
11.8200 204.0000 1.0000
11.8400 180.0000 1.0000
11.8600 175.0000 1.0000
11.8800 197.0000 1.0000
11.9000 195.0000 1.0000
11.9200 173.0000 1.0000
11.9400 197.0000 1.0000
11.9600 219.0000 1.0000
11.9800 201.0000 1.0000
12.0000 179.0000 1.0000
12.0200 202.0000 1.0000
12.0400 230.0000 1.0000
12.0600 230.0000 1.0000
12.0800 207.0000 1.0000
12.1000 255.0000 1.0000
12.1200 256.0000 1.0000
12.1400 259.0000 1.0000
12.1600 269.0000 1.0000
12.1800 273.0000 1.0000
12.2000 327.0000 1.0000
12.2200 288.0000 1.0000
12.2400 345.0000 1.0000
12.2600 360.0000 1.0000
12.2800 399.0000 1.0000
12.3000 433.0000 1.0000
12.3200 442.0000 1.0000
12.3400 455.0000 1.0000
12.3600 400.0000 1.0000
12.3800 358.0000 1.0000
12.4000 308.0000 1.0000
12.4200 279.0000 1.0000
12.4400 250.0000 1.0000
12.4600 219.0000 1.0000
12.4800 189.0000 1.0000
12.5000 187.0000 1.0000
12.5200 164.0000 1.0000
12.5400 155.0000 1.0000
12.5600 165.0000 1.0000
12.5800 181.0000 1.0000
12.6000 166.0000 1.0000
12.6200 160.0000 1.0000
12.6400 172.0000 1.0000
12.6600 165.0000 1.0000
12.6800 165.0000 1.0000
12.7000 169.0000 1.0000
12.7200 178.0000 1.0000
12.7400 157.0000 1.0000
12.7600 163.0000 1.0000
12.7800 161.0000 1.0000
12.8000 146.0000 1.0000
12.8200 178.0000 1.0000
12.8400 163.0000 1.0000
12.8600 143.0000 1.0000
12.8800 141.0000 1.0000
12.9000 160.0000 1.0000
12.9200 168.0000 1.0000
12.9400 175.0000 1.0000
12.9600 159.0000 1.0000
12.9800 148.0000 1.0000
13.0000 147.0000 1.0000
13.0200 152.0000 1.0000
13.0400 152.0000 1.0000
13.0600 153.0000 1.0000
13.0800 172.0000 1.0000
13.1000 184.0000 1.0000
13.1200 175.0000 1.0000
13.1400 169.0000 1.0000
13.1600 176.0000 1.0000
13.1800 177.0000 1.0000
13.2000 176.0000 1.0000
13.2200 194.0000 1.0000
13.2400 154.0000 1.0000
13.2600 164.0000 1.0000
13.2800 169.0000 1.0000
13.3000 181.0000 1.0000
13.3200 195.0000 1.0000
13.3400 202.0000 1.0000
13.3600 206.0000 1.0000
13.3800 221.0000 1.0000
13.4000 250.0000 1.0000
13.4200 266.0000 1.0000
13.4400 255.0000 1.0000
13.4600 268.0000 1.0000
13.4800 290.0000 1.0000
13.5000 283.0000 1.0000
13.5200 248.0000 1.0000
13.5400 260.0000 1.0000
13.5600 290.0000 1.0000
13.5800 311.0000 1.0000
13.6000 305.0000 1.0000
13.6200 332.0000 1.0000
13.6400 350.0000 1.0000
13.6600 374.0000 1.0000
13.6800 382.0000 1.0000
13.7000 373.0000 1.0000
13.7200 303.0000 1.0000
13.7400 305.0000 1.0000
13.7600 280.0000 1.0000
13.7800 246.0000 1.0000
13.8000 231.0000 1.0000
13.8200 202.0000 1.0000
13.8400 176.0000 1.0000
13.8600 161.0000 1.0000
13.8800 155.0000 1.0000
13.9000 167.0000 1.0000
13.9200 144.0000 1.0000
13.9400 134.0000 1.0000
13.9600 138.0000 1.0000
13.9800 135.0000 1.0000
14.0000 131.0000 1.0000
14.0200 135.0000 1.0000
14.0400 135.0000 1.0000
14.0600 134.0000 1.0000
14.0800 137.0000 1.0000
14.1000 126.0000 1.0000
14.1200 123.0000 1.0000
14.1400 128.0000 1.0000
14.1600 124.0000 1.0000
14.1800 117.0000 1.0000
14.2000 134.0000 1.0000
14.2200 133.0000 1.0000
14.2400 120.0000 1.0000
14.2600 119.0000 1.0000
14.2800 117.0000 1.0000
14.3000 124.0000 1.0000
14.3200 125.0000 1.0000
14.3400 123.0000 1.0000
14.3600 124.0000 1.0000
14.3800 130.0000 1.0000
14.4000 142.0000 1.0000
14.4200 148.0000 1.0000
14.4400 132.0000 1.0000
14.4600 128.0000 1.0000
14.4800 145.0000 1.0000
14.5000 137.0000 1.0000
14.5200 130.0000 1.0000
14.5400 134.0000 1.0000
14.5600 140.0000 1.0000
14.5800 140.0000 1.0000
14.6000 149.0000 1.0000
14.6200 150.0000 1.0000
14.6400 144.0000 1.0000
14.6600 147.0000 1.0000
14.6800 157.0000 1.0000
14.7000 171.0000 1.0000
14.7200 191.0000 1.0000
14.7400 202.0000 1.0000
14.7600 186.0000 1.0000
14.7800 186.0000 1.0000
14.8000 204.0000 1.0000
14.8200 208.0000 1.0000
14.8400 192.0000 1.0000
14.8600 185.0000 1.0000
14.8800 199.0000 1.0000
14.9000 195.0000 1.0000
14.9200 179.0000 1.0000
14.9400 165.0000 1.0000
14.9600 154.0000 1.0000
14.9800 145.0000 1.0000
15.0000 131.0000 1.0000
15.0200 131.0000 1.0000
15.0400 136.0000 1.0000
15.0600 131.0000 1.0000
15.0800 128.0000 1.0000
15.1000 123.0000 1.0000
15.1200 124.0000 1.0000
15.1400 129.0000 1.0000
15.1600 131.0000 1.0000
15.1800 134.0000 1.0000
15.2000 132.0000 1.0000
15.2200 118.0000 1.0000
15.2400 107.0000 1.0000
15.2600 113.0000 1.0000
15.2800 129.0000 1.0000
15.3000 126.0000 1.0000
15.3200 110.0000 1.0000
15.3400 117.0000 1.0000
15.3600 127.0000 1.0000
15.3800 119.0000 1.0000
15.4000 119.0000 1.0000
15.4200 121.0000 1.0000
15.4400 121.0000 1.0000
15.4600 134.0000 1.0000
15.4800 135.0000 1.0000
15.5000 137.0000 1.0000
15.5200 153.0000 1.0000
15.5400 146.0000 1.0000
15.5600 122.0000 1.0000
15.5800 131.0000 1.0000
15.6000 151.0000 1.0000
15.6200 146.0000 1.0000
15.6400 146.0000 1.0000
15.6600 158.0000 1.0000
15.6800 154.0000 1.0000
15.7000 137.0000 1.0000
15.7200 126.0000 1.0000
15.7400 128.0000 1.0000
15.7600 141.0000 1.0000
15.7800 135.0000 1.0000
15.8000 120.0000 1.0000
15.8200 121.0000 1.0000
15.8400 123.0000 1.0000
15.8600 119.0000 1.0000
15.8800 109.0000 1.0000
15.9000 101.0000 1.0000
15.9200 124.0000 1.0000
15.9400 123.0000 1.0000
15.9600 115.0000 1.0000
15.9800 122.0000 1.0000
16.0000 122.0000 1.0000
16.0200 129.0000 1.0000
16.0400 124.0000 1.0000
16.0600 133.0000 1.0000
16.0800 128.0000 1.0000
16.1000 116.0000 1.0000
16.1200 120.0000 1.0000
16.1400 125.0000 1.0000
16.1600 112.0000 1.0000
16.1800 117.0000 1.0000
16.2000 113.0000 1.0000
16.2200 106.0000 1.0000
16.2400 126.0000 1.0000
16.2600 127.0000 1.0000
16.2800 109.0000 1.0000
16.3000 103.0000 1.0000
16.3200 115.0000 1.0000
16.3400 119.0000 1.0000
16.3600 115.0000 1.0000
16.3800 97.0000 1.0000
16.4000 101.0000 1.0000
16.4200 113.0000 1.0000
16.4400 112.0000 1.0000
16.4600 107.0000 1.0000
16.4800 125.0000 1.0000
16.5000 124.0000 1.0000
16.5200 130.0000 1.0000
16.5400 117.0000 1.0000
16.5600 109.0000 1.0000
16.5800 107.0000 1.0000
16.6000 113.0000 1.0000
16.6200 104.0000 1.0000
16.6400 107.0000 1.0000
16.6600 119.0000 1.0000
16.6800 120.0000 1.0000
16.7000 119.0000 1.0000
16.7200 115.0000 1.0000
16.7400 126.0000 1.0000
16.7600 118.0000 1.0000
16.7800 115.0000 1.0000
16.8000 112.0000 1.0000
16.8200 113.0000 1.0000
16.8400 106.0000 1.0000
16.8600 100.0000 1.0000
16.8800 117.0000 1.0000
16.9000 112.0000 1.0000
16.9200 107.0000 1.0000
16.9400 117.0000 1.0000
16.9600 109.0000 1.0000
16.9800 108.0000 1.0000
17.0000 111.0000 1.0000
17.0200 120.0000 1.0000
17.0400 121.0000 1.0000
17.0600 124.0000 1.0000
17.0800 126.0000 1.0000
17.1000 123.0000 1.0000
17.1200 112.0000 1.0000
17.1400 113.0000 1.0000
17.1600 117.0000 1.0000
17.1800 135.0000 1.0000
17.2000 132.0000 1.0000
17.2200 124.0000 1.0000
17.2400 145.0000 1.0000
17.2600 127.0000 1.0000
17.2800 115.0000 1.0000
17.3000 119.0000 1.0000
17.3200 131.0000 1.0000
17.3400 134.0000 1.0000
17.3600 144.0000 1.0000
17.3800 165.0000 1.0000
17.4000 163.0000 1.0000
17.4200 176.0000 1.0000
17.4400 181.0000 1.0000
17.4600 191.0000 1.0000
17.4800 205.0000 1.0000
17.5000 224.0000 1.0000
17.5200 266.0000 1.0000
17.5400 274.0000 1.0000
17.5600 331.0000 1.0000
17.5800 348.0000 1.0000
17.6000 349.0000 1.0000
17.6200 344.0000 1.0000
17.6400 305.0000 1.0000
17.6600 245.0000 1.0000
17.6800 214.0000 1.0000
17.7000 177.0000 1.0000
17.7200 150.0000 1.0000
17.7400 135.0000 1.0000
17.7600 153.0000 1.0000
17.7800 147.0000 1.0000
17.8000 119.0000 1.0000
17.8200 131.0000 1.0000
17.8400 131.0000 1.0000
17.8600 133.0000 1.0000
17.8800 134.0000 1.0000
17.9000 115.0000 1.0000
17.9200 106.0000 1.0000
17.9400 117.0000 1.0000
17.9600 115.0000 1.0000
17.9800 117.0000 1.0000
18.0000 118.0000 1.0000
18.0200 131.0000 1.0000
18.0400 139.0000 1.0000
18.0600 119.0000 1.0000
18.0800 130.0000 1.0000
18.1000 123.0000 1.0000
18.1200 111.0000 1.0000
18.1400 110.0000 1.0000
18.1600 139.0000 1.0000
18.1800 128.0000 1.0000
18.2000 124.0000 1.0000
18.2200 126.0000 1.0000
18.2400 118.0000 1.0000
18.2600 139.0000 1.0000
18.2800 141.0000 1.0000
18.3000 134.0000 1.0000
18.3200 96.0000 1.0000
18.3400 132.0000 1.0000
18.3600 132.0000 1.0000
18.3800 119.0000 1.0000
18.4000 144.0000 1.0000
18.4200 122.0000 1.0000
18.4400 119.0000 1.0000
18.4600 126.0000 1.0000
18.4800 130.0000 1.0000
18.5000 135.0000 1.0000
18.5200 132.0000 1.0000
18.5400 162.0000 1.0000
18.5600 152.0000 1.0000
18.5800 159.0000 1.0000
18.6000 143.0000 1.0000
18.6200 158.0000 1.0000
18.6400 168.0000 1.0000
18.6600 158.0000 1.0000
18.6800 185.0000 1.0000
18.7000 150.0000 1.0000
18.7200 156.0000 1.0000
18.7400 143.0000 1.0000
18.7600 150.0000 1.0000
18.7800 134.0000 1.0000
18.8000 136.0000 1.0000
18.8200 151.0000 1.0000
18.8400 140.0000 1.0000
18.8600 146.0000 1.0000
18.8800 127.0000 1.0000
18.9000 140.0000 1.0000
18.9200 149.0000 1.0000
18.9400 147.0000 1.0000
18.9600 143.0000 1.0000
18.9800 139.0000 1.0000
19.0000 134.0000 1.0000
19.0200 152.0000 1.0000
19.0400 162.0000 1.0000
19.0600 152.0000 1.0000
19.0800 164.0000 1.0000
19.1000 134.0000 1.0000
19.1200 170.0000 1.0000
19.1400 169.0000 1.0000
19.1600 187.0000 1.0000
19.1800 162.0000 1.0000
19.2000 164.0000 1.0000
19.2200 174.0000 1.0000
19.2400 163.0000 1.0000
19.2600 180.0000 1.0000
19.2800 163.0000 1.0000
19.3000 183.0000 1.0000
19.3200 178.0000 1.0000
19.3400 206.0000 1.0000
19.3600 208.0000 1.0000
19.3800 215.0000 1.0000
19.4000 218.0000 1.0000
19.4200 275.0000 1.0000
19.4400 272.0000 1.0000
19.4600 277.0000 1.0000
19.4800 303.0000 1.0000
19.5000 329.0000 1.0000
19.5200 350.0000 1.0000
19.5400 380.0000 1.0000
19.5600 410.0000 1.0000
19.5800 392.0000 1.0000
19.6000 377.0000 1.0000
19.6200 372.0000 1.0000
19.6400 397.0000 1.0000
19.6600 407.0000 1.0000
19.6800 363.0000 1.0000
19.7000 314.0000 1.0000
19.7200 283.0000 1.0000
19.7400 276.0000 1.0000
19.7600 269.0000 1.0000
19.7800 242.0000 1.0000
19.8000 206.0000 1.0000
19.8200 193.0000 1.0000
19.8400 205.0000 1.0000
19.8600 190.0000 1.0000
19.8800 177.0000 1.0000
19.9000 182.0000 1.0000
19.9200 181.0000 1.0000
19.9400 187.0000 1.0000
19.9600 158.0000 1.0000
19.9800 181.0000 1.0000
20.0000 183.0000 1.0000
20.0200 165.0000 1.0000
20.0400 180.0000 1.0000
20.0600 162.0000 1.0000
20.0800 178.0000 1.0000
20.1000 164.0000 1.0000
20.1200 182.0000 1.0000
20.1400 198.0000 1.0000
20.1600 202.0000 1.0000
20.1800 175.0000 1.0000
20.2000 203.0000 1.0000
20.2200 186.0000 1.0000
20.2400 207.0000 1.0000
20.2600 218.0000 1.0000
20.2800 245.0000 1.0000
20.3000 256.0000 1.0000
20.3200 271.0000 1.0000
20.3400 263.0000 1.0000
20.3600 298.0000 1.0000
20.3800 325.0000 1.0000
20.4000 318.0000 1.0000
20.4200 390.0000 1.0000
20.4400 422.0000 1.0000
20.4600 418.0000 1.0000
20.4800 472.0000 1.0000
20.5000 528.0000 1.0000
20.5200 596.0000 1.0000
20.5400 744.0000 1.0000
20.5600 824.0000 1.0000
20.5800 1051.0000 1.0000
20.6000 1405.0000 1.0000
20.6200 1662.0000 1.0000
20.6400 2162.0000 1.0000
20.6600 2423.0000 1.0000
20.6800 2654.0000 1.0000
20.7000 2772.0000 1.0000
20.7200 2453.0000 1.0000
20.7400 2190.0000 1.0000
20.7600 1705.0000 1.0000
20.7800 1220.0000 1.0000
20.8000 975.0000 1.0000
20.8200 779.0000 1.0000
20.8400 627.0000 1.0000
20.8600 500.0000 1.0000
20.8800 484.0000 1.0000
20.9000 384.0000 1.0000
20.9200 351.0000 1.0000
20.9400 303.0000 1.0000
20.9600 306.0000 1.0000
20.9800 255.0000 1.0000
21.0000 269.0000 1.0000
21.0200 208.0000 1.0000
21.0400 252.0000 1.0000
21.0600 217.0000 1.0000
21.0800 240.0000 1.0000
21.1000 215.0000 1.0000
21.1200 221.0000 1.0000
21.1400 188.0000 1.0000
21.1600 192.0000 1.0000
21.1800 200.0000 1.0000
21.2000 190.0000 1.0000
21.2200 196.0000 1.0000
21.2400 222.0000 1.0000
21.2600 198.0000 1.0000
21.2800 188.0000 1.0000
21.3000 207.0000 1.0000
21.3200 226.0000 1.0000
21.3400 226.0000 1.0000
21.3600 206.0000 1.0000
21.3800 206.0000 1.0000
21.4000 229.0000 1.0000
21.4200 253.0000 1.0000
21.4400 205.0000 1.0000
21.4600 212.0000 1.0000
21.4800 234.0000 1.0000
21.5000 193.0000 1.0000
21.5200 210.0000 1.0000
21.5400 222.0000 1.0000
21.5600 205.0000 1.0000
21.5800 229.0000 1.0000
21.6000 246.0000 1.0000
21.6200 230.0000 1.0000
21.6400 260.0000 1.0000
21.6600 306.0000 1.0000
21.6800 308.0000 1.0000
21.7000 355.0000 1.0000
21.7200 386.0000 1.0000
21.7400 454.0000 1.0000
21.7600 498.0000 1.0000
21.7800 551.0000 1.0000
21.8000 688.0000 1.0000
21.8200 771.0000 1.0000
21.8400 810.0000 1.0000
21.8600 818.0000 1.0000
21.8800 852.0000 1.0000
21.9000 761.0000 1.0000
21.9200 639.0000 1.0000
21.9400 558.0000 1.0000
21.9600 460.0000 1.0000
21.9800 394.0000 1.0000
22.0000 291.0000 1.0000
22.0200 264.0000 1.0000
22.0400 236.0000 1.0000
22.0600 239.0000 1.0000
22.0800 228.0000 1.0000
22.1000 209.0000 1.0000
22.1200 231.0000 1.0000
22.1400 231.0000 1.0000
22.1600 238.0000 1.0000
22.1800 248.0000 1.0000
22.2000 244.0000 1.0000
22.2200 262.0000 1.0000
22.2400 246.0000 1.0000
22.2600 243.0000 1.0000
22.2800 254.0000 1.0000
22.3000 238.0000 1.0000
22.3200 238.0000 1.0000
22.3400 259.0000 1.0000
22.3600 238.0000 1.0000
22.3800 230.0000 1.0000
22.4000 232.0000 1.0000
22.4200 213.0000 1.0000
22.4400 219.0000 1.0000
22.4600 196.0000 1.0000
22.4800 195.0000 1.0000
22.5000 189.0000 1.0000
22.5200 202.0000 1.0000
22.5400 213.0000 1.0000
22.5600 238.0000 1.0000
22.5800 241.0000 1.0000
22.6000 252.0000 1.0000
22.6200 268.0000 1.0000
22.6400 262.0000 1.0000
22.6600 289.0000 1.0000
22.6800 320.0000 1.0000
22.7000 303.0000 1.0000
22.7200 292.0000 1.0000
22.7400 302.0000 1.0000
22.7600 328.0000 1.0000
22.7800 333.0000 1.0000
22.8000 315.0000 1.0000
22.8200 331.0000 1.0000
22.8400 331.0000 1.0000
22.8600 380.0000 1.0000
22.8800 354.0000 1.0000
22.9000 314.0000 1.0000
22.9200 341.0000 1.0000
22.9400 310.0000 1.0000
22.9600 274.0000 1.0000
22.9800 241.0000 1.0000
23.0000 269.0000 1.0000
23.0200 248.0000 1.0000
23.0400 249.0000 1.0000
23.0600 261.0000 1.0000
23.0800 266.0000 1.0000
23.1000 284.0000 1.0000
23.1200 316.0000 1.0000
23.1400 302.0000 1.0000
23.1600 343.0000 1.0000
23.1800 344.0000 1.0000
23.2000 364.0000 1.0000
23.2200 414.0000 1.0000
23.2400 461.0000 1.0000
23.2600 488.0000 1.0000
23.2800 581.0000 1.0000
23.3000 605.0000 1.0000
23.3200 685.0000 1.0000
23.3400 738.0000 1.0000
23.3600 765.0000 1.0000
23.3800 821.0000 1.0000
23.4000 797.0000 1.0000
23.4200 786.0000 1.0000
23.4400 738.0000 1.0000
23.4600 694.0000 1.0000
23.4800 625.0000 1.0000
23.5000 551.0000 1.0000
23.5200 460.0000 1.0000
23.5400 434.0000 1.0000
23.5600 428.0000 1.0000
23.5800 401.0000 1.0000
23.6000 355.0000 1.0000
23.6200 382.0000 1.0000
23.6400 401.0000 1.0000
23.6600 378.0000 1.0000
23.6800 387.0000 1.0000
23.7000 359.0000 1.0000
23.7200 343.0000 1.0000
23.7400 336.0000 1.0000
23.7600 313.0000 1.0000
23.7800 328.0000 1.0000
23.8000 319.0000 1.0000
23.8200 314.0000 1.0000
23.8400 343.0000 1.0000
23.8600 323.0000 1.0000
23.8800 312.0000 1.0000
23.9000 359.0000 1.0000
23.9200 387.0000 1.0000
23.9400 401.0000 1.0000
23.9600 436.0000 1.0000
23.9800 483.0000 1.0000
24.0000 533.0000 1.0000
24.0200 561.0000 1.0000
24.0400 576.0000 1.0000
24.0600 622.0000 1.0000
24.0800 630.0000 1.0000
24.1000 626.0000 1.0000
24.1200 637.0000 1.0000
24.1400 655.0000 1.0000
24.1600 582.0000 1.0000
24.1800 517.0000 1.0000
24.2000 463.0000 1.0000
24.2200 433.0000 1.0000
24.2400 337.0000 1.0000
24.2600 325.0000 1.0000
24.2800 311.0000 1.0000
24.3000 288.0000 1.0000
24.3200 265.0000 1.0000
24.3400 259.0000 1.0000
24.3600 258.0000 1.0000
24.3800 249.0000 1.0000
24.4000 259.0000 1.0000
24.4200 248.0000 1.0000
24.4400 240.0000 1.0000
24.4600 236.0000 1.0000
24.4800 246.0000 1.0000
24.5000 222.0000 1.0000
24.5200 207.0000 1.0000
24.5400 217.0000 1.0000
24.5600 223.0000 1.0000
24.5800 211.0000 1.0000
24.6000 198.0000 1.0000
24.6200 186.0000 1.0000
24.6400 209.0000 1.0000
24.6600 211.0000 1.0000
24.6800 206.0000 1.0000
24.7000 205.0000 1.0000
24.7200 195.0000 1.0000
24.7400 212.0000 1.0000
24.7600 219.0000 1.0000
24.7800 220.0000 1.0000
24.8000 204.0000 1.0000
24.8200 223.0000 1.0000
24.8400 222.0000 1.0000
24.8600 245.0000 1.0000
24.8800 251.0000 1.0000
24.9000 261.0000 1.0000
24.9200 256.0000 1.0000
24.9400 272.0000 1.0000
24.9600 302.0000 1.0000
24.9800 342.0000 1.0000
25.0000 352.0000 1.0000
25.0200 346.0000 1.0000
25.0400 349.0000 1.0000
25.0600 388.0000 1.0000
25.0800 399.0000 1.0000
25.1000 400.0000 1.0000
25.1200 399.0000 1.0000
25.1400 427.0000 1.0000
25.1600 470.0000 1.0000
25.1800 534.0000 1.0000
25.2000 560.0000 1.0000
25.2200 620.0000 1.0000
25.2400 673.0000 1.0000
25.2600 739.0000 1.0000
25.2800 815.0000 1.0000
25.3000 948.0000 1.0000
25.3200 1121.0000 1.0000
25.3400 1273.0000 1.0000
25.3600 1454.0000 1.0000
25.3800 1625.0000 1.0000
25.4000 1653.0000 1.0000
25.4200 1670.0000 1.0000
25.4400 1618.0000 1.0000
25.4600 1431.0000 1.0000
25.4800 1188.0000 1.0000
25.5000 962.0000 1.0000
25.5200 798.0000 1.0000
25.5400 615.0000 1.0000
25.5600 516.0000 1.0000
25.5800 458.0000 1.0000
25.6000 380.0000 1.0000
25.6200 335.0000 1.0000
25.6400 295.0000 1.0000
25.6600 298.0000 1.0000
25.6800 282.0000 1.0000
25.7000 271.0000 1.0000
25.7200 292.0000 1.0000
25.7400 293.0000 1.0000
25.7600 306.0000 1.0000
25.7800 285.0000 1.0000
25.8000 274.0000 1.0000
25.8200 294.0000 1.0000
25.8400 301.0000 1.0000
25.8600 292.0000 1.0000
25.8800 317.0000 1.0000
25.9000 344.0000 1.0000
25.9200 345.0000 1.0000
25.9400 359.0000 1.0000
25.9600 384.0000 1.0000
25.9800 423.0000 1.0000
26.0000 446.0000 1.0000
26.0200 492.0000 1.0000
26.0400 524.0000 1.0000
26.0600 558.0000 1.0000
26.0800 602.0000 1.0000
26.1000 670.0000 1.0000
26.1200 753.0000 1.0000
26.1400 788.0000 1.0000
26.1600 906.0000 1.0000
26.1800 1013.0000 1.0000
26.2000 1140.0000 1.0000
26.2200 1316.0000 1.0000
26.2400 1528.0000 1.0000
26.2600 1703.0000 1.0000
26.2800 1949.0000 1.0000
26.3000 2338.0000 1.0000
26.3200 2867.0000 1.0000
26.3400 3536.0000 1.0000
26.3600 4469.0000 1.0000
26.3800 5733.0000 1.0000
26.4000 7362.0000 1.0000
26.4200 9264.0000 1.0000
26.4400 10943.0000 1.0000
26.4600 11680.0000 1.0000
26.4800 11678.0000 1.0000
26.5000 11024.0000 1.0000
26.5200 9591.0000 1.0000
26.5400 7803.0000 1.0000
26.5600 5979.0000 1.0000
26.5800 4488.0000 1.0000
26.6000 3378.0000 1.0000
26.6200 2560.0000 1.0000
26.6400 2063.0000 1.0000
26.6600 1796.0000 1.0000
26.6800 1600.0000 1.0000
26.7000 1447.0000 1.0000
26.7200 1272.0000 1.0000
26.7400 1136.0000 1.0000
26.7600 1044.0000 1.0000
26.7800 978.0000 1.0000
26.8000 909.0000 1.0000
26.8200 874.0000 1.0000
26.8400 859.0000 1.0000
26.8600 839.0000 1.0000
26.8800 880.0000 1.0000
26.9000 863.0000 1.0000
26.9200 756.0000 1.0000
26.9400 705.0000 1.0000
26.9600 647.0000 1.0000
26.9800 573.0000 1.0000
27.0000 544.0000 1.0000
27.0200 517.0000 1.0000
27.0400 481.0000 1.0000
27.0600 436.0000 1.0000
27.0800 443.0000 1.0000
27.1000 452.0000 1.0000
27.1200 444.0000 1.0000
27.1400 449.0000 1.0000
27.1600 483.0000 1.0000
27.1800 516.0000 1.0000
27.2000 587.0000 1.0000
27.2200 666.0000 1.0000
27.2400 732.0000 1.0000
27.2600 850.0000 1.0000
27.2800 947.0000 1.0000
27.3000 1000.0000 1.0000
27.3200 1053.0000 1.0000
27.3400 1097.0000 1.0000
27.3600 1062.0000 1.0000
27.3800 1009.0000 1.0000
27.4000 978.0000 1.0000
27.4200 950.0000 1.0000
27.4400 906.0000 1.0000
27.4600 842.0000 1.0000
27.4800 832.0000 1.0000
27.5000 929.0000 1.0000
27.5200 1011.0000 1.0000
27.5400 1068.0000 1.0000
27.5600 1194.0000 1.0000
27.5800 1257.0000 1.0000
27.6000 1298.0000 1.0000
27.6200 1373.0000 1.0000
27.6400 1457.0000 1.0000
27.6600 1540.0000 1.0000
27.6800 1667.0000 1.0000
27.7000 1822.0000 1.0000
27.7200 1915.0000 1.0000
27.7400 2028.0000 1.0000
27.7600 2111.0000 1.0000
27.7800 2115.0000 1.0000
27.8000 1981.0000 1.0000
27.8200 1765.0000 1.0000
27.8400 1590.0000 1.0000
27.8600 1376.0000 1.0000
27.8800 1165.0000 1.0000
27.9000 1001.0000 1.0000
27.9200 882.0000 1.0000
27.9400 774.0000 1.0000
27.9600 691.0000 1.0000
27.9800 656.0000 1.0000
28.0000 657.0000 1.0000
28.0200 660.0000 1.0000
28.0400 596.0000 1.0000
28.0600 558.0000 1.0000
28.0800 581.0000 1.0000
28.1000 592.0000 1.0000
28.1200 544.0000 1.0000
28.1400 519.0000 1.0000
28.1600 491.0000 1.0000
28.1800 456.0000 1.0000
28.2000 427.0000 1.0000
28.2200 405.0000 1.0000
28.2400 383.0000 1.0000
28.2600 343.0000 1.0000
28.2800 301.0000 1.0000
28.3000 288.0000 1.0000
28.3200 279.0000 1.0000
28.3400 248.0000 1.0000
28.3600 230.0000 1.0000
28.3800 220.0000 1.0000
28.4000 210.0000 1.0000
28.4200 209.0000 1.0000
28.4400 209.0000 1.0000
28.4600 197.0000 1.0000
28.4800 182.0000 1.0000
28.5000 177.0000 1.0000
28.5200 186.0000 1.0000
28.5400 183.0000 1.0000
28.5600 183.0000 1.0000
28.5800 180.0000 1.0000
28.6000 180.0000 1.0000
28.6200 175.0000 1.0000
28.6400 167.0000 1.0000
28.6600 154.0000 1.0000
28.6800 154.0000 1.0000
28.7000 148.0000 1.0000
28.7200 147.0000 1.0000
28.7400 149.0000 1.0000
28.7600 144.0000 1.0000
28.7800 148.0000 1.0000
28.8000 142.0000 1.0000
28.8200 137.0000 1.0000
28.8400 144.0000 1.0000
28.8600 143.0000 1.0000
28.8800 161.0000 1.0000
28.9000 163.0000 1.0000
28.9200 165.0000 1.0000
28.9400 162.0000 1.0000
28.9600 157.0000 1.0000
28.9800 164.0000 1.0000
29.0000 157.0000 1.0000
29.0200 155.0000 1.0000
29.0400 148.0000 1.0000
29.0600 143.0000 1.0000
29.0800 135.0000 1.0000
29.1000 147.0000 1.0000
29.1200 166.0000 1.0000
29.1400 178.0000 1.0000
29.1600 177.0000 1.0000
29.1800 169.0000 1.0000
29.2000 176.0000 1.0000
29.2200 180.0000 1.0000
29.2400 175.0000 1.0000
29.2600 202.0000 1.0000
29.2800 205.0000 1.0000
29.3000 204.0000 1.0000
29.3200 224.0000 1.0000
29.3400 224.0000 1.0000
29.3600 233.0000 1.0000
29.3800 227.0000 1.0000
29.4000 239.0000 1.0000
29.4200 252.0000 1.0000
29.4400 256.0000 1.0000
29.4600 275.0000 1.0000
29.4800 284.0000 1.0000
29.5000 315.0000 1.0000
29.5200 372.0000 1.0000
29.5400 376.0000 1.0000
29.5600 392.0000 1.0000
29.5800 428.0000 1.0000
29.6000 458.0000 1.0000
29.6200 504.0000 1.0000
29.6400 529.0000 1.0000
29.6600 548.0000 1.0000
29.6800 526.0000 1.0000
29.7000 547.0000 1.0000
29.7200 508.0000 1.0000
29.7400 471.0000 1.0000
29.7600 449.0000 1.0000
29.7800 433.0000 1.0000
29.8000 452.0000 1.0000
29.8200 426.0000 1.0000
29.8400 410.0000 1.0000
29.8600 403.0000 1.0000
29.8800 393.0000 1.0000
29.9000 431.0000 1.0000
29.9200 469.0000 1.0000
29.9400 468.0000 1.0000
29.9600 474.0000 1.0000
29.9800 434.0000 1.0000
30.0000 430.0000 1.0000
30.0200 433.0000 1.0000
30.0400 409.0000 1.0000
30.0600 409.0000 1.0000
30.0800 386.0000 1.0000
30.1000 362.0000 1.0000
30.1200 363.0000 1.0000
30.1400 362.0000 1.0000
30.1600 361.0000 1.0000
30.1800 344.0000 1.0000
30.2000 370.0000 1.0000
30.2200 391.0000 1.0000
30.2400 398.0000 1.0000
30.2600 431.0000 1.0000
30.2800 458.0000 1.0000
30.3000 479.0000 1.0000
30.3200 476.0000 1.0000
30.3400 461.0000 1.0000
30.3600 454.0000 1.0000
30.3800 425.0000 1.0000
30.4000 378.0000 1.0000
30.4200 338.0000 1.0000
30.4400 332.0000 1.0000
30.4600 288.0000 1.0000
30.4800 262.0000 1.0000
30.5000 285.0000 1.0000
30.5200 294.0000 1.0000
30.5400 304.0000 1.0000
30.5600 331.0000 1.0000
30.5800 347.0000 1.0000
30.6000 346.0000 1.0000
30.6200 348.0000 1.0000
30.6400 364.0000 1.0000
30.6600 370.0000 1.0000
30.6800 352.0000 1.0000
30.7000 340.0000 1.0000
30.7200 329.0000 1.0000
30.7400 305.0000 1.0000
30.7600 259.0000 1.0000
30.7800 247.0000 1.0000
30.8000 244.0000 1.0000
30.8200 216.0000 1.0000
30.8400 216.0000 1.0000
30.8600 222.0000 1.0000
30.8800 214.0000 1.0000
30.9000 225.0000 1.0000
30.9200 245.0000 1.0000
30.9400 260.0000 1.0000
30.9600 281.0000 1.0000
30.9800 277.0000 1.0000
31.0000 300.0000 1.0000
31.0200 332.0000 1.0000
31.0400 320.0000 1.0000
31.0600 360.0000 1.0000
31.0800 379.0000 1.0000
31.1000 329.0000 1.0000
31.1200 327.0000 1.0000
31.1400 301.0000 1.0000
31.1600 265.0000 1.0000
31.1800 260.0000 1.0000
31.2000 243.0000 1.0000
31.2200 217.0000 1.0000
31.2400 206.0000 1.0000
31.2600 197.0000 1.0000
31.2800 230.0000 1.0000
31.3000 216.0000 1.0000
31.3200 204.0000 1.0000
31.3400 214.0000 1.0000
31.3600 184.0000 1.0000
31.3800 187.0000 1.0000
31.4000 209.0000 1.0000
31.4200 178.0000 1.0000
31.4400 174.0000 1.0000
31.4600 161.0000 1.0000
31.4800 138.0000 1.0000
31.5000 150.0000 1.0000
31.5200 160.0000 1.0000
31.5400 174.0000 1.0000
31.5600 160.0000 1.0000
31.5800 163.0000 1.0000
31.6000 158.0000 1.0000
31.6200 168.0000 1.0000
31.6400 169.0000 1.0000
31.6600 175.0000 1.0000
31.6800 173.0000 1.0000
31.7000 167.0000 1.0000
31.7200 174.0000 1.0000
31.7400 177.0000 1.0000
31.7600 212.0000 1.0000
31.7800 222.0000 1.0000
31.8000 231.0000 1.0000
31.8200 201.0000 1.0000
31.8400 216.0000 1.0000
31.8600 216.0000 1.0000
31.8800 241.0000 1.0000
31.9000 248.0000 1.0000
31.9200 226.0000 1.0000
31.9400 214.0000 1.0000
31.9600 205.0000 1.0000
31.9800 182.0000 1.0000
32.0000 180.0000 1.0000
32.0200 199.0000 1.0000
32.0400 196.0000 1.0000
32.0600 203.0000 1.0000
32.0800 224.0000 1.0000
32.1000 218.0000 1.0000
32.1200 224.0000 1.0000
32.1400 225.0000 1.0000
32.1600 211.0000 1.0000
32.1800 239.0000 1.0000
32.2000 208.0000 1.0000
32.2200 188.0000 1.0000
32.2400 182.0000 1.0000
32.2600 197.0000 1.0000
32.2800 181.0000 1.0000
32.3000 162.0000 1.0000
32.3200 153.0000 1.0000
32.3400 149.0000 1.0000
32.3600 156.0000 1.0000
32.3800 145.0000 1.0000
32.4000 131.0000 1.0000
32.4200 144.0000 1.0000
32.4400 136.0000 1.0000
32.4600 122.0000 1.0000
32.4800 126.0000 1.0000
32.5000 135.0000 1.0000
32.5200 107.0000 1.0000
32.5400 117.0000 1.0000
32.5600 129.0000 1.0000
32.5800 113.0000 1.0000
32.6000 123.0000 1.0000
32.6200 121.0000 1.0000
32.6400 113.0000 1.0000
32.6600 101.0000 1.0000
32.6800 111.0000 1.0000
32.7000 117.0000 1.0000
32.7200 127.0000 1.0000
32.7400 132.0000 1.0000
32.7600 139.0000 1.0000
32.7800 138.0000 1.0000
32.8000 113.0000 1.0000
32.8200 133.0000 1.0000
32.8400 123.0000 1.0000
32.8600 125.0000 1.0000
32.8800 137.0000 1.0000
32.9000 159.0000 1.0000
32.9200 159.0000 1.0000
32.9400 131.0000 1.0000
32.9600 142.0000 1.0000
32.9800 143.0000 1.0000
33.0000 146.0000 1.0000
33.0200 140.0000 1.0000
33.0400 147.0000 1.0000
33.0600 137.0000 1.0000
33.0800 140.0000 1.0000
33.1000 127.0000 1.0000
33.1200 131.0000 1.0000
33.1400 133.0000 1.0000
33.1600 124.0000 1.0000
33.1800 145.0000 1.0000
33.2000 135.0000 1.0000
33.2200 137.0000 1.0000
33.2400 140.0000 1.0000
33.2600 123.0000 1.0000
33.2800 147.0000 1.0000
33.3000 152.0000 1.0000
33.3200 139.0000 1.0000
33.3400 143.0000 1.0000
33.3600 119.0000 1.0000
33.3800 123.0000 1.0000
33.4000 122.0000 1.0000
33.4200 133.0000 1.0000
33.4400 134.0000 1.0000
33.4600 141.0000 1.0000
33.4800 141.0000 1.0000
33.5000 127.0000 1.0000
33.5200 144.0000 1.0000
33.5400 132.0000 1.0000
33.5600 141.0000 1.0000
33.5800 170.0000 1.0000
33.6000 143.0000 1.0000
33.6200 150.0000 1.0000
33.6400 159.0000 1.0000
33.6600 178.0000 1.0000
33.6800 212.0000 1.0000
33.7000 207.0000 1.0000
33.7200 191.0000 1.0000
33.7400 231.0000 1.0000
33.7600 233.0000 1.0000
33.7800 225.0000 1.0000
33.8000 221.0000 1.0000
33.8200 238.0000 1.0000
33.8400 233.0000 1.0000
33.8600 229.0000 1.0000
33.8800 215.0000 1.0000
33.9000 210.0000 1.0000
33.9200 167.0000 1.0000
33.9400 207.0000 1.0000
33.9600 193.0000 1.0000
33.9800 203.0000 1.0000
34.0000 208.0000 1.0000
34.0200 225.0000 1.0000
34.0400 218.0000 1.0000
34.0600 235.0000 1.0000
34.0800 240.0000 1.0000
34.1000 300.0000 1.0000
34.1200 327.0000 1.0000
34.1400 322.0000 1.0000
34.1600 378.0000 1.0000
34.1800 346.0000 1.0000
34.2000 405.0000 1.0000
34.2200 371.0000 1.0000
34.2400 351.0000 1.0000
34.2600 371.0000 1.0000
34.2800 402.0000 1.0000
34.3000 403.0000 1.0000
34.3200 359.0000 1.0000
34.3400 340.0000 1.0000
34.3600 356.0000 1.0000
34.3800 409.0000 1.0000
34.4000 368.0000 1.0000
34.4200 331.0000 1.0000
34.4400 350.0000 1.0000
34.4600 365.0000 1.0000
34.4800 384.0000 1.0000
34.5000 360.0000 1.0000
34.5200 397.0000 1.0000
34.5400 415.0000 1.0000
34.5600 457.0000 1.0000
34.5800 503.0000 1.0000
34.6000 517.0000 1.0000
34.6200 575.0000 1.0000
34.6400 585.0000 1.0000
34.6600 627.0000 1.0000
34.6800 674.0000 1.0000
34.7000 631.0000 1.0000
34.7200 696.0000 1.0000
34.7400 681.0000 1.0000
34.7600 693.0000 1.0000
34.7800 711.0000 1.0000
34.8000 729.0000 1.0000
34.8200 764.0000 1.0000
34.8400 784.0000 1.0000
34.8600 951.0000 1.0000
34.8800 1064.0000 1.0000
34.9000 1185.0000 1.0000
34.9200 1394.0000 1.0000
34.9400 1673.0000 1.0000
34.9600 1734.0000 1.0000
34.9800 1891.0000 1.0000
35.0000 1896.0000 1.0000
35.0200 1801.0000 1.0000
35.0400 1596.0000 1.0000
35.0600 1442.0000 1.0000
35.0800 1196.0000 1.0000
35.1000 929.0000 1.0000
35.1200 831.0000 1.0000
35.1400 649.0000 1.0000
35.1600 488.0000 1.0000
35.1800 450.0000 1.0000
35.2000 367.0000 1.0000
35.2200 347.0000 1.0000
35.2400 349.0000 1.0000
35.2600 338.0000 1.0000
35.2800 313.0000 1.0000
35.3000 331.0000 1.0000
35.3200 299.0000 1.0000
35.3400 289.0000 1.0000
35.3600 297.0000 1.0000
35.3800 278.0000 1.0000
35.4000 252.0000 1.0000
35.4200 256.0000 1.0000
35.4400 249.0000 1.0000
35.4600 253.0000 1.0000
35.4800 275.0000 1.0000
35.5000 266.0000 1.0000
35.5200 241.0000 1.0000
35.5400 245.0000 1.0000
35.5600 207.0000 1.0000
35.5800 235.0000 1.0000
35.6000 205.0000 1.0000
35.6200 221.0000 1.0000
35.6400 200.0000 1.0000
35.6600 218.0000 1.0000
35.6800 185.0000 1.0000
35.7000 203.0000 1.0000
35.7200 186.0000 1.0000
35.7400 206.0000 1.0000
35.7600 224.0000 1.0000
35.7800 209.0000 1.0000
35.8000 201.0000 1.0000
35.8200 227.0000 1.0000
35.8400 207.0000 1.0000
35.8600 216.0000 1.0000
35.8800 213.0000 1.0000
35.9000 214.0000 1.0000
35.9200 236.0000 1.0000
35.9400 211.0000 1.0000
35.9600 206.0000 1.0000
35.9800 205.0000 1.0000
36.0000 226.0000 1.0000
36.0200 220.0000 1.0000
36.0400 202.0000 1.0000
36.0600 203.0000 1.0000
36.0800 222.0000 1.0000
36.1000 239.0000 1.0000
36.1200 236.0000 1.0000
36.1400 233.0000 1.0000
36.1600 262.0000 1.0000
36.1800 242.0000 1.0000
36.2000 284.0000 1.0000
36.2200 308.0000 1.0000
36.2400 337.0000 1.0000
36.2600 425.0000 1.0000
36.2800 465.0000 1.0000
36.3000 562.0000 1.0000
36.3200 684.0000 1.0000
36.3400 800.0000 1.0000
36.3600 931.0000 1.0000
36.3800 1014.0000 1.0000
36.4000 973.0000 1.0000
36.4200 901.0000 1.0000
36.4400 876.0000 1.0000
36.4600 769.0000 1.0000
36.4800 686.0000 1.0000
36.5000 592.0000 1.0000
36.5200 542.0000 1.0000
36.5400 429.0000 1.0000
36.5600 375.0000 1.0000
36.5800 345.0000 1.0000
36.6000 334.0000 1.0000
36.6200 332.0000 1.0000
36.6400 300.0000 1.0000
36.6600 273.0000 1.0000
36.6800 258.0000 1.0000
36.7000 245.0000 1.0000
36.7200 242.0000 1.0000
36.7400 215.0000 1.0000
36.7600 249.0000 1.0000
36.7800 260.0000 1.0000
36.8000 259.0000 1.0000
36.8200 247.0000 1.0000
36.8400 229.0000 1.0000
36.8600 231.0000 1.0000
36.8800 213.0000 1.0000
36.9000 205.0000 1.0000
36.9200 235.0000 1.0000
36.9400 216.0000 1.0000
36.9600 241.0000 1.0000
36.9800 219.0000 1.0000
37.0000 206.0000 1.0000
37.0200 215.0000 1.0000
37.0400 205.0000 1.0000
37.0600 226.0000 1.0000
37.0800 226.0000 1.0000
37.1000 231.0000 1.0000
37.1200 254.0000 1.0000
37.1400 290.0000 1.0000
37.1600 257.0000 1.0000
37.1800 272.0000 1.0000
37.2000 291.0000 1.0000
37.2200 300.0000 1.0000
37.2400 285.0000 1.0000
37.2600 304.0000 1.0000
37.2800 305.0000 1.0000
37.3000 308.0000 1.0000
37.3200 313.0000 1.0000
37.3400 328.0000 1.0000
37.3600 312.0000 1.0000
37.3800 322.0000 1.0000
37.4000 336.0000 1.0000
37.4200 350.0000 1.0000
37.4400 386.0000 1.0000
37.4600 418.0000 1.0000
37.4800 439.0000 1.0000
37.5000 516.0000 1.0000
37.5200 636.0000 1.0000
37.5400 671.0000 1.0000
37.5600 707.0000 1.0000
37.5800 812.0000 1.0000
37.6000 858.0000 1.0000
37.6200 853.0000 1.0000
37.6400 814.0000 1.0000
37.6600 749.0000 1.0000
37.6800 681.0000 1.0000
37.7000 613.0000 1.0000
37.7200 500.0000 1.0000
37.7400 405.0000 1.0000
37.7600 346.0000 1.0000
37.7800 273.0000 1.0000
37.8000 222.0000 1.0000
37.8200 188.0000 1.0000
37.8400 178.0000 1.0000
37.8600 159.0000 1.0000
37.8800 133.0000 1.0000
37.9000 153.0000 1.0000
37.9200 143.0000 1.0000
37.9400 129.0000 1.0000
37.9600 130.0000 1.0000
37.9800 121.0000 1.0000
38.0000 127.0000 1.0000
38.0200 131.0000 1.0000
38.0400 130.0000 1.0000
38.0600 123.0000 1.0000
38.0800 118.0000 1.0000
38.1000 118.0000 1.0000
38.1200 123.0000 1.0000
38.1400 121.0000 1.0000
38.1600 126.0000 1.0000
38.1800 118.0000 1.0000
38.2000 128.0000 1.0000
38.2200 120.0000 1.0000
38.2400 127.0000 1.0000
38.2600 123.0000 1.0000
38.2800 129.0000 1.0000
38.3000 130.0000 1.0000
38.3200 134.0000 1.0000
38.3400 123.0000 1.0000
38.3600 118.0000 1.0000
38.3800 145.0000 1.0000
38.4000 156.0000 1.0000
38.4200 157.0000 1.0000
38.4400 156.0000 1.0000
38.4600 169.0000 1.0000
38.4800 161.0000 1.0000
38.5000 166.0000 1.0000
38.5200 163.0000 1.0000
38.5400 163.0000 1.0000
38.5600 172.0000 1.0000
38.5800 184.0000 1.0000
38.6000 181.0000 1.0000
38.6200 197.0000 1.0000
38.6400 204.0000 1.0000
38.6600 186.0000 1.0000
38.6800 190.0000 1.0000
38.7000 189.0000 1.0000
38.7200 177.0000 1.0000
38.7400 156.0000 1.0000
38.7600 159.0000 1.0000
38.7800 146.0000 1.0000
38.8000 153.0000 1.0000
38.8200 157.0000 1.0000
38.8400 156.0000 1.0000
38.8600 131.0000 1.0000
38.8800 147.0000 1.0000
38.9000 139.0000 1.0000
38.9200 135.0000 1.0000
38.9400 145.0000 1.0000
38.9600 133.0000 1.0000
38.9800 151.0000 1.0000
39.0000 155.0000 1.0000
39.0200 169.0000 1.0000
39.0400 162.0000 1.0000
39.0600 154.0000 1.0000
39.0800 167.0000 1.0000
39.1000 185.0000 1.0000
39.1200 201.0000 1.0000
39.1400 228.0000 1.0000
39.1600 274.0000 1.0000
39.1800 301.0000 1.0000
39.2000 336.0000 1.0000
39.2200 420.0000 1.0000
39.2400 535.0000 1.0000
39.2600 652.0000 1.0000
39.2800 735.0000 1.0000
39.3000 753.0000 1.0000
39.3200 781.0000 1.0000
39.3400 761.0000 1.0000
39.3600 702.0000 1.0000
39.3800 628.0000 1.0000
39.4000 545.0000 1.0000
39.4200 487.0000 1.0000
39.4400 431.0000 1.0000
39.4600 373.0000 1.0000
39.4800 305.0000 1.0000
39.5000 244.0000 1.0000
39.5200 213.0000 1.0000
39.5400 191.0000 1.0000
39.5600 184.0000 1.0000
39.5800 170.0000 1.0000
39.6000 160.0000 1.0000
39.6200 185.0000 1.0000
39.6400 181.0000 1.0000
39.6600 164.0000 1.0000
39.6800 175.0000 1.0000
39.7000 183.0000 1.0000
39.7200 179.0000 1.0000
39.7400 169.0000 1.0000
39.7600 173.0000 1.0000
39.7800 176.0000 1.0000
39.8000 171.0000 1.0000
39.8200 177.0000 1.0000
39.8400 176.0000 1.0000
39.8600 173.0000 1.0000
39.8800 184.0000 1.0000
39.9000 179.0000 1.0000
39.9200 189.0000 1.0000
39.9400 198.0000 1.0000
39.9600 196.0000 1.0000
39.9800 201.0000 1.0000
40.0000 197.0000 1.0000
40.0200 220.0000 1.0000
40.0400 277.0000 1.0000
40.0600 347.0000 1.0000
40.0800 382.0000 1.0000
40.1000 411.0000 1.0000
40.1200 466.0000 1.0000
40.1400 451.0000 1.0000
40.1600 414.0000 1.0000
40.1800 394.0000 1.0000
40.2000 359.0000 1.0000
40.2200 339.0000 1.0000
40.2400 315.0000 1.0000
40.2600 277.0000 1.0000
40.2800 242.0000 1.0000
40.3000 216.0000 1.0000
40.3200 197.0000 1.0000
40.3400 177.0000 1.0000
40.3600 157.0000 1.0000
40.3800 147.0000 1.0000
40.4000 146.0000 1.0000
40.4200 139.0000 1.0000
40.4400 137.0000 1.0000
40.4600 143.0000 1.0000
40.4800 157.0000 1.0000
40.5000 167.0000 1.0000
40.5200 158.0000 1.0000
40.5400 157.0000 1.0000
40.5600 163.0000 1.0000
40.5800 165.0000 1.0000
40.6000 156.0000 1.0000
40.6200 154.0000 1.0000
40.6400 155.0000 1.0000
40.6600 159.0000 1.0000
40.6800 166.0000 1.0000
40.7000 164.0000 1.0000
40.7200 171.0000 1.0000
40.7400 160.0000 1.0000
40.7600 143.0000 1.0000
40.7800 142.0000 1.0000
40.8000 148.0000 1.0000
40.8200 151.0000 1.0000
40.8400 159.0000 1.0000
40.8600 162.0000 1.0000
40.8800 143.0000 1.0000
40.9000 141.0000 1.0000
40.9200 155.0000 1.0000
40.9400 164.0000 1.0000
40.9600 168.0000 1.0000
40.9800 174.0000 1.0000
41.0000 175.0000 1.0000
41.0200 176.0000 1.0000
41.0400 167.0000 1.0000
41.0600 171.0000 1.0000
41.0800 173.0000 1.0000
41.1000 168.0000 1.0000
41.1200 168.0000 1.0000
41.1400 166.0000 1.0000
41.1600 175.0000 1.0000
41.1800 170.0000 1.0000
41.2000 160.0000 1.0000
41.2200 155.0000 1.0000
41.2400 163.0000 1.0000
41.2600 150.0000 1.0000
41.2800 136.0000 1.0000
41.3000 145.0000 1.0000
41.3200 150.0000 1.0000
41.3400 166.0000 1.0000
41.3600 173.0000 1.0000
41.3800 157.0000 1.0000
41.4000 155.0000 1.0000
41.4200 181.0000 1.0000
41.4400 203.0000 1.0000
41.4600 210.0000 1.0000
41.4800 212.0000 1.0000
41.5000 239.0000 1.0000
41.5200 268.0000 1.0000
41.5400 288.0000 1.0000
41.5600 276.0000 1.0000
41.5800 280.0000 1.0000
41.6000 283.0000 1.0000
41.6200 283.0000 1.0000
41.6400 293.0000 1.0000
41.6600 270.0000 1.0000
41.6800 264.0000 1.0000
41.7000 256.0000 1.0000
41.7200 248.0000 1.0000
41.7400 246.0000 1.0000
41.7600 240.0000 1.0000
41.7800 223.0000 1.0000
41.8000 229.0000 1.0000
41.8200 213.0000 1.0000
41.8400 214.0000 1.0000
41.8600 214.0000 1.0000
41.8800 195.0000 1.0000
41.9000 197.0000 1.0000
41.9200 211.0000 1.0000
41.9400 213.0000 1.0000
41.9600 223.0000 1.0000
41.9800 232.0000 1.0000
42.0000 241.0000 1.0000
42.0200 244.0000 1.0000
42.0400 247.0000 1.0000
42.0600 261.0000 1.0000
42.0800 279.0000 1.0000
42.1000 272.0000 1.0000
42.1200 302.0000 1.0000
42.1400 368.0000 1.0000
42.1600 394.0000 1.0000
42.1800 424.0000 1.0000
42.2000 447.0000 1.0000
42.2200 513.0000 1.0000
42.2400 608.0000 1.0000
42.2600 685.0000 1.0000
42.2800 729.0000 1.0000
42.3000 776.0000 1.0000
42.3200 779.0000 1.0000
42.3400 689.0000 1.0000
42.3600 625.0000 1.0000
42.3800 586.0000 1.0000
42.4000 551.0000 1.0000
42.4200 465.0000 1.0000
42.4400 423.0000 1.0000
42.4600 380.0000 1.0000
42.4800 336.0000 1.0000
42.5000 294.0000 1.0000
42.5200 253.0000 1.0000
42.5400 263.0000 1.0000
42.5600 257.0000 1.0000
42.5800 252.0000 1.0000
42.6000 223.0000 1.0000
42.6200 223.0000 1.0000
42.6400 224.0000 1.0000
42.6600 205.0000 1.0000
42.6800 204.0000 1.0000
42.7000 212.0000 1.0000
42.7200 191.0000 1.0000
42.7400 198.0000 1.0000
42.7600 205.0000 1.0000
42.7800 175.0000 1.0000
42.8000 182.0000 1.0000
42.8200 193.0000 1.0000
42.8400 177.0000 1.0000
42.8600 183.0000 1.0000
42.8800 197.0000 1.0000
42.9000 196.0000 1.0000
42.9200 224.0000 1.0000
42.9400 213.0000 1.0000
42.9600 239.0000 1.0000
42.9800 267.0000 1.0000
43.0000 287.0000 1.0000
43.0200 348.0000 1.0000
43.0400 421.0000 1.0000
43.0600 529.0000 1.0000
43.0800 611.0000 1.0000
43.1000 799.0000 1.0000
43.1200 1016.0000 1.0000
43.1400 1232.0000 1.0000
43.1600 1490.0000 1.0000
43.1800 1679.0000 1.0000
43.2000 1692.0000 1.0000
43.2200 1660.0000 1.0000
43.2400 1595.0000 1.0000
43.2600 1428.0000 1.0000
43.2800 1280.0000 1.0000
43.3000 1166.0000 1.0000
43.3200 1004.0000 1.0000
43.3400 881.0000 1.0000
43.3600 660.0000 1.0000
43.3800 542.0000 1.0000
43.4000 412.0000 1.0000
43.4200 363.0000 1.0000
43.4400 291.0000 1.0000
43.4600 254.0000 1.0000
43.4800 217.0000 1.0000
43.5000 229.0000 1.0000
43.5200 202.0000 1.0000
43.5400 187.0000 1.0000
43.5600 186.0000 1.0000
43.5800 162.0000 1.0000
43.6000 168.0000 1.0000
43.6200 188.0000 1.0000
43.6400 164.0000 1.0000
43.6600 170.0000 1.0000
43.6800 148.0000 1.0000
43.7000 150.0000 1.0000
43.7200 135.0000 1.0000
43.7400 157.0000 1.0000
43.7600 138.0000 1.0000
43.7800 139.0000 1.0000
43.8000 148.0000 1.0000
43.8200 141.0000 1.0000
43.8400 131.0000 1.0000
43.8600 130.0000 1.0000
43.8800 152.0000 1.0000
43.9000 153.0000 1.0000
43.9200 130.0000 1.0000
43.9400 126.0000 1.0000
43.9600 141.0000 1.0000
43.9800 130.0000 1.0000
44.0000 122.0000 1.0000
44.0200 131.0000 1.0000
44.0400 134.0000 1.0000
44.0600 127.0000 1.0000
44.0800 117.0000 1.0000
44.1000 117.0000 1.0000
44.1200 115.0000 1.0000
44.1400 132.0000 1.0000
44.1600 121.0000 1.0000
44.1800 124.0000 1.0000
44.2000 112.0000 1.0000
44.2200 110.0000 1.0000
44.2400 96.0000 1.0000
44.2600 106.0000 1.0000
44.2800 114.0000 1.0000
44.3000 122.0000 1.0000
44.3200 114.0000 1.0000
44.3400 141.0000 1.0000
44.3600 106.0000 1.0000
44.3800 123.0000 1.0000
44.4000 138.0000 1.0000
44.4200 122.0000 1.0000
44.4400 132.0000 1.0000
44.4600 127.0000 1.0000
44.4800 133.0000 1.0000
44.5000 129.0000 1.0000
44.5200 146.0000 1.0000
44.5400 142.0000 1.0000
44.5600 127.0000 1.0000
44.5800 122.0000 1.0000
44.6000 139.0000 1.0000
44.6200 143.0000 1.0000
44.6400 138.0000 1.0000
44.6600 124.0000 1.0000
44.6800 155.0000 1.0000
44.7000 164.0000 1.0000
44.7200 146.0000 1.0000
44.7400 156.0000 1.0000
44.7600 151.0000 1.0000
44.7800 169.0000 1.0000
44.8000 165.0000 1.0000
44.8200 167.0000 1.0000
44.8400 163.0000 1.0000
44.8600 161.0000 1.0000
44.8800 181.0000 1.0000
44.9000 185.0000 1.0000
44.9200 166.0000 1.0000
44.9400 195.0000 1.0000
44.9600 151.0000 1.0000
44.9800 174.0000 1.0000
45.0000 159.0000 1.0000
45.0200 176.0000 1.0000
45.0400 191.0000 1.0000
45.0600 155.0000 1.0000
45.0800 197.0000 1.0000
45.1000 176.0000 1.0000
45.1200 203.0000 1.0000
45.1400 222.0000 1.0000
45.1600 219.0000 1.0000
45.1800 229.0000 1.0000
45.2000 247.0000 1.0000
45.2200 238.0000 1.0000
45.2400 294.0000 1.0000
45.2600 298.0000 1.0000
45.2800 314.0000 1.0000
45.3000 319.0000 1.0000
45.3200 306.0000 1.0000
45.3400 320.0000 1.0000
45.3600 306.0000 1.0000
45.3800 265.0000 1.0000
45.4000 295.0000 1.0000
45.4200 270.0000 1.0000
45.4400 269.0000 1.0000
45.4600 259.0000 1.0000
45.4800 294.0000 1.0000
45.5000 273.0000 1.0000
45.5200 323.0000 1.0000
45.5400 333.0000 1.0000
45.5600 374.0000 1.0000
45.5800 384.0000 1.0000
45.6000 436.0000 1.0000
45.6200 512.0000 1.0000
45.6400 510.0000 1.0000
45.6600 505.0000 1.0000
45.6800 506.0000 1.0000
45.7000 476.0000 1.0000
45.7200 455.0000 1.0000
45.7400 396.0000 1.0000
45.7600 369.0000 1.0000
45.7800 360.0000 1.0000
45.8000 300.0000 1.0000
45.8200 273.0000 1.0000
45.8400 231.0000 1.0000
45.8600 226.0000 1.0000
45.8800 223.0000 1.0000
45.9000 192.0000 1.0000
45.9200 193.0000 1.0000
45.9400 171.0000 1.0000
45.9600 176.0000 1.0000
45.9800 179.0000 1.0000
46.0000 168.0000 1.0000
46.0200 163.0000 1.0000
46.0400 169.0000 1.0000
46.0600 159.0000 1.0000
46.0800 164.0000 1.0000
46.1000 153.0000 1.0000
46.1200 160.0000 1.0000
46.1400 142.0000 1.0000
46.1600 145.0000 1.0000
46.1800 150.0000 1.0000
46.2000 121.0000 1.0000
46.2200 113.0000 1.0000
46.2400 143.0000 1.0000
46.2600 126.0000 1.0000
46.2800 122.0000 1.0000
46.3000 131.0000 1.0000
46.3200 126.0000 1.0000
46.3400 126.0000 1.0000
46.3600 125.0000 1.0000
46.3800 131.0000 1.0000
46.4000 137.0000 1.0000
46.4200 135.0000 1.0000
46.4400 128.0000 1.0000
46.4600 122.0000 1.0000
46.4800 109.0000 1.0000
46.5000 108.0000 1.0000
46.5200 110.0000 1.0000
46.5400 99.0000 1.0000
46.5600 108.0000 1.0000
46.5800 108.0000 1.0000
46.6000 99.0000 1.0000
46.6200 110.0000 1.0000
46.6400 115.0000 1.0000
46.6600 121.0000 1.0000
46.6800 132.0000 1.0000
46.7000 118.0000 1.0000
46.7200 113.0000 1.0000
46.7400 115.0000 1.0000
46.7600 116.0000 1.0000
46.7800 127.0000 1.0000
46.8000 154.0000 1.0000
46.8200 155.0000 1.0000
46.8400 158.0000 1.0000
46.8600 155.0000 1.0000
46.8800 163.0000 1.0000
46.9000 164.0000 1.0000
46.9200 148.0000 1.0000
46.9400 133.0000 1.0000
46.9600 149.0000 1.0000
46.9800 153.0000 1.0000
47.0000 142.0000 1.0000
47.0200 134.0000 1.0000
47.0400 129.0000 1.0000
47.0600 133.0000 1.0000
47.0800 126.0000 1.0000
47.1000 119.0000 1.0000
47.1200 133.0000 1.0000
47.1400 133.0000 1.0000
47.1600 114.0000 1.0000
47.1800 116.0000 1.0000
47.2000 137.0000 1.0000
47.2200 136.0000 1.0000
47.2400 100.0000 1.0000
47.2600 117.0000 1.0000
47.2800 129.0000 1.0000
47.3000 127.0000 1.0000
47.3200 134.0000 1.0000
47.3400 123.0000 1.0000
47.3600 106.0000 1.0000
47.3800 107.0000 1.0000
47.4000 112.0000 1.0000
47.4200 106.0000 1.0000
47.4400 109.0000 1.0000
47.4600 108.0000 1.0000
47.4800 104.0000 1.0000
47.5000 108.0000 1.0000
47.5200 94.0000 1.0000
47.5400 98.0000 1.0000
47.5600 123.0000 1.0000
47.5800 112.0000 1.0000
47.6000 111.0000 1.0000
47.6200 120.0000 1.0000
47.6400 131.0000 1.0000
47.6600 131.0000 1.0000
47.6800 122.0000 1.0000
47.7000 137.0000 1.0000
47.7200 138.0000 1.0000
47.7400 136.0000 1.0000
47.7600 142.0000 1.0000
47.7800 162.0000 1.0000
47.8000 171.0000 1.0000
47.8200 165.0000 1.0000
47.8400 179.0000 1.0000
47.8600 173.0000 1.0000
47.8800 182.0000 1.0000
47.9000 174.0000 1.0000
47.9200 166.0000 1.0000
47.9400 189.0000 1.0000
47.9600 186.0000 1.0000
47.9800 181.0000 1.0000
48.0000 180.0000 1.0000
48.0200 184.0000 1.0000
48.0400 188.0000 1.0000
48.0600 186.0000 1.0000
48.0800 172.0000 1.0000
48.1000 156.0000 1.0000
48.1200 155.0000 1.0000
48.1400 148.0000 1.0000
48.1600 142.0000 1.0000
48.1800 146.0000 1.0000
48.2000 142.0000 1.0000
48.2200 145.0000 1.0000
48.2400 139.0000 1.0000
48.2600 135.0000 1.0000
48.2800 135.0000 1.0000
48.3000 123.0000 1.0000
48.3200 125.0000 1.0000
48.3400 122.0000 1.0000
48.3600 111.0000 1.0000
48.3800 133.0000 1.0000
48.4000 134.0000 1.0000
48.4200 125.0000 1.0000
48.4400 122.0000 1.0000
48.4600 117.0000 1.0000
48.4800 113.0000 1.0000
48.5000 111.0000 1.0000
48.5200 117.0000 1.0000
48.5400 115.0000 1.0000
48.5600 121.0000 1.0000
48.5800 123.0000 1.0000
48.6000 113.0000 1.0000
48.6200 118.0000 1.0000
48.6400 123.0000 1.0000
48.6600 114.0000 1.0000
48.6800 119.0000 1.0000
48.7000 129.0000 1.0000
48.7200 142.0000 1.0000
48.7400 139.0000 1.0000
48.7600 136.0000 1.0000
48.7800 143.0000 1.0000
48.8000 136.0000 1.0000
48.8200 147.0000 1.0000
48.8400 155.0000 1.0000
48.8600 152.0000 1.0000
48.8800 142.0000 1.0000
48.9000 148.0000 1.0000
48.9200 162.0000 1.0000
48.9400 155.0000 1.0000
48.9600 163.0000 1.0000
48.9800 175.0000 1.0000
49.0000 182.0000 1.0000
49.0200 188.0000 1.0000
49.0400 197.0000 1.0000
49.0600 198.0000 1.0000
49.0800 197.0000 1.0000
49.1000 206.0000 1.0000
49.1200 192.0000 1.0000
49.1400 186.0000 1.0000
49.1600 191.0000 1.0000
49.1800 166.0000 1.0000
49.2000 170.0000 1.0000
49.2200 177.0000 1.0000
49.2400 168.0000 1.0000
49.2600 177.0000 1.0000
49.2800 164.0000 1.0000
49.3000 169.0000 1.0000
49.3200 180.0000 1.0000
49.3400 169.0000 1.0000
49.3600 168.0000 1.0000
49.3800 171.0000 1.0000
49.4000 164.0000 1.0000
49.4200 160.0000 1.0000
49.4400 184.0000 1.0000
49.4600 193.0000 1.0000
49.4800 184.0000 1.0000
49.5000 197.0000 1.0000
49.5200 198.0000 1.0000
49.5400 201.0000 1.0000
49.5600 194.0000 1.0000
49.5800 215.0000 1.0000
49.6000 247.0000 1.0000
49.6200 255.0000 1.0000
49.6400 280.0000 1.0000
49.6600 278.0000 1.0000
49.6800 262.0000 1.0000
49.7000 273.0000 1.0000
49.7200 299.0000 1.0000
49.7400 310.0000 1.0000
49.7600 309.0000 1.0000
49.7800 340.0000 1.0000
49.8000 364.0000 1.0000
49.8200 427.0000 1.0000
49.8400 472.0000 1.0000
49.8600 515.0000 1.0000
49.8800 637.0000 1.0000
49.9000 778.0000 1.0000
49.9200 892.0000 1.0000
49.9400 1011.0000 1.0000
49.9600 1223.0000 1.0000
49.9800 1280.0000 1.0000
50.0000 1339.0000 1.0000
50.0200 1262.0000 1.0000
50.0400 1125.0000 1.0000
50.0600 999.0000 1.0000
50.0800 909.0000 1.0000
50.1000 841.0000 1.0000
50.1200 822.0000 1.0000
50.1400 702.0000 1.0000
50.1600 603.0000 1.0000
50.1800 513.0000 1.0000
50.2000 421.0000 1.0000
50.2200 332.0000 1.0000
50.2400 257.0000 1.0000
50.2600 266.0000 1.0000
50.2800 262.0000 1.0000
50.3000 273.0000 1.0000
50.3200 244.0000 1.0000
50.3400 249.0000 1.0000
50.3600 235.0000 1.0000
50.3800 267.0000 1.0000
50.4000 313.0000 1.0000
50.4200 326.0000 1.0000
50.4400 324.0000 1.0000
50.4600 358.0000 1.0000
50.4800 348.0000 1.0000
50.5000 331.0000 1.0000
50.5200 322.0000 1.0000
50.5400 311.0000 1.0000
50.5600 329.0000 1.0000
50.5800 298.0000 1.0000
50.6000 277.0000 1.0000
50.6200 283.0000 1.0000
50.6400 262.0000 1.0000
50.6600 240.0000 1.0000
50.6800 214.0000 1.0000
50.7000 208.0000 1.0000
50.7200 200.0000 1.0000
50.7400 199.0000 1.0000
50.7600 204.0000 1.0000
50.7800 170.0000 1.0000
50.8000 169.0000 1.0000
50.8200 166.0000 1.0000
50.8400 174.0000 1.0000
50.8600 168.0000 1.0000
50.8800 172.0000 1.0000
50.9000 183.0000 1.0000
50.9200 196.0000 1.0000
50.9400 219.0000 1.0000
50.9600 221.0000 1.0000
50.9800 218.0000 1.0000
51.0000 219.0000 1.0000
51.0200 235.0000 1.0000
51.0400 239.0000 1.0000
51.0600 223.0000 1.0000
51.0800 218.0000 1.0000
51.1000 198.0000 1.0000
51.1200 191.0000 1.0000
51.1400 197.0000 1.0000
51.1600 196.0000 1.0000
51.1800 204.0000 1.0000
51.2000 182.0000 1.0000
51.2200 164.0000 1.0000
51.2400 135.0000 1.0000
51.2600 143.0000 1.0000
51.2800 158.0000 1.0000
51.3000 142.0000 1.0000
51.3200 137.0000 1.0000
51.3400 128.0000 1.0000
51.3600 132.0000 1.0000
51.3800 108.0000 1.0000
51.4000 110.0000 1.0000
51.4200 107.0000 1.0000
51.4400 123.0000 1.0000
51.4600 98.0000 1.0000
51.4800 118.0000 1.0000
51.5000 115.0000 1.0000
51.5200 122.0000 1.0000
51.5400 99.0000 1.0000
51.5600 119.0000 1.0000
51.5800 105.0000 1.0000
51.6000 100.0000 1.0000
51.6200 115.0000 1.0000
51.6400 110.0000 1.0000
51.6600 105.0000 1.0000
51.6800 97.0000 1.0000
51.7000 88.0000 1.0000
51.7200 112.0000 1.0000
51.7400 100.0000 1.0000
51.7600 95.0000 1.0000
51.7800 93.0000 1.0000
51.8000 110.0000 1.0000
51.8200 106.0000 1.0000
51.8400 110.0000 1.0000
51.8600 114.0000 1.0000
51.8800 132.0000 1.0000
51.9000 116.0000 1.0000
51.9200 120.0000 1.0000
51.9400 145.0000 1.0000
51.9600 154.0000 1.0000
51.9800 146.0000 1.0000
52.0000 168.0000 1.0000
52.0200 154.0000 1.0000
52.0400 132.0000 1.0000
52.0600 185.0000 1.0000
52.0800 160.0000 1.0000
52.1000 190.0000 1.0000
52.1200 181.0000 1.0000
52.1400 165.0000 1.0000
52.1600 201.0000 1.0000
52.1800 207.0000 1.0000
52.2000 196.0000 1.0000
52.2200 223.0000 1.0000
52.2400 242.0000 1.0000
52.2600 268.0000 1.0000
52.2800 346.0000 1.0000
52.3000 369.0000 1.0000
52.3200 447.0000 1.0000
52.3400 561.0000 1.0000
52.3600 697.0000 1.0000
52.3800 720.0000 1.0000
52.4000 821.0000 1.0000
52.4200 804.0000 1.0000
52.4400 807.0000 1.0000
52.4600 695.0000 1.0000
52.4800 670.0000 1.0000
52.5000 591.0000 1.0000
52.5200 597.0000 1.0000
52.5400 519.0000 1.0000
52.5600 512.0000 1.0000
52.5800 468.0000 1.0000
52.6000 369.0000 1.0000
52.6200 367.0000 1.0000
52.6400 285.0000 1.0000
52.6600 259.0000 1.0000
52.6800 223.0000 1.0000
52.7000 200.0000 1.0000
52.7200 188.0000 1.0000
52.7400 173.0000 1.0000
52.7600 166.0000 1.0000
52.7800 154.0000 1.0000
52.8000 165.0000 1.0000
52.8200 174.0000 1.0000
52.8400 156.0000 1.0000
52.8600 140.0000 1.0000
52.8800 144.0000 1.0000
52.9000 161.0000 1.0000
52.9200 163.0000 1.0000
52.9400 147.0000 1.0000
52.9600 181.0000 1.0000
52.9800 189.0000 1.0000
53.0000 185.0000 1.0000
53.0200 178.0000 1.0000
53.0400 181.0000 1.0000
53.0600 176.0000 1.0000
53.0800 195.0000 1.0000
53.1000 163.0000 1.0000
53.1200 180.0000 1.0000
53.1400 190.0000 1.0000
53.1600 183.0000 1.0000
53.1800 160.0000 1.0000
53.2000 175.0000 1.0000
53.2200 171.0000 1.0000
53.2400 159.0000 1.0000
53.2600 166.0000 1.0000
53.2800 154.0000 1.0000
53.3000 163.0000 1.0000
53.3200 151.0000 1.0000
53.3400 125.0000 1.0000
53.3600 133.0000 1.0000
53.3800 123.0000 1.0000
53.4000 138.0000 1.0000
53.4200 138.0000 1.0000
53.4400 141.0000 1.0000
53.4600 147.0000 1.0000
53.4800 125.0000 1.0000
53.5000 137.0000 1.0000
53.5200 129.0000 1.0000
53.5400 130.0000 1.0000
53.5600 118.0000 1.0000
53.5800 124.0000 1.0000
53.6000 117.0000 1.0000
53.6200 117.0000 1.0000
53.6400 127.0000 1.0000
53.6600 120.0000 1.0000
53.6800 138.0000 1.0000
53.7000 130.0000 1.0000
53.7200 141.0000 1.0000
53.7400 120.0000 1.0000
53.7600 130.0000 1.0000
53.7800 143.0000 1.0000
53.8000 135.0000 1.0000
53.8200 126.0000 1.0000
53.8400 129.0000 1.0000
53.8600 126.0000 1.0000
53.8800 124.0000 1.0000
53.9000 144.0000 1.0000
53.9200 139.0000 1.0000
53.9400 121.0000 1.0000
53.9600 136.0000 1.0000
53.9800 150.0000 1.0000
54.0000 155.0000 1.0000
54.0200 136.0000 1.0000
54.0400 126.0000 1.0000
54.0600 124.0000 1.0000
54.0800 142.0000 1.0000
54.1000 125.0000 1.0000
54.1200 134.0000 1.0000
54.1400 138.0000 1.0000
54.1600 143.0000 1.0000
54.1800 128.0000 1.0000
54.2000 146.0000 1.0000
54.2200 156.0000 1.0000
54.2400 150.0000 1.0000
54.2600 135.0000 1.0000
54.2800 153.0000 1.0000
54.3000 159.0000 1.0000
54.3200 171.0000 1.0000
54.3400 161.0000 1.0000
54.3600 170.0000 1.0000
54.3800 171.0000 1.0000
54.4000 164.0000 1.0000
54.4200 154.0000 1.0000
54.4400 159.0000 1.0000
54.4600 175.0000 1.0000
54.4800 157.0000 1.0000
54.5000 166.0000 1.0000
54.5200 177.0000 1.0000
54.5400 177.0000 1.0000
54.5600 182.0000 1.0000
54.5800 203.0000 1.0000
54.6000 220.0000 1.0000
54.6200 248.0000 1.0000
54.6400 313.0000 1.0000
54.6600 348.0000 1.0000
54.6800 381.0000 1.0000
54.7000 421.0000 1.0000
54.7200 467.0000 1.0000
54.7400 490.0000 1.0000
54.7600 468.0000 1.0000
54.7800 430.0000 1.0000
54.8000 412.0000 1.0000
54.8200 391.0000 1.0000
54.8400 369.0000 1.0000
54.8600 368.0000 1.0000
54.8800 354.0000 1.0000
54.9000 351.0000 1.0000
54.9200 331.0000 1.0000
54.9400 279.0000 1.0000
54.9600 248.0000 1.0000
54.9800 250.0000 1.0000
55.0000 249.0000 1.0000
55.0200 236.0000 1.0000
55.0400 241.0000 1.0000
55.0600 245.0000 1.0000
55.0800 236.0000 1.0000
55.1000 257.0000 1.0000
55.1200 273.0000 1.0000
55.1400 269.0000 1.0000
55.1600 273.0000 1.0000
55.1800 301.0000 1.0000
55.2000 299.0000 1.0000
55.2200 304.0000 1.0000
55.2400 276.0000 1.0000
55.2600 252.0000 1.0000
55.2800 237.0000 1.0000
55.3000 229.0000 1.0000
55.3200 243.0000 1.0000
55.3400 256.0000 1.0000
55.3600 235.0000 1.0000
55.3800 212.0000 1.0000
55.4000 207.0000 1.0000
55.4200 203.0000 1.0000
55.4400 191.0000 1.0000
55.4600 194.0000 1.0000
55.4800 206.0000 1.0000
55.5000 211.0000 1.0000
55.5200 206.0000 1.0000
55.5400 199.0000 1.0000
55.5600 202.0000 1.0000
55.5800 214.0000 1.0000
55.6000 216.0000 1.0000
55.6200 210.0000 1.0000
55.6400 216.0000 1.0000
55.6600 206.0000 1.0000
55.6800 189.0000 1.0000
55.7000 196.0000 1.0000
55.7200 195.0000 1.0000
55.7400 186.0000 1.0000
55.7600 172.0000 1.0000
55.7800 163.0000 1.0000
55.8000 168.0000 1.0000
55.8200 171.0000 1.0000
55.8400 163.0000 1.0000
55.8600 161.0000 1.0000
55.8800 172.0000 1.0000
55.9000 162.0000 1.0000
55.9200 162.0000 1.0000
55.9400 156.0000 1.0000
55.9600 148.0000 1.0000
55.9800 155.0000 1.0000
56.0000 148.0000 1.0000
56.0200 149.0000 1.0000
56.0400 144.0000 1.0000
56.0600 145.0000 1.0000
56.0800 156.0000 1.0000
56.1000 142.0000 1.0000
56.1200 134.0000 1.0000
56.1400 148.0000 1.0000
56.1600 156.0000 1.0000
56.1800 147.0000 1.0000
56.2000 141.0000 1.0000
56.2200 150.0000 1.0000
56.2400 150.0000 1.0000
56.2600 141.0000 1.0000
56.2800 132.0000 1.0000
56.3000 142.0000 1.0000
56.3200 150.0000 1.0000
56.3400 146.0000 1.0000
56.3600 146.0000 1.0000
56.3800 148.0000 1.0000
56.4000 132.0000 1.0000
56.4200 130.0000 1.0000
56.4400 144.0000 1.0000
56.4600 160.0000 1.0000
56.4800 150.0000 1.0000
56.5000 143.0000 1.0000
56.5200 158.0000 1.0000
56.5400 156.0000 1.0000
56.5600 151.0000 1.0000
56.5800 152.0000 1.0000
56.6000 135.0000 1.0000
56.6200 142.0000 1.0000
56.6400 150.0000 1.0000
56.6600 143.0000 1.0000
56.6800 148.0000 1.0000
56.7000 146.0000 1.0000
56.7200 149.0000 1.0000
56.7400 153.0000 1.0000
56.7600 147.0000 1.0000
56.7800 142.0000 1.0000
56.8000 135.0000 1.0000
56.8200 137.0000 1.0000
56.8400 138.0000 1.0000
56.8600 137.0000 1.0000
56.8800 137.0000 1.0000
56.9000 145.0000 1.0000
56.9200 148.0000 1.0000
56.9400 157.0000 1.0000
56.9600 170.0000 1.0000
56.9800 169.0000 1.0000
57.0000 166.0000 1.0000
57.0200 169.0000 1.0000
57.0400 195.0000 1.0000
57.0600 199.0000 1.0000
57.0800 196.0000 1.0000
57.1000 203.0000 1.0000
57.1200 225.0000 1.0000
57.1400 258.0000 1.0000
57.1600 284.0000 1.0000
57.1800 304.0000 1.0000
57.2000 352.0000 1.0000
57.2200 443.0000 1.0000
57.2400 561.0000 1.0000
57.2600 676.0000 1.0000
57.2800 848.0000 1.0000
57.3000 1045.0000 1.0000
57.3200 1214.0000 1.0000
57.3400 1391.0000 1.0000
57.3600 1422.0000 1.0000
57.3800 1452.0000 1.0000
57.4000 1348.0000 1.0000
57.4200 1212.0000 1.0000
57.4400 1068.0000 1.0000
57.4600 915.0000 1.0000
57.4800 874.0000 1.0000
57.5000 890.0000 1.0000
57.5200 833.0000 1.0000
57.5400 771.0000 1.0000
57.5600 674.0000 1.0000
57.5800 553.0000 1.0000
57.6000 448.0000 1.0000
57.6200 358.0000 1.0000
57.6400 282.0000 1.0000
57.6600 245.0000 1.0000
57.6800 242.0000 1.0000
57.7000 223.0000 1.0000
57.7200 213.0000 1.0000
57.7400 186.0000 1.0000
57.7600 205.0000 1.0000
57.7800 180.0000 1.0000
57.8000 163.0000 1.0000
57.8200 159.0000 1.0000
57.8400 152.0000 1.0000
57.8600 148.0000 1.0000
57.8800 145.0000 1.0000
57.9000 150.0000 1.0000
57.9200 151.0000 1.0000
57.9400 165.0000 1.0000
57.9600 135.0000 1.0000
57.9800 141.0000 1.0000
58.0000 146.0000 1.0000
58.0200 156.0000 1.0000
58.0400 150.0000 1.0000
58.0600 139.0000 1.0000
58.0800 147.0000 1.0000
58.1000 162.0000 1.0000
58.1200 149.0000 1.0000
58.1400 137.0000 1.0000
58.1600 134.0000 1.0000
58.1800 139.0000 1.0000
58.2000 136.0000 1.0000
58.2200 125.0000 1.0000
58.2400 115.0000 1.0000
58.2600 132.0000 1.0000
58.2800 122.0000 1.0000
58.3000 144.0000 1.0000
58.3200 128.0000 1.0000
58.3400 128.0000 1.0000
58.3600 135.0000 1.0000
58.3800 140.0000 1.0000
58.4000 142.0000 1.0000
58.4200 137.0000 1.0000
58.4400 128.0000 1.0000
58.4600 140.0000 1.0000
58.4800 158.0000 1.0000
58.5000 171.0000 1.0000
58.5200 155.0000 1.0000
58.5400 186.0000 1.0000
58.5600 173.0000 1.0000
58.5800 155.0000 1.0000
58.6000 156.0000 1.0000
58.6200 151.0000 1.0000
58.6400 157.0000 1.0000
58.6600 185.0000 1.0000
58.6800 185.0000 1.0000
58.7000 174.0000 1.0000
58.7200 163.0000 1.0000
58.7400 142.0000 1.0000
58.7600 145.0000 1.0000
58.7800 138.0000 1.0000
58.8000 148.0000 1.0000
58.8200 155.0000 1.0000
58.8400 145.0000 1.0000
58.8600 131.0000 1.0000
58.8800 141.0000 1.0000
58.9000 152.0000 1.0000
58.9200 133.0000 1.0000
58.9400 143.0000 1.0000
58.9600 124.0000 1.0000
58.9800 138.0000 1.0000
59.0000 150.0000 1.0000
59.0200 146.0000 1.0000
59.0400 151.0000 1.0000
59.0600 165.0000 1.0000
59.0800 150.0000 1.0000
59.1000 161.0000 1.0000
59.1200 156.0000 1.0000
59.1400 130.0000 1.0000
59.1600 164.0000 1.0000
59.1800 160.0000 1.0000
59.2000 147.0000 1.0000
59.2200 154.0000 1.0000
59.2400 148.0000 1.0000
59.2600 151.0000 1.0000
59.2800 178.0000 1.0000
59.3000 159.0000 1.0000
59.3200 139.0000 1.0000
59.3400 146.0000 1.0000
59.3600 156.0000 1.0000
59.3800 159.0000 1.0000
59.4000 164.0000 1.0000
59.4200 175.0000 1.0000
59.4400 176.0000 1.0000
59.4600 175.0000 1.0000
59.4800 164.0000 1.0000
59.5000 190.0000 1.0000
59.5200 190.0000 1.0000
59.5400 220.0000 1.0000
59.5600 266.0000 1.0000
59.5800 256.0000 1.0000
59.6000 287.0000 1.0000
59.6200 248.0000 1.0000
59.6400 262.0000 1.0000
59.6600 284.0000 1.0000
59.6800 312.0000 1.0000
59.7000 396.0000 1.0000
59.7200 480.0000 1.0000
59.7400 538.0000 1.0000
59.7600 590.0000 1.0000
59.7800 694.0000 1.0000
59.8000 851.0000 1.0000
59.8200 919.0000 1.0000
59.8400 821.0000 1.0000
59.8600 862.0000 1.0000
59.8800 773.0000 1.0000
59.9000 672.0000 1.0000
59.9200 608.0000 1.0000
59.9400 574.0000 1.0000
59.9600 542.0000 1.0000
59.9800 594.0000 1.0000
60.0000 566.0000 1.0000
60.0200 514.0000 1.0000
60.0400 432.0000 1.0000
60.0600 343.0000 1.0000
60.0800 286.0000 1.0000
60.1000 265.0000 1.0000
60.1200 232.0000 1.0000
60.1400 222.0000 1.0000
60.1600 199.0000 1.0000
60.1800 184.0000 1.0000
60.2000 188.0000 1.0000
60.2200 203.0000 1.0000
60.2400 158.0000 1.0000
60.2600 178.0000 1.0000
60.2800 174.0000 1.0000
60.3000 178.0000 1.0000
60.3200 185.0000 1.0000
60.3400 185.0000 1.0000
60.3600 169.0000 1.0000
60.3800 159.0000 1.0000
60.4000 177.0000 1.0000
60.4200 216.0000 1.0000
60.4400 177.0000 1.0000
60.4600 180.0000 1.0000
60.4800 177.0000 1.0000
60.5000 175.0000 1.0000
60.5200 187.0000 1.0000
60.5400 181.0000 1.0000
60.5600 200.0000 1.0000
60.5800 165.0000 1.0000
60.6000 172.0000 1.0000
60.6200 183.0000 1.0000
60.6400 175.0000 1.0000
60.6600 165.0000 1.0000
60.6800 178.0000 1.0000
60.7000 184.0000 1.0000
60.7200 168.0000 1.0000
60.7400 167.0000 1.0000
60.7600 151.0000 1.0000
60.7800 142.0000 1.0000
60.8000 170.0000 1.0000
60.8200 174.0000 1.0000
60.8400 158.0000 1.0000
60.8600 173.0000 1.0000
60.8800 193.0000 1.0000
60.9000 192.0000 1.0000
60.9200 206.0000 1.0000
60.9400 177.0000 1.0000
60.9600 211.0000 1.0000
60.9800 217.0000 1.0000
61.0000 256.0000 1.0000
61.0200 228.0000 1.0000
61.0400 207.0000 1.0000
61.0600 242.0000 1.0000
61.0800 253.0000 1.0000
61.1000 265.0000 1.0000
61.1200 288.0000 1.0000
61.1400 302.0000 1.0000
61.1600 306.0000 1.0000
61.1800 329.0000 1.0000
61.2000 369.0000 1.0000
61.2200 307.0000 1.0000
61.2400 347.0000 1.0000
61.2600 320.0000 1.0000
61.2800 307.0000 1.0000
61.3000 337.0000 1.0000
61.3200 340.0000 1.0000
61.3400 313.0000 1.0000
61.3600 316.0000 1.0000
61.3800 292.0000 1.0000
61.4000 274.0000 1.0000
61.4200 313.0000 1.0000
61.4400 288.0000 1.0000
61.4600 296.0000 1.0000
61.4800 263.0000 1.0000
61.5000 260.0000 1.0000
61.5200 259.0000 1.0000
61.5400 233.0000 1.0000
61.5600 221.0000 1.0000
61.5800 228.0000 1.0000
61.6000 216.0000 1.0000
61.6200 242.0000 1.0000
61.6400 200.0000 1.0000
61.6600 220.0000 1.0000
61.6800 202.0000 1.0000
61.7000 186.0000 1.0000
61.7200 195.0000 1.0000
61.7400 202.0000 1.0000
61.7600 196.0000 1.0000
61.7800 187.0000 1.0000
61.8000 192.0000 1.0000
61.8200 202.0000 1.0000
61.8400 175.0000 1.0000
61.8600 178.0000 1.0000
61.8800 207.0000 1.0000
61.9000 164.0000 1.0000
61.9200 174.0000 1.0000
61.9400 145.0000 1.0000
61.9600 180.0000 1.0000
61.9800 166.0000 1.0000
62.0000 133.0000 1.0000
62.0200 153.0000 1.0000
62.0400 161.0000 1.0000
62.0600 161.0000 1.0000
62.0800 141.0000 1.0000
62.1000 157.0000 1.0000
62.1200 164.0000 1.0000
62.1400 159.0000 1.0000
62.1600 157.0000 1.0000
62.1800 133.0000 1.0000
62.2000 159.0000 1.0000
62.2200 152.0000 1.0000
62.2400 127.0000 1.0000
62.2600 124.0000 1.0000
62.2800 141.0000 1.0000
62.3000 142.0000 1.0000
62.3200 152.0000 1.0000
62.3400 141.0000 1.0000
62.3600 141.0000 1.0000
62.3800 123.0000 1.0000
62.4000 134.0000 1.0000
62.4200 149.0000 1.0000
62.4400 118.0000 1.0000
62.4600 124.0000 1.0000
62.4800 146.0000 1.0000
62.5000 130.0000 1.0000
62.5200 147.0000 1.0000
62.5400 136.0000 1.0000
62.5600 137.0000 1.0000
62.5800 141.0000 1.0000
62.6000 122.0000 1.0000
62.6200 128.0000 1.0000
62.6400 128.0000 1.0000
62.6600 126.0000 1.0000
62.6800 145.0000 1.0000
62.7000 132.0000 1.0000
62.7200 137.0000 1.0000
62.7400 137.0000 1.0000
62.7600 115.0000 1.0000
62.7800 124.0000 1.0000
62.8000 122.0000 1.0000
62.8200 116.0000 1.0000
62.8400 104.0000 1.0000
62.8600 115.0000 1.0000
62.8800 123.0000 1.0000
62.9000 125.0000 1.0000
62.9200 125.0000 1.0000
62.9400 124.0000 1.0000
62.9600 135.0000 1.0000
62.9800 135.0000 1.0000
63.0000 108.0000 1.0000
63.0200 125.0000 1.0000
63.0400 132.0000 1.0000
63.0600 130.0000 1.0000
63.0800 127.0000 1.0000
63.1000 124.0000 1.0000
63.1200 118.0000 1.0000
63.1400 114.0000 1.0000
63.1600 117.0000 1.0000
63.1800 120.0000 1.0000
63.2000 137.0000 1.0000
63.2200 123.0000 1.0000
63.2400 122.0000 1.0000
63.2600 134.0000 1.0000
63.2800 155.0000 1.0000
63.3000 149.0000 1.0000
63.3200 145.0000 1.0000
63.3400 163.0000 1.0000
63.3600 145.0000 1.0000
63.3800 158.0000 1.0000
63.4000 144.0000 1.0000
63.4200 158.0000 1.0000
63.4400 158.0000 1.0000
63.4600 150.0000 1.0000
63.4800 161.0000 1.0000
63.5000 172.0000 1.0000
63.5200 186.0000 1.0000
63.5400 178.0000 1.0000
63.5600 169.0000 1.0000
63.5800 168.0000 1.0000
63.6000 162.0000 1.0000
63.6200 167.0000 1.0000
63.6400 201.0000 1.0000
63.6600 191.0000 1.0000
63.6800 183.0000 1.0000
63.7000 194.0000 1.0000
63.7200 203.0000 1.0000
63.7400 192.0000 1.0000
63.7600 226.0000 1.0000
63.7800 209.0000 1.0000
63.8000 216.0000 1.0000
63.8200 255.0000 1.0000
63.8400 260.0000 1.0000
63.8600 277.0000 1.0000
63.8800 284.0000 1.0000
63.9000 286.0000 1.0000
63.9200 288.0000 1.0000
63.9400 267.0000 1.0000
63.9600 241.0000 1.0000
63.9800 232.0000 1.0000
64.0000 223.0000 1.0000
64.0200 238.0000 1.0000
64.0400 234.0000 1.0000
64.0600 236.0000 1.0000
64.0800 228.0000 1.0000
64.1000 195.0000 1.0000
64.1200 201.0000 1.0000
64.1400 186.0000 1.0000
64.1600 156.0000 1.0000
64.1800 154.0000 1.0000
64.2000 159.0000 1.0000
64.2200 147.0000 1.0000
64.2400 130.0000 1.0000
64.2600 138.0000 1.0000
64.2800 139.0000 1.0000
64.3000 139.0000 1.0000
64.3200 148.0000 1.0000
64.3400 146.0000 1.0000
64.3600 142.0000 1.0000
64.3800 140.0000 1.0000
64.4000 141.0000 1.0000
64.4200 129.0000 1.0000
64.4400 139.0000 1.0000
64.4600 139.0000 1.0000
64.4800 137.0000 1.0000
64.5000 148.0000 1.0000
64.5200 157.0000 1.0000
64.5400 162.0000 1.0000
64.5600 149.0000 1.0000
64.5800 140.0000 1.0000
64.6000 139.0000 1.0000
64.6200 150.0000 1.0000
64.6400 147.0000 1.0000
64.6600 165.0000 1.0000
64.6800 153.0000 1.0000
64.7000 140.0000 1.0000
64.7200 162.0000 1.0000
64.7400 172.0000 1.0000
64.7600 166.0000 1.0000
64.7800 159.0000 1.0000
64.8000 161.0000 1.0000
64.8200 155.0000 1.0000
64.8400 153.0000 1.0000
64.8600 156.0000 1.0000
64.8800 168.0000 1.0000
64.9000 173.0000 1.0000
64.9200 180.0000 1.0000
64.9400 156.0000 1.0000
64.9600 146.0000 1.0000
64.9800 146.0000 1.0000
65.0000 146.0000 1.0000
*RAS_INT_END
*RAS_DATA_END
