*RAS_DATA_START
*RAS_HEADER_START
*CORR_POS_DB_NAME "Angle Correction ASC6 SC WITH Mono_04082019"
*CORR_POS_GONIO_RADIUS ""
*CORR_POS_NODE_INDEX01 ""
*CORR_POS_NODE_INDEX02 ""
*CORR_POS_NODE_INDEX03 ""
*CORR_POS_NODE_INDEX04 ""
*CORR_POS_NODE_INDEX05 ""
*CORR_POS_NODE_INDEX06 ""
*CORR_POS_NODE_INDEX07 ""
*CORR_POS_NODE_INDEX08 ""
*CORR_POS_NODE_INDEX09 ""
*CORR_POS_NODE_INDEX10 ""
*CORR_POS_NODE_INDEX11 ""
*CORR_POS_NODE_LABEL01 "Si(111)"
*CORR_POS_NODE_LABEL02 "Si(220)"
*CORR_POS_NODE_LABEL03 "Si(311)"
*CORR_POS_NODE_LABEL04 "Si(400)"
*CORR_POS_NODE_LABEL05 "Si(331)"
*CORR_POS_NODE_LABEL06 "Si(422)"
*CORR_POS_NODE_LABEL07 "Si(511)"
*CORR_POS_NODE_LABEL08 "Si(440)"
*CORR_POS_NODE_LABEL09 "Si(531)"
*CORR_POS_NODE_LABEL10 "Si(620)"
*CORR_POS_NODE_LABEL11 "Si(533)"
*CORR_POS_NODE_POS_CALC01 "28.377"
*CORR_POS_NODE_POS_CALC02 "47.2506"
*CORR_POS_NODE_POS_CALC03 "56.0725"
*CORR_POS_NODE_POS_CALC04 "69.0822"
*CORR_POS_NODE_POS_CALC05 "76.3294"
*CORR_POS_NODE_POS_CALC06 "87.9853"
*CORR_POS_NODE_POS_CALC07 "94.9091"
*CORR_POS_NODE_POS_CALC08 "106.668"
*CORR_POS_NODE_POS_CALC09 "114.054"
*CORR_POS_NODE_POS_CALC10 "127.511"
*CORR_POS_NODE_POS_CALC11 "136.864"
*CORR_POS_NODE_POS_MEAS01 "28.5058"
*CORR_POS_NODE_POS_MEAS02 "47.345"
*CORR_POS_NODE_POS_MEAS03 "56.1421"
*CORR_POS_NODE_POS_MEAS04 "69.1304"
*CORR_POS_NODE_POS_MEAS05 "76.366"
*CORR_POS_NODE_POS_MEAS06 "88.0213"
*CORR_POS_NODE_POS_MEAS07 "94.9406"
*CORR_POS_NODE_POS_MEAS08 "106.689"
*CORR_POS_NODE_POS_MEAS09 "114.065"
*CORR_POS_NODE_POS_MEAS10 "127.518"
*CORR_POS_NODE_POS_MEAS11 "136.869"
*CORR_POS_OPT_ATTR "集中法"
*CORR_POS_PARAM_MU ""
*CORR_POS_PARAM_PL ""
*CORR_POS_SEMODEL_TYPE "0"
*CORR_POS_STANDARD_TYPE ""
*CORR_POS_VALUE_ANALYZER "None"
*CORR_POS_VALUE_CMONO "None"
*CORR_POS_VALUE_IMONO "None"
*CORR_POS_VALUE_IS "1.250deg"
*CORR_POS_VALUE_ISL "10.0mm"
*CORR_POS_VALUE_ISOLLER "5.0deg"
*CORR_POS_VALUE_RS1 "1.250deg"
*CORR_POS_VALUE_RS2 "0.3mm"
*CORR_POS_VALUE_RSOLLER "5.0deg"
*CORR_POS_XG_FOCUS_L ""
*CORR_POS_XG_WAVE_TYPE ""
*CORR_POS_XG_WAVE_VALUE ""
*DISP_FMT_X "%.2f"
*DISP_FMT_Y "%.0f"
*DISP_FULLSCALE "7232.4000000000"
*DISP_LINE_COLOR "255.0000000000"
*DISP_LINE_STYLE "0.0000000000"
*DISP_LINE_WIDTH "0.2500000000"
*DISP_NOTE "Collected Data-27"
*DISP_OFFSET_Y "0.0000000000"
*DISP_PEAKSEARCH_UNIT_Y "CPS"
*DISP_RANGE_BOTTOM "0.0000000000"
*DISP_RANGE_LEFT "5.0000000000"
*DISP_RANGE_LOGCUTOFF "0.0100000000"
*DISP_RANGE_RIGHT "65.0000000000"
*DISP_RANGE_TOP "7232.4000000000"
*DISP_SCALE_MODE_Y "0.0000000000"
*DISP_TAB_NAME "Theta/2-Theta"
*DISP_TITLE_Y "Intensity"
*DISP_UNIT_Y "CPS"
*DISP_WINDOW_NAME "MSG_MACROENGINE"
*FILE_COMMENT " "
*FILE_MD5 ""
*FILE_MEMO " "
*FILE_OPERATOR "Administrator"
*FILE_PART_ID "MEAS_PBEA_00223"
*FILE_SAMPLE " "
*FILE_TYPE "RAS_RAW"
*FILE_USERGROUP "System Manager"
*FILE_VERSION "1.0000000000"
*HW_ATTACHMENT_ID "ATT1031"
*HW_ATTACHMENT_NAME "6サンプルチェンジャ|ASC-6"
*HW_COUNTER_ID-0 "CUT0021"
*HW_COUNTER_ID-1 "CUT0020"
*HW_COUNTER_ID-2 "CUT0020"
*HW_COUNTER_ID-3 "CMC0021"
*HW_COUNTER_NAME-0 "SC-70|SC-70"
*HW_COUNTER_NAME-1 "None|None"
*HW_COUNTER_NAME-2 "None|None"
*HW_COUNTER_NAME-3 "検出器モノクロメータ|Detector monochromator"
*HW_COUNTER_SELECT_NAME "SC-70|SC-70"
*HW_ECP_HV "671.5000000000"
*HW_ECP_HV_UNIT "V"
*HW_GONIOMETER_ID "GON0070"
*HW_GONIOMETER_NAME "MiniFlex 300/600|MiniFlex 300/600"
*HW_GONIOMETER_RADIUS-0 "79.0"
*HW_GONIOMETER_RADIUS-1 "91.5"
*HW_GONIOMETER_RADIUS-2 "150.0"
*HW_GONIOMETER_RADIUS-3 "0"
*HW_GONIOMETER_RADIUS-4 "103.4"
*HW_GONIOMETER_RADIUS-5 "150.0"
*HW_GONIOMETER_RADIUS-6 "46.6"
*HW_GONIOMETER_RADIUS-7 "160.0"
*HW_I_OPT_ID-0 "ISL0021"
*HW_I_OPT_ID-1 "ISO0021"
*HW_I_OPT_NAME-0 "発散スリット|Divergence slit"
*HW_I_OPT_NAME-1 "入射平行スリット|Incident parallel slit"
*HW_R_ATTENUATER_AUTOMODE "0"
*HW_R_OPT_ID-0 "RSS0021"
*HW_R_OPT_ID-1 "RSO0021"
*HW_R_OPT_ID-2 "RRS0021"
*HW_R_OPT_NAME-0 "散乱スリット|Scattering slit"
*HW_R_OPT_NAME-1 "受光平行スリット|Receiving soller slit"
*HW_R_OPT_NAME-2 "受光スリット|Receiving slit"
*HW_SAMPLE_HOLDER_ID "SMP0000"
*HW_SAMPLE_HOLDER_NAME "無し|None"
*HW_XG_CURRENT_MAX "15"
*HW_XG_CURRENT_MIN "2"
*HW_XG_CURRENT_RESOLUTION "1"
*HW_XG_CURRENT_UNIT "mA"
*HW_XG_FOCUS "1mm x 10mm"
*HW_XG_FOCUS_TYPE "Normal"
*HW_XG_ID "1060"
*HW_XG_NAME "300W/600W 封入管-B|300W/600W Sealed tube-B"
*HW_XG_TARGET_ATOMIC_NUMBER "29.0000000000"
*HW_XG_TARGET_NAME "Cu"
*HW_XG_TYPE "Hermetic"
*HW_XG_VOLTAGE_MAX "40"
*HW_XG_VOLTAGE_MIN "20"
*HW_XG_VOLTAGE_RESOLUTION "1"
*HW_XG_VOLTAGE_UNIT "kV"
*HW_XG_WATT_MAX "0.600"
*HW_XG_WATT_UNIT "kW"
*HW_XG_WAVE_LENGTH_ALPHA1 "1.540593"
*HW_XG_WAVE_LENGTH_ALPHA2 "1.544414"
*HW_XG_WAVE_LENGTH_BETA "1.392250"
*MEAS_COND_AXIS_NAME-0 "Theta/2-Theta"
*MEAS_COND_AXIS_NAME-1 "Spin"
*MEAS_COND_AXIS_NAME-2 "Change"
*MEAS_COND_AXIS_NAME-3 "Soller(inc.)"
*MEAS_COND_AXIS_NAME-4 "IHS"
*MEAS_COND_AXIS_NAME-5 "DS"
*MEAS_COND_AXIS_NAME-6 "SS"
*MEAS_COND_AXIS_NAME-7 "Soller(rec.)"
*MEAS_COND_AXIS_NAME-8 "RS"
*MEAS_COND_AXIS_NAME-9 "Filter"
*MEAS_COND_AXIS_NAME-10 "Monochromator"
*MEAS_COND_AXIS_NAME-11 "HV"
*MEAS_COND_AXIS_NAME-12 "PHA"
*MEAS_COND_AXIS_NAME_INTERNAL-0 "TwoThetaTheta"
*MEAS_COND_AXIS_NAME_INTERNAL-1 "Spin"
*MEAS_COND_AXIS_NAME_INTERNAL-2 "Change"
*MEAS_COND_AXIS_NAME_INTERNAL-3 "IncidentSollerSlit"
*MEAS_COND_AXIS_NAME_INTERNAL-4 "IncidentAxdSlit"
*MEAS_COND_AXIS_NAME_INTERNAL-5 "IncidentSlitBox"
*MEAS_COND_AXIS_NAME_INTERNAL-6 "ReceivingSlitBox1"
*MEAS_COND_AXIS_NAME_INTERNAL-7 "ReceivingSollerSlit"
*MEAS_COND_AXIS_NAME_INTERNAL-8 "ReceivingSlitBox2"
*MEAS_COND_AXIS_NAME_INTERNAL-9 "Filter"
*MEAS_COND_AXIS_NAME_INTERNAL-10 "CounterMonochromator"
*MEAS_COND_AXIS_NAME_INTERNAL-11 "HV"
*MEAS_COND_AXIS_NAME_INTERNAL-12 "PHA"
*MEAS_COND_AXIS_NAME_MAGICNO-0 "268632064.0000000000"
*MEAS_COND_AXIS_NAME_MAGICNO-1 "16842752.0000000000"
*MEAS_COND_AXIS_NAME_MAGICNO-2 "16842752.0000000000"
*MEAS_COND_AXIS_NAME_MAGICNO-3 "20971521.0000000000"
*MEAS_COND_AXIS_NAME_MAGICNO-4 "22020097.0000000000"
*MEAS_COND_AXIS_NAME_MAGICNO-5 "22020097.0000000000"
*MEAS_COND_AXIS_NAME_MAGICNO-6 "23068673.0000000000"
*MEAS_COND_AXIS_NAME_MAGICNO-7 "20971521.0000000000"
*MEAS_COND_AXIS_NAME_MAGICNO-8 "23068673.0000000000"
*MEAS_COND_AXIS_NAME_MAGICNO-9 "20971521.0000000000"
*MEAS_COND_AXIS_NAME_MAGICNO-10 "20971521.0000000000"
*MEAS_COND_AXIS_NAME_MAGICNO-11 "0.0000000000"
*MEAS_COND_AXIS_NAME_MAGICNO-12 "0.0000000000"
*MEAS_COND_AXIS_OFFSET-0 "0.0000000000"
*MEAS_COND_AXIS_OFFSET-1 "-"
*MEAS_COND_AXIS_OFFSET-2 "-"
*MEAS_COND_AXIS_OFFSET-3 "-"
*MEAS_COND_AXIS_OFFSET-4 "-"
*MEAS_COND_AXIS_OFFSET-5 "-"
*MEAS_COND_AXIS_OFFSET-6 "-"
*MEAS_COND_AXIS_OFFSET-7 "-"
*MEAS_COND_AXIS_OFFSET-8 "-"
*MEAS_COND_AXIS_OFFSET-9 "-"
*MEAS_COND_AXIS_OFFSET-10 "-"
*MEAS_COND_AXIS_OFFSET-11 "-"
*MEAS_COND_AXIS_OFFSET-12 "-"
*MEAS_COND_AXIS_POSITION-0 "10.0000000000"
*MEAS_COND_AXIS_POSITION-1 "0.0000000000"
*MEAS_COND_AXIS_POSITION-2 "1.0000000000"
*MEAS_COND_AXIS_POSITION-3 "5.0deg"
*MEAS_COND_AXIS_POSITION-4 "10.0mm"
*MEAS_COND_AXIS_POSITION-5 "1.250deg"
*MEAS_COND_AXIS_POSITION-6 "1.250deg"
*MEAS_COND_AXIS_POSITION-7 "5.0deg"
*MEAS_COND_AXIS_POSITION-8 "0.3mm"
*MEAS_COND_AXIS_POSITION-9 "None"
*MEAS_COND_AXIS_POSITION-10 "Bent"
*MEAS_COND_AXIS_POSITION-11 "671.5000000000"
*MEAS_COND_AXIS_POSITION-12 "551.2500000000"
*MEAS_COND_AXIS_UNIT-0 "deg"
*MEAS_COND_AXIS_UNIT-1 ""
*MEAS_COND_AXIS_UNIT-2 ""
*MEAS_COND_AXIS_UNIT-3 ""
*MEAS_COND_AXIS_UNIT-4 ""
*MEAS_COND_AXIS_UNIT-5 ""
*MEAS_COND_AXIS_UNIT-6 ""
*MEAS_COND_AXIS_UNIT-7 ""
*MEAS_COND_AXIS_UNIT-8 ""
*MEAS_COND_AXIS_UNIT-9 ""
*MEAS_COND_AXIS_UNIT-10 ""
*MEAS_COND_AXIS_UNIT-11 "V"
*MEAS_COND_AXIS_UNIT-12 "mV"
*MEAS_COND_CORRECTION_SLIT_COUNTERMONO "None"
*MEAS_COND_CORRECTION_SLIT_DS "1.250deg"
*MEAS_COND_CORRECTION_SLIT_FILTER "None"
*MEAS_COND_CORRECTION_SLIT_IHS "10.0mm"
*MEAS_COND_CORRECTION_SLIT_RS "0.3mm"
*MEAS_COND_CORRECTION_SLIT_SOLLER_INC "5.0deg"
*MEAS_COND_CORRECTION_SLIT_SOLLER_REC "5.0deg"
*MEAS_COND_CORRECTION_SLIT_SS "1.250deg"
*MEAS_COND_COUNTER_CNTLOSS_CORR "0.0000000000"
*MEAS_COND_COUNTER_PHABASE "551.2500000000"
*MEAS_COND_COUNTER_PHAWINDOW "926.2500000000"
*MEAS_COND_COUNTER_PHA_UNIT "mV"
*MEAS_COND_COUNTER_TAUDIFF "0.2500000000"
*MEAS_COND_COUNTER_TAUINT "0.7500000000"
*MEAS_COND_IRRADIATION_MODE "OFF"
*MEAS_COND_IRRADIATION_WIDTH ""
*MEAS_COND_OPT_ATTR " "
*MEAS_COND_OPT_NAME ""
*MEAS_COND_UNSYMMETRIC_MODE "OFF"
*MEAS_COND_XG_CURRENT "15.0000000000"
*MEAS_COND_XG_VOLTAGE "40.0000000000"
*MEAS_COND_XG_WAVE_TYPE "Ka"
*MEAS_DATA_COUNT "3001.0000000000"
*MEAS_SCAN_AXIS_X "Theta/2-Theta"
*MEAS_SCAN_AXIS_X_INTERNAL "TwoThetaTheta"
*MEAS_SCAN_END_TIME "05/08/25 20:16:34"
*MEAS_SCAN_MODE "STEP"
*MEAS_SCAN_MONITOR "0"
*MEAS_SCAN_RESOLUTION_X "0.0025"
*MEAS_SCAN_SPEED "2.00"
*MEAS_SCAN_SPEED_UNIT "sec."
*MEAS_SCAN_SPEED_USER "2.00"
*MEAS_SCAN_START "5.0000000000"
*MEAS_SCAN_START_TIME "05/08/25 18:31:23"
*MEAS_SCAN_STEP "0.0200000000"
*MEAS_SCAN_STOP "65.0000000000"
*MEAS_SCAN_UNIT_X "deg"
*MEAS_SCAN_UNIT_Y "counts"
*SLIT_SYSTEM "0"
*RAS_HEADER_END
*RAS_INT_START
5.0000 1001.0000 1.0000
5.0200 919.0000 1.0000
5.0400 852.0000 1.0000
5.0600 889.0000 1.0000
5.0800 886.0000 1.0000
5.1000 897.0000 1.0000
5.1200 839.0000 1.0000
5.1400 817.0000 1.0000
5.1600 832.0000 1.0000
5.1800 779.0000 1.0000
5.2000 869.0000 1.0000
5.2200 880.0000 1.0000
5.2400 930.0000 1.0000
5.2600 802.0000 1.0000
5.2800 831.0000 1.0000
5.3000 793.0000 1.0000
5.3200 818.0000 1.0000
5.3400 811.0000 1.0000
5.3600 843.0000 1.0000
5.3800 764.0000 1.0000
5.4000 785.0000 1.0000
5.4200 848.0000 1.0000
5.4400 790.0000 1.0000
5.4600 831.0000 1.0000
5.4800 804.0000 1.0000
5.5000 798.0000 1.0000
5.5200 734.0000 1.0000
5.5400 785.0000 1.0000
5.5600 799.0000 1.0000
5.5800 723.0000 1.0000
5.6000 750.0000 1.0000
5.6200 734.0000 1.0000
5.6400 765.0000 1.0000
5.6600 729.0000 1.0000
5.6800 733.0000 1.0000
5.7000 711.0000 1.0000
5.7200 770.0000 1.0000
5.7400 765.0000 1.0000
5.7600 781.0000 1.0000
5.7800 733.0000 1.0000
5.8000 763.0000 1.0000
5.8200 706.0000 1.0000
5.8400 755.0000 1.0000
5.8600 711.0000 1.0000
5.8800 756.0000 1.0000
5.9000 798.0000 1.0000
5.9200 792.0000 1.0000
5.9400 767.0000 1.0000
5.9600 796.0000 1.0000
5.9800 796.0000 1.0000
6.0000 844.0000 1.0000
6.0200 810.0000 1.0000
6.0400 841.0000 1.0000
6.0600 894.0000 1.0000
6.0800 820.0000 1.0000
6.1000 808.0000 1.0000
6.1200 824.0000 1.0000
6.1400 739.0000 1.0000
6.1600 691.0000 1.0000
6.1800 644.0000 1.0000
6.2000 684.0000 1.0000
6.2200 649.0000 1.0000
6.2400 584.0000 1.0000
6.2600 552.0000 1.0000
6.2800 598.0000 1.0000
6.3000 584.0000 1.0000
6.3200 588.0000 1.0000
6.3400 651.0000 1.0000
6.3600 634.0000 1.0000
6.3800 588.0000 1.0000
6.4000 575.0000 1.0000
6.4200 588.0000 1.0000
6.4400 580.0000 1.0000
6.4600 544.0000 1.0000
6.4800 579.0000 1.0000
6.5000 575.0000 1.0000
6.5200 573.0000 1.0000
6.5400 540.0000 1.0000
6.5600 532.0000 1.0000
6.5800 551.0000 1.0000
6.6000 552.0000 1.0000
6.6200 553.0000 1.0000
6.6400 554.0000 1.0000
6.6600 569.0000 1.0000
6.6800 573.0000 1.0000
6.7000 544.0000 1.0000
6.7200 498.0000 1.0000
6.7400 549.0000 1.0000
6.7600 530.0000 1.0000
6.7800 485.0000 1.0000
6.8000 516.0000 1.0000
6.8200 515.0000 1.0000
6.8400 522.0000 1.0000
6.8600 528.0000 1.0000
6.8800 491.0000 1.0000
6.9000 466.0000 1.0000
6.9200 510.0000 1.0000
6.9400 536.0000 1.0000
6.9600 521.0000 1.0000
6.9800 498.0000 1.0000
7.0000 502.0000 1.0000
7.0200 511.0000 1.0000
7.0400 488.0000 1.0000
7.0600 468.0000 1.0000
7.0800 475.0000 1.0000
7.1000 447.0000 1.0000
7.1200 470.0000 1.0000
7.1400 481.0000 1.0000
7.1600 501.0000 1.0000
7.1800 505.0000 1.0000
7.2000 444.0000 1.0000
7.2200 463.0000 1.0000
7.2400 495.0000 1.0000
7.2600 484.0000 1.0000
7.2800 475.0000 1.0000
7.3000 494.0000 1.0000
7.3200 495.0000 1.0000
7.3400 481.0000 1.0000
7.3600 452.0000 1.0000
7.3800 453.0000 1.0000
7.4000 467.0000 1.0000
7.4200 451.0000 1.0000
7.4400 492.0000 1.0000
7.4600 493.0000 1.0000
7.4800 412.0000 1.0000
7.5000 426.0000 1.0000
7.5200 440.0000 1.0000
7.5400 416.0000 1.0000
7.5600 437.0000 1.0000
7.5800 424.0000 1.0000
7.6000 418.0000 1.0000
7.6200 427.0000 1.0000
7.6400 435.0000 1.0000
7.6600 439.0000 1.0000
7.6800 426.0000 1.0000
7.7000 429.0000 1.0000
7.7200 450.0000 1.0000
7.7400 447.0000 1.0000
7.7600 469.0000 1.0000
7.7800 475.0000 1.0000
7.8000 431.0000 1.0000
7.8200 401.0000 1.0000
7.8400 412.0000 1.0000
7.8600 452.0000 1.0000
7.8800 446.0000 1.0000
7.9000 437.0000 1.0000
7.9200 462.0000 1.0000
7.9400 478.0000 1.0000
7.9600 411.0000 1.0000
7.9800 412.0000 1.0000
8.0000 437.0000 1.0000
8.0200 450.0000 1.0000
8.0400 430.0000 1.0000
8.0600 433.0000 1.0000
8.0800 456.0000 1.0000
8.1000 454.0000 1.0000
8.1200 474.0000 1.0000
8.1400 454.0000 1.0000
8.1600 490.0000 1.0000
8.1800 523.0000 1.0000
8.2000 506.0000 1.0000
8.2200 482.0000 1.0000
8.2400 535.0000 1.0000
8.2600 559.0000 1.0000
8.2800 557.0000 1.0000
8.3000 624.0000 1.0000
8.3200 633.0000 1.0000
8.3400 636.0000 1.0000
8.3600 673.0000 1.0000
8.3800 620.0000 1.0000
8.4000 712.0000 1.0000
8.4200 748.0000 1.0000
8.4400 793.0000 1.0000
8.4600 808.0000 1.0000
8.4800 886.0000 1.0000
8.5000 936.0000 1.0000
8.5200 980.0000 1.0000
8.5400 1131.0000 1.0000
8.5600 1218.0000 1.0000
8.5800 1361.0000 1.0000
8.6000 1527.0000 1.0000
8.6200 1667.0000 1.0000
8.6400 1925.0000 1.0000
8.6600 2099.0000 1.0000
8.6800 2166.0000 1.0000
8.7000 2238.0000 1.0000
8.7200 2012.0000 1.0000
8.7400 1712.0000 1.0000
8.7600 1297.0000 1.0000
8.7800 941.0000 1.0000
8.8000 684.0000 1.0000
8.8200 551.0000 1.0000
8.8400 442.0000 1.0000
8.8600 399.0000 1.0000
8.8800 391.0000 1.0000
8.9000 374.0000 1.0000
8.9200 333.0000 1.0000
8.9400 318.0000 1.0000
8.9600 309.0000 1.0000
8.9800 298.0000 1.0000
9.0000 326.0000 1.0000
9.0200 356.0000 1.0000
9.0400 335.0000 1.0000
9.0600 324.0000 1.0000
9.0800 315.0000 1.0000
9.1000 296.0000 1.0000
9.1200 314.0000 1.0000
9.1400 307.0000 1.0000
9.1600 263.0000 1.0000
9.1800 267.0000 1.0000
9.2000 280.0000 1.0000
9.2200 280.0000 1.0000
9.2400 265.0000 1.0000
9.2600 268.0000 1.0000
9.2800 226.0000 1.0000
9.3000 285.0000 1.0000
9.3200 321.0000 1.0000
9.3400 274.0000 1.0000
9.3600 254.0000 1.0000
9.3800 271.0000 1.0000
9.4000 245.0000 1.0000
9.4200 246.0000 1.0000
9.4400 269.0000 1.0000
9.4600 251.0000 1.0000
9.4800 256.0000 1.0000
9.5000 236.0000 1.0000
9.5200 267.0000 1.0000
9.5400 245.0000 1.0000
9.5600 256.0000 1.0000
9.5800 258.0000 1.0000
9.6000 224.0000 1.0000
9.6200 260.0000 1.0000
9.6400 221.0000 1.0000
9.6600 250.0000 1.0000
9.6800 255.0000 1.0000
9.7000 254.0000 1.0000
9.7200 235.0000 1.0000
9.7400 246.0000 1.0000
9.7600 272.0000 1.0000
9.7800 231.0000 1.0000
9.8000 267.0000 1.0000
9.8200 238.0000 1.0000
9.8400 230.0000 1.0000
9.8600 191.0000 1.0000
9.8800 206.0000 1.0000
9.9000 196.0000 1.0000
9.9200 252.0000 1.0000
9.9400 226.0000 1.0000
9.9600 250.0000 1.0000
9.9800 238.0000 1.0000
10.0000 213.0000 1.0000
10.0200 229.0000 1.0000
10.0400 220.0000 1.0000
10.0600 236.0000 1.0000
10.0800 248.0000 1.0000
10.1000 235.0000 1.0000
10.1200 229.0000 1.0000
10.1400 229.0000 1.0000
10.1600 265.0000 1.0000
10.1800 290.0000 1.0000
10.2000 231.0000 1.0000
10.2200 241.0000 1.0000
10.2400 239.0000 1.0000
10.2600 261.0000 1.0000
10.2800 245.0000 1.0000
10.3000 265.0000 1.0000
10.3200 261.0000 1.0000
10.3400 239.0000 1.0000
10.3600 217.0000 1.0000
10.3800 227.0000 1.0000
10.4000 241.0000 1.0000
10.4200 217.0000 1.0000
10.4400 161.0000 1.0000
10.4600 206.0000 1.0000
10.4800 209.0000 1.0000
10.5000 230.0000 1.0000
10.5200 220.0000 1.0000
10.5400 213.0000 1.0000
10.5600 202.0000 1.0000
10.5800 201.0000 1.0000
10.6000 178.0000 1.0000
10.6200 211.0000 1.0000
10.6400 190.0000 1.0000
10.6600 191.0000 1.0000
10.6800 215.0000 1.0000
10.7000 229.0000 1.0000
10.7200 211.0000 1.0000
10.7400 205.0000 1.0000
10.7600 207.0000 1.0000
10.7800 189.0000 1.0000
10.8000 190.0000 1.0000
10.8200 200.0000 1.0000
10.8400 190.0000 1.0000
10.8600 205.0000 1.0000
10.8800 192.0000 1.0000
10.9000 226.0000 1.0000
10.9200 211.0000 1.0000
10.9400 191.0000 1.0000
10.9600 222.0000 1.0000
10.9800 184.0000 1.0000
11.0000 189.0000 1.0000
11.0200 209.0000 1.0000
11.0400 188.0000 1.0000
11.0600 205.0000 1.0000
11.0800 192.0000 1.0000
11.1000 192.0000 1.0000
11.1200 210.0000 1.0000
11.1400 180.0000 1.0000
11.1600 173.0000 1.0000
11.1800 174.0000 1.0000
11.2000 209.0000 1.0000
11.2200 168.0000 1.0000
11.2400 171.0000 1.0000
11.2600 191.0000 1.0000
11.2800 182.0000 1.0000
11.3000 164.0000 1.0000
11.3200 190.0000 1.0000
11.3400 201.0000 1.0000
11.3600 201.0000 1.0000
11.3800 174.0000 1.0000
11.4000 179.0000 1.0000
11.4200 187.0000 1.0000
11.4400 175.0000 1.0000
11.4600 191.0000 1.0000
11.4800 184.0000 1.0000
11.5000 163.0000 1.0000
11.5200 187.0000 1.0000
11.5400 180.0000 1.0000
11.5600 173.0000 1.0000
11.5800 142.0000 1.0000
11.6000 150.0000 1.0000
11.6200 158.0000 1.0000
11.6400 161.0000 1.0000
11.6600 162.0000 1.0000
11.6800 170.0000 1.0000
11.7000 179.0000 1.0000
11.7200 179.0000 1.0000
11.7400 193.0000 1.0000
11.7600 180.0000 1.0000
11.7800 173.0000 1.0000
11.8000 185.0000 1.0000
11.8200 207.0000 1.0000
11.8400 186.0000 1.0000
11.8600 207.0000 1.0000
11.8800 181.0000 1.0000
11.9000 171.0000 1.0000
11.9200 184.0000 1.0000
11.9400 186.0000 1.0000
11.9600 185.0000 1.0000
11.9800 176.0000 1.0000
12.0000 218.0000 1.0000
12.0200 218.0000 1.0000
12.0400 221.0000 1.0000
12.0600 216.0000 1.0000
12.0800 229.0000 1.0000
12.1000 240.0000 1.0000
12.1200 259.0000 1.0000
12.1400 231.0000 1.0000
12.1600 280.0000 1.0000
12.1800 273.0000 1.0000
12.2000 291.0000 1.0000
12.2200 335.0000 1.0000
12.2400 370.0000 1.0000
12.2600 375.0000 1.0000
12.2800 448.0000 1.0000
12.3000 464.0000 1.0000
12.3200 490.0000 1.0000
12.3400 474.0000 1.0000
12.3600 505.0000 1.0000
12.3800 462.0000 1.0000
12.4000 446.0000 1.0000
12.4200 369.0000 1.0000
12.4400 308.0000 1.0000
12.4600 230.0000 1.0000
12.4800 213.0000 1.0000
12.5000 209.0000 1.0000
12.5200 184.0000 1.0000
12.5400 185.0000 1.0000
12.5600 188.0000 1.0000
12.5800 170.0000 1.0000
12.6000 187.0000 1.0000
12.6200 160.0000 1.0000
12.6400 173.0000 1.0000
12.6600 158.0000 1.0000
12.6800 173.0000 1.0000
12.7000 159.0000 1.0000
12.7200 141.0000 1.0000
12.7400 153.0000 1.0000
12.7600 161.0000 1.0000
12.7800 162.0000 1.0000
12.8000 159.0000 1.0000
12.8200 168.0000 1.0000
12.8400 178.0000 1.0000
12.8600 167.0000 1.0000
12.8800 168.0000 1.0000
12.9000 178.0000 1.0000
12.9200 164.0000 1.0000
12.9400 158.0000 1.0000
12.9600 159.0000 1.0000
12.9800 166.0000 1.0000
13.0000 174.0000 1.0000
13.0200 151.0000 1.0000
13.0400 171.0000 1.0000
13.0600 179.0000 1.0000
13.0800 206.0000 1.0000
13.1000 220.0000 1.0000
13.1200 191.0000 1.0000
13.1400 177.0000 1.0000
13.1600 159.0000 1.0000
13.1800 159.0000 1.0000
13.2000 177.0000 1.0000
13.2200 167.0000 1.0000
13.2400 171.0000 1.0000
13.2600 168.0000 1.0000
13.2800 176.0000 1.0000
13.3000 180.0000 1.0000
13.3200 181.0000 1.0000
13.3400 180.0000 1.0000
13.3600 193.0000 1.0000
13.3800 225.0000 1.0000
13.4000 264.0000 1.0000
13.4200 257.0000 1.0000
13.4400 263.0000 1.0000
13.4600 272.0000 1.0000
13.4800 273.0000 1.0000
13.5000 280.0000 1.0000
13.5200 268.0000 1.0000
13.5400 264.0000 1.0000
13.5600 259.0000 1.0000
13.5800 258.0000 1.0000
13.6000 282.0000 1.0000
13.6200 286.0000 1.0000
13.6400 306.0000 1.0000
13.6600 333.0000 1.0000
13.6800 368.0000 1.0000
13.7000 369.0000 1.0000
13.7200 385.0000 1.0000
13.7400 331.0000 1.0000
13.7600 280.0000 1.0000
13.7800 247.0000 1.0000
13.8000 218.0000 1.0000
13.8200 195.0000 1.0000
13.8400 164.0000 1.0000
13.8600 165.0000 1.0000
13.8800 182.0000 1.0000
13.9000 170.0000 1.0000
13.9200 168.0000 1.0000
13.9400 169.0000 1.0000
13.9600 142.0000 1.0000
13.9800 135.0000 1.0000
14.0000 124.0000 1.0000
14.0200 136.0000 1.0000
14.0400 143.0000 1.0000
14.0600 138.0000 1.0000
14.0800 140.0000 1.0000
14.1000 122.0000 1.0000
14.1200 125.0000 1.0000
14.1400 132.0000 1.0000
14.1600 135.0000 1.0000
14.1800 129.0000 1.0000
14.2000 125.0000 1.0000
14.2200 116.0000 1.0000
14.2400 130.0000 1.0000
14.2600 134.0000 1.0000
14.2800 113.0000 1.0000
14.3000 110.0000 1.0000
14.3200 124.0000 1.0000
14.3400 124.0000 1.0000
14.3600 132.0000 1.0000
14.3800 143.0000 1.0000
14.4000 129.0000 1.0000
14.4200 134.0000 1.0000
14.4400 146.0000 1.0000
14.4600 142.0000 1.0000
14.4800 138.0000 1.0000
14.5000 138.0000 1.0000
14.5200 129.0000 1.0000
14.5400 136.0000 1.0000
14.5600 134.0000 1.0000
14.5800 141.0000 1.0000
14.6000 145.0000 1.0000
14.6200 143.0000 1.0000
14.6400 148.0000 1.0000
14.6600 158.0000 1.0000
14.6800 164.0000 1.0000
14.7000 167.0000 1.0000
14.7200 178.0000 1.0000
14.7400 189.0000 1.0000
14.7600 190.0000 1.0000
14.7800 199.0000 1.0000
14.8000 221.0000 1.0000
14.8200 222.0000 1.0000
14.8400 214.0000 1.0000
14.8600 205.0000 1.0000
14.8800 199.0000 1.0000
14.9000 197.0000 1.0000
14.9200 205.0000 1.0000
14.9400 193.0000 1.0000
14.9600 186.0000 1.0000
14.9800 180.0000 1.0000
15.0000 154.0000 1.0000
15.0200 148.0000 1.0000
15.0400 141.0000 1.0000
15.0600 133.0000 1.0000
15.0800 142.0000 1.0000
15.1000 145.0000 1.0000
15.1200 131.0000 1.0000
15.1400 116.0000 1.0000
15.1600 120.0000 1.0000
15.1800 121.0000 1.0000
15.2000 117.0000 1.0000
15.2200 119.0000 1.0000
15.2400 127.0000 1.0000
15.2600 134.0000 1.0000
15.2800 121.0000 1.0000
15.3000 109.0000 1.0000
15.3200 111.0000 1.0000
15.3400 123.0000 1.0000
15.3600 130.0000 1.0000
15.3800 125.0000 1.0000
15.4000 113.0000 1.0000
15.4200 113.0000 1.0000
15.4400 122.0000 1.0000
15.4600 126.0000 1.0000
15.4800 120.0000 1.0000
15.5000 120.0000 1.0000
15.5200 123.0000 1.0000
15.5400 129.0000 1.0000
15.5600 134.0000 1.0000
15.5800 137.0000 1.0000
15.6000 139.0000 1.0000
15.6200 145.0000 1.0000
15.6400 156.0000 1.0000
15.6600 148.0000 1.0000
15.6800 134.0000 1.0000
15.7000 129.0000 1.0000
15.7200 127.0000 1.0000
15.7400 133.0000 1.0000
15.7600 122.0000 1.0000
15.7800 112.0000 1.0000
15.8000 124.0000 1.0000
15.8200 133.0000 1.0000
15.8400 132.0000 1.0000
15.8600 118.0000 1.0000
15.8800 111.0000 1.0000
15.9000 108.0000 1.0000
15.9200 109.0000 1.0000
15.9400 101.0000 1.0000
15.9600 90.0000 1.0000
15.9800 103.0000 1.0000
16.0000 109.0000 1.0000
16.0200 97.0000 1.0000
16.0400 111.0000 1.0000
16.0600 126.0000 1.0000
16.0800 118.0000 1.0000
16.1000 109.0000 1.0000
16.1200 116.0000 1.0000
16.1400 116.0000 1.0000
16.1600 115.0000 1.0000
16.1800 113.0000 1.0000
16.2000 109.0000 1.0000
16.2200 115.0000 1.0000
16.2400 122.0000 1.0000
16.2600 123.0000 1.0000
16.2800 124.0000 1.0000
16.3000 108.0000 1.0000
16.3200 108.0000 1.0000
16.3400 112.0000 1.0000
16.3600 123.0000 1.0000
16.3800 108.0000 1.0000
16.4000 96.0000 1.0000
16.4200 114.0000 1.0000
16.4400 98.0000 1.0000
16.4600 106.0000 1.0000
16.4800 122.0000 1.0000
16.5000 103.0000 1.0000
16.5200 107.0000 1.0000
16.5400 110.0000 1.0000
16.5600 117.0000 1.0000
16.5800 121.0000 1.0000
16.6000 119.0000 1.0000
16.6200 113.0000 1.0000
16.6400 113.0000 1.0000
16.6600 108.0000 1.0000
16.6800 98.0000 1.0000
16.7000 99.0000 1.0000
16.7200 96.0000 1.0000
16.7400 97.0000 1.0000
16.7600 111.0000 1.0000
16.7800 104.0000 1.0000
16.8000 105.0000 1.0000
16.8200 107.0000 1.0000
16.8400 111.0000 1.0000
16.8600 110.0000 1.0000
16.8800 99.0000 1.0000
16.9000 100.0000 1.0000
16.9200 97.0000 1.0000
16.9400 111.0000 1.0000
16.9600 103.0000 1.0000
16.9800 102.0000 1.0000
17.0000 105.0000 1.0000
17.0200 105.0000 1.0000
17.0400 110.0000 1.0000
17.0600 121.0000 1.0000
17.0800 123.0000 1.0000
17.1000 105.0000 1.0000
17.1200 116.0000 1.0000
17.1400 129.0000 1.0000
17.1600 133.0000 1.0000
17.1800 123.0000 1.0000
17.2000 118.0000 1.0000
17.2200 113.0000 1.0000
17.2400 120.0000 1.0000
17.2600 119.0000 1.0000
17.2800 114.0000 1.0000
17.3000 128.0000 1.0000
17.3200 134.0000 1.0000
17.3400 130.0000 1.0000
17.3600 118.0000 1.0000
17.3800 129.0000 1.0000
17.4000 137.0000 1.0000
17.4200 154.0000 1.0000
17.4400 162.0000 1.0000
17.4600 167.0000 1.0000
17.4800 172.0000 1.0000
17.5000 176.0000 1.0000
17.5200 218.0000 1.0000
17.5400 227.0000 1.0000
17.5600 253.0000 1.0000
17.5800 285.0000 1.0000
17.6000 321.0000 1.0000
17.6200 319.0000 1.0000
17.6400 308.0000 1.0000
17.6600 274.0000 1.0000
17.6800 241.0000 1.0000
17.7000 200.0000 1.0000
17.7200 186.0000 1.0000
17.7400 155.0000 1.0000
17.7600 133.0000 1.0000
17.7800 125.0000 1.0000
17.8000 125.0000 1.0000
17.8200 108.0000 1.0000
17.8400 112.0000 1.0000
17.8600 139.0000 1.0000
17.8800 126.0000 1.0000
17.9000 121.0000 1.0000
17.9200 117.0000 1.0000
17.9400 116.0000 1.0000
17.9600 113.0000 1.0000
17.9800 123.0000 1.0000
18.0000 109.0000 1.0000
18.0200 116.0000 1.0000
18.0400 115.0000 1.0000
18.0600 115.0000 1.0000
18.0800 123.0000 1.0000
18.1000 113.0000 1.0000
18.1200 110.0000 1.0000
18.1400 117.0000 1.0000
18.1600 108.0000 1.0000
18.1800 115.0000 1.0000
18.2000 98.0000 1.0000
18.2200 109.0000 1.0000
18.2400 96.0000 1.0000
18.2600 113.0000 1.0000
18.2800 99.0000 1.0000
18.3000 113.0000 1.0000
18.3200 107.0000 1.0000
18.3400 111.0000 1.0000
18.3600 116.0000 1.0000
18.3800 116.0000 1.0000
18.4000 138.0000 1.0000
18.4200 116.0000 1.0000
18.4400 118.0000 1.0000
18.4600 133.0000 1.0000
18.4800 119.0000 1.0000
18.5000 112.0000 1.0000
18.5200 120.0000 1.0000
18.5400 117.0000 1.0000
18.5600 123.0000 1.0000
18.5800 138.0000 1.0000
18.6000 151.0000 1.0000
18.6200 140.0000 1.0000
18.6400 147.0000 1.0000
18.6600 163.0000 1.0000
18.6800 156.0000 1.0000
18.7000 157.0000 1.0000
18.7200 141.0000 1.0000
18.7400 141.0000 1.0000
18.7600 133.0000 1.0000
18.7800 117.0000 1.0000
18.8000 135.0000 1.0000
18.8200 132.0000 1.0000
18.8400 133.0000 1.0000
18.8600 122.0000 1.0000
18.8800 125.0000 1.0000
18.9000 127.0000 1.0000
18.9200 127.0000 1.0000
18.9400 144.0000 1.0000
18.9600 131.0000 1.0000
18.9800 137.0000 1.0000
19.0000 142.0000 1.0000
19.0200 128.0000 1.0000
19.0400 147.0000 1.0000
19.0600 141.0000 1.0000
19.0800 123.0000 1.0000
19.1000 158.0000 1.0000
19.1200 174.0000 1.0000
19.1400 178.0000 1.0000
19.1600 164.0000 1.0000
19.1800 165.0000 1.0000
19.2000 166.0000 1.0000
19.2200 159.0000 1.0000
19.2400 149.0000 1.0000
19.2600 174.0000 1.0000
19.2800 150.0000 1.0000
19.3000 155.0000 1.0000
19.3200 155.0000 1.0000
19.3400 179.0000 1.0000
19.3600 180.0000 1.0000
19.3800 176.0000 1.0000
19.4000 213.0000 1.0000
19.4200 228.0000 1.0000
19.4400 234.0000 1.0000
19.4600 254.0000 1.0000
19.4800 266.0000 1.0000
19.5000 267.0000 1.0000
19.5200 335.0000 1.0000
19.5400 333.0000 1.0000
19.5600 337.0000 1.0000
19.5800 358.0000 1.0000
19.6000 362.0000 1.0000
19.6200 352.0000 1.0000
19.6400 370.0000 1.0000
19.6600 379.0000 1.0000
19.6800 364.0000 1.0000
19.7000 345.0000 1.0000
19.7200 343.0000 1.0000
19.7400 297.0000 1.0000
19.7600 254.0000 1.0000
19.7800 239.0000 1.0000
19.8000 184.0000 1.0000
19.8200 219.0000 1.0000
19.8400 209.0000 1.0000
19.8600 205.0000 1.0000
19.8800 172.0000 1.0000
19.9000 212.0000 1.0000
19.9200 153.0000 1.0000
19.9400 192.0000 1.0000
19.9600 197.0000 1.0000
19.9800 184.0000 1.0000
20.0000 184.0000 1.0000
20.0200 176.0000 1.0000
20.0400 170.0000 1.0000
20.0600 145.0000 1.0000
20.0800 178.0000 1.0000
20.1000 174.0000 1.0000
20.1200 141.0000 1.0000
20.1400 163.0000 1.0000
20.1600 197.0000 1.0000
20.1800 171.0000 1.0000
20.2000 188.0000 1.0000
20.2200 202.0000 1.0000
20.2400 178.0000 1.0000
20.2600 223.0000 1.0000
20.2800 222.0000 1.0000
20.3000 229.0000 1.0000
20.3200 237.0000 1.0000
20.3400 262.0000 1.0000
20.3600 271.0000 1.0000
20.3800 298.0000 1.0000
20.4000 276.0000 1.0000
20.4200 352.0000 1.0000
20.4400 354.0000 1.0000
20.4600 403.0000 1.0000
20.4800 413.0000 1.0000
20.5000 506.0000 1.0000
20.5200 521.0000 1.0000
20.5400 640.0000 1.0000
20.5600 798.0000 1.0000
20.5800 896.0000 1.0000
20.6000 1063.0000 1.0000
20.6200 1361.0000 1.0000
20.6400 1660.0000 1.0000
20.6600 2012.0000 1.0000
20.6800 2344.0000 1.0000
20.7000 2601.0000 1.0000
20.7200 2633.0000 1.0000
20.7400 2662.0000 1.0000
20.7600 2324.0000 1.0000
20.7800 1825.0000 1.0000
20.8000 1517.0000 1.0000
20.8200 1151.0000 1.0000
20.8400 1003.0000 1.0000
20.8600 743.0000 1.0000
20.8800 624.0000 1.0000
20.9000 561.0000 1.0000
20.9200 438.0000 1.0000
20.9400 386.0000 1.0000
20.9600 323.0000 1.0000
20.9800 282.0000 1.0000
21.0000 251.0000 1.0000
21.0200 230.0000 1.0000
21.0400 220.0000 1.0000
21.0600 224.0000 1.0000
21.0800 229.0000 1.0000
21.1000 214.0000 1.0000
21.1200 230.0000 1.0000
21.1400 214.0000 1.0000
21.1600 200.0000 1.0000
21.1800 188.0000 1.0000
21.2000 184.0000 1.0000
21.2200 202.0000 1.0000
21.2400 172.0000 1.0000
21.2600 203.0000 1.0000
21.2800 169.0000 1.0000
21.3000 215.0000 1.0000
21.3200 206.0000 1.0000
21.3400 206.0000 1.0000
21.3600 208.0000 1.0000
21.3800 194.0000 1.0000
21.4000 194.0000 1.0000
21.4200 182.0000 1.0000
21.4400 206.0000 1.0000
21.4600 200.0000 1.0000
21.4800 195.0000 1.0000
21.5000 225.0000 1.0000
21.5200 208.0000 1.0000
21.5400 198.0000 1.0000
21.5600 203.0000 1.0000
21.5800 202.0000 1.0000
21.6000 189.0000 1.0000
21.6200 233.0000 1.0000
21.6400 191.0000 1.0000
21.6600 227.0000 1.0000
21.6800 247.0000 1.0000
21.7000 275.0000 1.0000
21.7200 282.0000 1.0000
21.7400 316.0000 1.0000
21.7600 395.0000 1.0000
21.7800 431.0000 1.0000
21.8000 496.0000 1.0000
21.8200 609.0000 1.0000
21.8400 625.0000 1.0000
21.8600 721.0000 1.0000
21.8800 739.0000 1.0000
21.9000 724.0000 1.0000
21.9200 620.0000 1.0000
21.9400 583.0000 1.0000
21.9600 497.0000 1.0000
21.9800 407.0000 1.0000
22.0000 344.0000 1.0000
22.0200 296.0000 1.0000
22.0400 242.0000 1.0000
22.0600 229.0000 1.0000
22.0800 237.0000 1.0000
22.1000 212.0000 1.0000
22.1200 236.0000 1.0000
22.1400 237.0000 1.0000
22.1600 239.0000 1.0000
22.1800 233.0000 1.0000
22.2000 238.0000 1.0000
22.2200 250.0000 1.0000
22.2400 260.0000 1.0000
22.2600 278.0000 1.0000
22.2800 262.0000 1.0000
22.3000 276.0000 1.0000
22.3200 277.0000 1.0000
22.3400 303.0000 1.0000
22.3600 300.0000 1.0000
22.3800 272.0000 1.0000
22.4000 237.0000 1.0000
22.4200 225.0000 1.0000
22.4400 226.0000 1.0000
22.4600 205.0000 1.0000
22.4800 204.0000 1.0000
22.5000 208.0000 1.0000
22.5200 199.0000 1.0000
22.5400 187.0000 1.0000
22.5600 215.0000 1.0000
22.5800 231.0000 1.0000
22.6000 265.0000 1.0000
22.6200 216.0000 1.0000
22.6400 280.0000 1.0000
22.6600 250.0000 1.0000
22.6800 278.0000 1.0000
22.7000 300.0000 1.0000
22.7200 282.0000 1.0000
22.7400 301.0000 1.0000
22.7600 316.0000 1.0000
22.7800 304.0000 1.0000
22.8000 298.0000 1.0000
22.8200 304.0000 1.0000
22.8400 315.0000 1.0000
22.8600 325.0000 1.0000
22.8800 334.0000 1.0000
22.9000 296.0000 1.0000
22.9200 299.0000 1.0000
22.9400 314.0000 1.0000
22.9600 290.0000 1.0000
22.9800 289.0000 1.0000
23.0000 252.0000 1.0000
23.0200 272.0000 1.0000
23.0400 267.0000 1.0000
23.0600 271.0000 1.0000
23.0800 262.0000 1.0000
23.1000 277.0000 1.0000
23.1200 296.0000 1.0000
23.1400 315.0000 1.0000
23.1600 327.0000 1.0000
23.1800 341.0000 1.0000
23.2000 381.0000 1.0000
23.2200 409.0000 1.0000
23.2400 431.0000 1.0000
23.2600 479.0000 1.0000
23.2800 490.0000 1.0000
23.3000 547.0000 1.0000
23.3200 614.0000 1.0000
23.3400 664.0000 1.0000
23.3600 733.0000 1.0000
23.3800 789.0000 1.0000
23.4000 804.0000 1.0000
23.4200 818.0000 1.0000
23.4400 797.0000 1.0000
23.4600 718.0000 1.0000
23.4800 636.0000 1.0000
23.5000 627.0000 1.0000
23.5200 549.0000 1.0000
23.5400 462.0000 1.0000
23.5600 446.0000 1.0000
23.5800 437.0000 1.0000
23.6000 422.0000 1.0000
23.6200 379.0000 1.0000
23.6400 357.0000 1.0000
23.6600 367.0000 1.0000
23.6800 352.0000 1.0000
23.7000 352.0000 1.0000
23.7200 362.0000 1.0000
23.7400 337.0000 1.0000
23.7600 311.0000 1.0000
23.7800 303.0000 1.0000
23.8000 262.0000 1.0000
23.8200 287.0000 1.0000
23.8400 282.0000 1.0000
23.8600 285.0000 1.0000
23.8800 296.0000 1.0000
23.9000 310.0000 1.0000
23.9200 328.0000 1.0000
23.9400 350.0000 1.0000
23.9600 369.0000 1.0000
23.9800 404.0000 1.0000
24.0000 427.0000 1.0000
24.0200 491.0000 1.0000
24.0400 504.0000 1.0000
24.0600 537.0000 1.0000
24.0800 548.0000 1.0000
24.1000 586.0000 1.0000
24.1200 590.0000 1.0000
24.1400 616.0000 1.0000
24.1600 571.0000 1.0000
24.1800 532.0000 1.0000
24.2000 507.0000 1.0000
24.2200 444.0000 1.0000
24.2400 402.0000 1.0000
24.2600 354.0000 1.0000
24.2800 314.0000 1.0000
24.3000 298.0000 1.0000
24.3200 273.0000 1.0000
24.3400 265.0000 1.0000
24.3600 264.0000 1.0000
24.3800 277.0000 1.0000
24.4000 284.0000 1.0000
24.4200 258.0000 1.0000
24.4400 241.0000 1.0000
24.4600 240.0000 1.0000
24.4800 235.0000 1.0000
24.5000 246.0000 1.0000
24.5200 251.0000 1.0000
24.5400 234.0000 1.0000
24.5600 206.0000 1.0000
24.5800 221.0000 1.0000
24.6000 210.0000 1.0000
24.6200 235.0000 1.0000
24.6400 217.0000 1.0000
24.6600 213.0000 1.0000
24.6800 196.0000 1.0000
24.7000 228.0000 1.0000
24.7200 214.0000 1.0000
24.7400 197.0000 1.0000
24.7600 218.0000 1.0000
24.7800 218.0000 1.0000
24.8000 237.0000 1.0000
24.8200 220.0000 1.0000
24.8400 205.0000 1.0000
24.8600 223.0000 1.0000
24.8800 261.0000 1.0000
24.9000 262.0000 1.0000
24.9200 261.0000 1.0000
24.9400 270.0000 1.0000
24.9600 297.0000 1.0000
24.9800 332.0000 1.0000
25.0000 354.0000 1.0000
25.0200 358.0000 1.0000
25.0400 366.0000 1.0000
25.0600 357.0000 1.0000
25.0800 366.0000 1.0000
25.1000 372.0000 1.0000
25.1200 402.0000 1.0000
25.1400 400.0000 1.0000
25.1600 434.0000 1.0000
25.1800 474.0000 1.0000
25.2000 507.0000 1.0000
25.2200 548.0000 1.0000
25.2400 614.0000 1.0000
25.2600 701.0000 1.0000
25.2800 760.0000 1.0000
25.3000 857.0000 1.0000
25.3200 939.0000 1.0000
25.3400 1087.0000 1.0000
25.3600 1301.0000 1.0000
25.3800 1508.0000 1.0000
25.4000 1599.0000 1.0000
25.4200 1700.0000 1.0000
25.4400 1742.0000 1.0000
25.4600 1706.0000 1.0000
25.4800 1541.0000 1.0000
25.5000 1354.0000 1.0000
25.5200 1145.0000 1.0000
25.5400 960.0000 1.0000
25.5600 756.0000 1.0000
25.5800 609.0000 1.0000
25.6000 504.0000 1.0000
25.6200 441.0000 1.0000
25.6400 386.0000 1.0000
25.6600 356.0000 1.0000
25.6800 344.0000 1.0000
25.7000 341.0000 1.0000
25.7200 319.0000 1.0000
25.7400 290.0000 1.0000
25.7600 279.0000 1.0000
25.7800 278.0000 1.0000
25.8000 295.0000 1.0000
25.8200 300.0000 1.0000
25.8400 289.0000 1.0000
25.8600 294.0000 1.0000
25.8800 303.0000 1.0000
25.9000 322.0000 1.0000
25.9200 335.0000 1.0000
25.9400 347.0000 1.0000
25.9600 357.0000 1.0000
25.9800 376.0000 1.0000
26.0000 407.0000 1.0000
26.0200 440.0000 1.0000
26.0400 474.0000 1.0000
26.0600 510.0000 1.0000
26.0800 521.0000 1.0000
26.1000 581.0000 1.0000
26.1200 628.0000 1.0000
26.1400 659.0000 1.0000
26.1600 753.0000 1.0000
26.1800 865.0000 1.0000
26.2000 999.0000 1.0000
26.2200 1139.0000 1.0000
26.2400 1278.0000 1.0000
26.2600 1479.0000 1.0000
26.2800 1713.0000 1.0000
26.3000 2051.0000 1.0000
26.3200 2493.0000 1.0000
26.3400 2989.0000 1.0000
26.3600 3750.0000 1.0000
26.3800 4690.0000 1.0000
26.4000 6040.0000 1.0000
26.4200 7621.0000 1.0000
26.4400 9304.0000 1.0000
26.4600 10657.0000 1.0000
26.4800 11661.0000 1.0000
26.5000 12054.0000 1.0000
26.5200 11587.0000 1.0000
26.5400 10312.0000 1.0000
26.5600 8508.0000 1.0000
26.5800 6705.0000 1.0000
26.6000 5139.0000 1.0000
26.6200 3892.0000 1.0000
26.6400 2925.0000 1.0000
26.6600 2275.0000 1.0000
26.6800 1928.0000 1.0000
26.7000 1716.0000 1.0000
26.7200 1561.0000 1.0000
26.7400 1442.0000 1.0000
26.7600 1316.0000 1.0000
26.7800 1219.0000 1.0000
26.8000 1158.0000 1.0000
26.8200 1109.0000 1.0000
26.8400 1063.0000 1.0000
26.8600 1053.0000 1.0000
26.8800 1038.0000 1.0000
26.9000 970.0000 1.0000
26.9200 949.0000 1.0000
26.9400 918.0000 1.0000
26.9600 837.0000 1.0000
26.9800 751.0000 1.0000
27.0000 673.0000 1.0000
27.0200 645.0000 1.0000
27.0400 605.0000 1.0000
27.0600 533.0000 1.0000
27.0800 485.0000 1.0000
27.1000 485.0000 1.0000
27.1200 481.0000 1.0000
27.1400 470.0000 1.0000
27.1600 492.0000 1.0000
27.1800 512.0000 1.0000
27.2000 556.0000 1.0000
27.2200 660.0000 1.0000
27.2400 770.0000 1.0000
27.2600 857.0000 1.0000
27.2800 964.0000 1.0000
27.3000 1091.0000 1.0000
27.3200 1190.0000 1.0000
27.3400 1286.0000 1.0000
27.3600 1331.0000 1.0000
27.3800 1326.0000 1.0000
27.4000 1294.0000 1.0000
27.4200 1201.0000 1.0000
27.4400 1109.0000 1.0000
27.4600 991.0000 1.0000
27.4800 896.0000 1.0000
27.5000 871.0000 1.0000
27.5200 888.0000 1.0000
27.5400 927.0000 1.0000
27.5600 973.0000 1.0000
27.5800 1032.0000 1.0000
27.6000 1089.0000 1.0000
27.6200 1155.0000 1.0000
27.6400 1233.0000 1.0000
27.6600 1282.0000 1.0000
27.6800 1306.0000 1.0000
27.7000 1408.0000 1.0000
27.7200 1535.0000 1.0000
27.7400 1655.0000 1.0000
27.7600 1793.0000 1.0000
27.7800 1884.0000 1.0000
27.8000 1912.0000 1.0000
27.8200 1831.0000 1.0000
27.8400 1670.0000 1.0000
27.8600 1469.0000 1.0000
27.8800 1279.0000 1.0000
27.9000 1129.0000 1.0000
27.9200 977.0000 1.0000
27.9400 853.0000 1.0000
27.9600 751.0000 1.0000
27.9800 702.0000 1.0000
28.0000 666.0000 1.0000
28.0200 609.0000 1.0000
28.0400 567.0000 1.0000
28.0600 521.0000 1.0000
28.0800 511.0000 1.0000
28.1000 509.0000 1.0000
28.1200 483.0000 1.0000
28.1400 486.0000 1.0000
28.1600 485.0000 1.0000
28.1800 443.0000 1.0000
28.2000 395.0000 1.0000
28.2200 364.0000 1.0000
28.2400 350.0000 1.0000
28.2600 320.0000 1.0000
28.2800 282.0000 1.0000
28.3000 242.0000 1.0000
28.3200 223.0000 1.0000
28.3400 223.0000 1.0000
28.3600 215.0000 1.0000
28.3800 206.0000 1.0000
28.4000 203.0000 1.0000
28.4200 198.0000 1.0000
28.4400 177.0000 1.0000
28.4600 172.0000 1.0000
28.4800 185.0000 1.0000
28.5000 170.0000 1.0000
28.5200 173.0000 1.0000
28.5400 172.0000 1.0000
28.5600 158.0000 1.0000
28.5800 149.0000 1.0000
28.6000 149.0000 1.0000
28.6200 149.0000 1.0000
28.6400 159.0000 1.0000
28.6600 164.0000 1.0000
28.6800 164.0000 1.0000
28.7000 164.0000 1.0000
28.7200 152.0000 1.0000
28.7400 152.0000 1.0000
28.7600 152.0000 1.0000
28.7800 149.0000 1.0000
28.8000 159.0000 1.0000
28.8200 162.0000 1.0000
28.8400 155.0000 1.0000
28.8600 144.0000 1.0000
28.8800 148.0000 1.0000
28.9000 166.0000 1.0000
28.9200 154.0000 1.0000
28.9400 146.0000 1.0000
28.9600 140.0000 1.0000
28.9800 141.0000 1.0000
29.0000 152.0000 1.0000
29.0200 146.0000 1.0000
29.0400 140.0000 1.0000
29.0600 150.0000 1.0000
29.0800 153.0000 1.0000
29.1000 148.0000 1.0000
29.1200 149.0000 1.0000
29.1400 146.0000 1.0000
29.1600 144.0000 1.0000
29.1800 164.0000 1.0000
29.2000 194.0000 1.0000
29.2200 201.0000 1.0000
29.2400 183.0000 1.0000
29.2600 198.0000 1.0000
29.2800 230.0000 1.0000
29.3000 228.0000 1.0000
29.3200 213.0000 1.0000
29.3400 221.0000 1.0000
29.3600 237.0000 1.0000
29.3800 240.0000 1.0000
29.4000 238.0000 1.0000
29.4200 233.0000 1.0000
29.4400 273.0000 1.0000
29.4600 302.0000 1.0000
29.4800 298.0000 1.0000
29.5000 303.0000 1.0000
29.5200 322.0000 1.0000
29.5400 369.0000 1.0000
29.5600 418.0000 1.0000
29.5800 445.0000 1.0000
29.6000 491.0000 1.0000
29.6200 526.0000 1.0000
29.6400 582.0000 1.0000
29.6600 605.0000 1.0000
29.6800 586.0000 1.0000
29.7000 572.0000 1.0000
29.7200 520.0000 1.0000
29.7400 526.0000 1.0000
29.7600 517.0000 1.0000
29.7800 487.0000 1.0000
29.8000 464.0000 1.0000
29.8200 451.0000 1.0000
29.8400 429.0000 1.0000
29.8600 400.0000 1.0000
29.8800 400.0000 1.0000
29.9000 412.0000 1.0000
29.9200 412.0000 1.0000
29.9400 409.0000 1.0000
29.9600 419.0000 1.0000
29.9800 427.0000 1.0000
30.0000 410.0000 1.0000
30.0200 434.0000 1.0000
30.0400 403.0000 1.0000
30.0600 394.0000 1.0000
30.0800 373.0000 1.0000
30.1000 384.0000 1.0000
30.1200 353.0000 1.0000
30.1400 326.0000 1.0000
30.1600 336.0000 1.0000
30.1800 342.0000 1.0000
30.2000 348.0000 1.0000
30.2200 336.0000 1.0000
30.2400 335.0000 1.0000
30.2600 382.0000 1.0000
30.2800 389.0000 1.0000
30.3000 378.0000 1.0000
30.3200 415.0000 1.0000
30.3400 412.0000 1.0000
30.3600 398.0000 1.0000
30.3800 407.0000 1.0000
30.4000 390.0000 1.0000
30.4200 362.0000 1.0000
30.4400 334.0000 1.0000
30.4600 315.0000 1.0000
30.4800 279.0000 1.0000
30.5000 267.0000 1.0000
30.5200 287.0000 1.0000
30.5400 272.0000 1.0000
30.5600 292.0000 1.0000
30.5800 341.0000 1.0000
30.6000 363.0000 1.0000
30.6200 368.0000 1.0000
30.6400 390.0000 1.0000
30.6600 409.0000 1.0000
30.6800 418.0000 1.0000
30.7000 396.0000 1.0000
30.7200 363.0000 1.0000
30.7400 350.0000 1.0000
30.7600 306.0000 1.0000
30.7800 285.0000 1.0000
30.8000 251.0000 1.0000
30.8200 232.0000 1.0000
30.8400 239.0000 1.0000
30.8600 225.0000 1.0000
30.8800 229.0000 1.0000
30.9000 220.0000 1.0000
30.9200 221.0000 1.0000
30.9400 238.0000 1.0000
30.9600 232.0000 1.0000
30.9800 251.0000 1.0000
31.0000 270.0000 1.0000
31.0200 291.0000 1.0000
31.0400 315.0000 1.0000
31.0600 297.0000 1.0000
31.0800 322.0000 1.0000
31.1000 312.0000 1.0000
31.1200 311.0000 1.0000
31.1400 291.0000 1.0000
31.1600 289.0000 1.0000
31.1800 268.0000 1.0000
31.2000 243.0000 1.0000
31.2200 214.0000 1.0000
31.2400 229.0000 1.0000
31.2600 215.0000 1.0000
31.2800 197.0000 1.0000
31.3000 200.0000 1.0000
31.3200 208.0000 1.0000
31.3400 182.0000 1.0000
31.3600 160.0000 1.0000
31.3800 174.0000 1.0000
31.4000 174.0000 1.0000
31.4200 179.0000 1.0000
31.4400 171.0000 1.0000
31.4600 148.0000 1.0000
31.4800 146.0000 1.0000
31.5000 151.0000 1.0000
31.5200 165.0000 1.0000
31.5400 167.0000 1.0000
31.5600 153.0000 1.0000
31.5800 148.0000 1.0000
31.6000 142.0000 1.0000
31.6200 158.0000 1.0000
31.6400 172.0000 1.0000
31.6600 141.0000 1.0000
31.6800 159.0000 1.0000
31.7000 152.0000 1.0000
31.7200 161.0000 1.0000
31.7400 169.0000 1.0000
31.7600 171.0000 1.0000
31.7800 187.0000 1.0000
31.8000 187.0000 1.0000
31.8200 212.0000 1.0000
31.8400 219.0000 1.0000
31.8600 242.0000 1.0000
31.8800 212.0000 1.0000
31.9000 214.0000 1.0000
31.9200 229.0000 1.0000
31.9400 212.0000 1.0000
31.9600 222.0000 1.0000
31.9800 233.0000 1.0000
32.0000 210.0000 1.0000
32.0200 226.0000 1.0000
32.0400 208.0000 1.0000
32.0600 195.0000 1.0000
32.0800 215.0000 1.0000
32.1000 205.0000 1.0000
32.1200 252.0000 1.0000
32.1400 231.0000 1.0000
32.1600 236.0000 1.0000
32.1800 240.0000 1.0000
32.2000 231.0000 1.0000
32.2200 231.0000 1.0000
32.2400 214.0000 1.0000
32.2600 205.0000 1.0000
32.2800 204.0000 1.0000
32.3000 199.0000 1.0000
32.3200 171.0000 1.0000
32.3400 166.0000 1.0000
32.3600 150.0000 1.0000
32.3800 141.0000 1.0000
32.4000 160.0000 1.0000
32.4200 148.0000 1.0000
32.4400 130.0000 1.0000
32.4600 118.0000 1.0000
32.4800 121.0000 1.0000
32.5000 121.0000 1.0000
32.5200 104.0000 1.0000
32.5400 103.0000 1.0000
32.5600 115.0000 1.0000
32.5800 114.0000 1.0000
32.6000 117.0000 1.0000
32.6200 114.0000 1.0000
32.6400 98.0000 1.0000
32.6600 102.0000 1.0000
32.6800 111.0000 1.0000
32.7000 121.0000 1.0000
32.7200 144.0000 1.0000
32.7400 110.0000 1.0000
32.7600 115.0000 1.0000
32.7800 123.0000 1.0000
32.8000 112.0000 1.0000
32.8200 129.0000 1.0000
32.8400 110.0000 1.0000
32.8600 110.0000 1.0000
32.8800 112.0000 1.0000
32.9000 131.0000 1.0000
32.9200 132.0000 1.0000
32.9400 126.0000 1.0000
32.9600 143.0000 1.0000
32.9800 132.0000 1.0000
33.0000 125.0000 1.0000
33.0200 119.0000 1.0000
33.0400 146.0000 1.0000
33.0600 136.0000 1.0000
33.0800 128.0000 1.0000
33.1000 120.0000 1.0000
33.1200 134.0000 1.0000
33.1400 139.0000 1.0000
33.1600 123.0000 1.0000
33.1800 130.0000 1.0000
33.2000 117.0000 1.0000
33.2200 107.0000 1.0000
33.2400 100.0000 1.0000
33.2600 131.0000 1.0000
33.2800 124.0000 1.0000
33.3000 112.0000 1.0000
33.3200 127.0000 1.0000
33.3400 126.0000 1.0000
33.3600 115.0000 1.0000
33.3800 130.0000 1.0000
33.4000 123.0000 1.0000
33.4200 126.0000 1.0000
33.4400 143.0000 1.0000
33.4600 117.0000 1.0000
33.4800 113.0000 1.0000
33.5000 137.0000 1.0000
33.5200 138.0000 1.0000
33.5400 145.0000 1.0000
33.5600 138.0000 1.0000
33.5800 130.0000 1.0000
33.6000 137.0000 1.0000
33.6200 152.0000 1.0000
33.6400 161.0000 1.0000
33.6600 153.0000 1.0000
33.6800 144.0000 1.0000
33.7000 175.0000 1.0000
33.7200 180.0000 1.0000
33.7400 194.0000 1.0000
33.7600 207.0000 1.0000
33.7800 212.0000 1.0000
33.8000 198.0000 1.0000
33.8200 215.0000 1.0000
33.8400 203.0000 1.0000
33.8600 213.0000 1.0000
33.8800 213.0000 1.0000
33.9000 201.0000 1.0000
33.9200 192.0000 1.0000
33.9400 185.0000 1.0000
33.9600 183.0000 1.0000
33.9800 194.0000 1.0000
34.0000 193.0000 1.0000
34.0200 226.0000 1.0000
34.0400 232.0000 1.0000
34.0600 254.0000 1.0000
34.0800 260.0000 1.0000
34.1000 287.0000 1.0000
34.1200 276.0000 1.0000
34.1400 297.0000 1.0000
34.1600 374.0000 1.0000
34.1800 346.0000 1.0000
34.2000 354.0000 1.0000
34.2200 360.0000 1.0000
34.2400 422.0000 1.0000
34.2600 418.0000 1.0000
34.2800 402.0000 1.0000
34.3000 346.0000 1.0000
34.3200 390.0000 1.0000
34.3400 358.0000 1.0000
34.3600 353.0000 1.0000
34.3800 370.0000 1.0000
34.4000 377.0000 1.0000
34.4200 376.0000 1.0000
34.4400 344.0000 1.0000
34.4600 372.0000 1.0000
34.4800 362.0000 1.0000
34.5000 379.0000 1.0000
34.5200 367.0000 1.0000
34.5400 437.0000 1.0000
34.5600 441.0000 1.0000
34.5800 470.0000 1.0000
34.6000 467.0000 1.0000
34.6200 497.0000 1.0000
34.6400 536.0000 1.0000
34.6600 561.0000 1.0000
34.6800 613.0000 1.0000
34.7000 639.0000 1.0000
34.7200 669.0000 1.0000
34.7400 698.0000 1.0000
34.7600 687.0000 1.0000
34.7800 703.0000 1.0000
34.8000 695.0000 1.0000
34.8200 766.0000 1.0000
34.8400 795.0000 1.0000
34.8600 845.0000 1.0000
34.8800 928.0000 1.0000
34.9000 1022.0000 1.0000
34.9200 1254.0000 1.0000
34.9400 1393.0000 1.0000
34.9600 1640.0000 1.0000
34.9800 1794.0000 1.0000
35.0000 1909.0000 1.0000
35.0200 1762.0000 1.0000
35.0400 1836.0000 1.0000
35.0600 1552.0000 1.0000
35.0800 1410.0000 1.0000
35.1000 1162.0000 1.0000
35.1200 1004.0000 1.0000
35.1400 844.0000 1.0000
35.1600 661.0000 1.0000
35.1800 524.0000 1.0000
35.2000 469.0000 1.0000
35.2200 400.0000 1.0000
35.2400 359.0000 1.0000
35.2600 334.0000 1.0000
35.2800 355.0000 1.0000
35.3000 321.0000 1.0000
35.3200 320.0000 1.0000
35.3400 302.0000 1.0000
35.3600 300.0000 1.0000
35.3800 282.0000 1.0000
35.4000 285.0000 1.0000
35.4200 286.0000 1.0000
35.4400 254.0000 1.0000
35.4600 250.0000 1.0000
35.4800 249.0000 1.0000
35.5000 253.0000 1.0000
35.5200 242.0000 1.0000
35.5400 231.0000 1.0000
35.5600 224.0000 1.0000
35.5800 224.0000 1.0000
35.6000 231.0000 1.0000
35.6200 206.0000 1.0000
35.6400 212.0000 1.0000
35.6600 220.0000 1.0000
35.6800 210.0000 1.0000
35.7000 177.0000 1.0000
35.7200 189.0000 1.0000
35.7400 191.0000 1.0000
35.7600 179.0000 1.0000
35.7800 210.0000 1.0000
35.8000 207.0000 1.0000
35.8200 205.0000 1.0000
35.8400 192.0000 1.0000
35.8600 209.0000 1.0000
35.8800 195.0000 1.0000
35.9000 226.0000 1.0000
35.9200 225.0000 1.0000
35.9400 226.0000 1.0000
35.9600 230.0000 1.0000
35.9800 207.0000 1.0000
36.0000 200.0000 1.0000
36.0200 198.0000 1.0000
36.0400 197.0000 1.0000
36.0600 223.0000 1.0000
36.0800 216.0000 1.0000
36.1000 207.0000 1.0000
36.1200 207.0000 1.0000
36.1400 198.0000 1.0000
36.1600 239.0000 1.0000
36.1800 254.0000 1.0000
36.2000 264.0000 1.0000
36.2200 291.0000 1.0000
36.2400 335.0000 1.0000
36.2600 375.0000 1.0000
36.2800 412.0000 1.0000
36.3000 487.0000 1.0000
36.3200 557.0000 1.0000
36.3400 692.0000 1.0000
36.3600 803.0000 1.0000
36.3800 873.0000 1.0000
36.4000 948.0000 1.0000
36.4200 930.0000 1.0000
36.4400 944.0000 1.0000
36.4600 888.0000 1.0000
36.4800 836.0000 1.0000
36.5000 700.0000 1.0000
36.5200 620.0000 1.0000
36.5400 520.0000 1.0000
36.5600 474.0000 1.0000
36.5800 407.0000 1.0000
36.6000 339.0000 1.0000
36.6200 318.0000 1.0000
36.6400 279.0000 1.0000
36.6600 269.0000 1.0000
36.6800 231.0000 1.0000
36.7000 233.0000 1.0000
36.7200 218.0000 1.0000
36.7400 215.0000 1.0000
36.7600 234.0000 1.0000
36.7800 221.0000 1.0000
36.8000 223.0000 1.0000
36.8200 240.0000 1.0000
36.8400 224.0000 1.0000
36.8600 216.0000 1.0000
36.8800 247.0000 1.0000
36.9000 224.0000 1.0000
36.9200 208.0000 1.0000
36.9400 233.0000 1.0000
36.9600 220.0000 1.0000
36.9800 220.0000 1.0000
37.0000 232.0000 1.0000
37.0200 219.0000 1.0000
37.0400 217.0000 1.0000
37.0600 238.0000 1.0000
37.0800 229.0000 1.0000
37.1000 226.0000 1.0000
37.1200 238.0000 1.0000
37.1400 266.0000 1.0000
37.1600 253.0000 1.0000
37.1800 252.0000 1.0000
37.2000 267.0000 1.0000
37.2200 285.0000 1.0000
37.2400 291.0000 1.0000
37.2600 279.0000 1.0000
37.2800 301.0000 1.0000
37.3000 314.0000 1.0000
37.3200 286.0000 1.0000
37.3400 291.0000 1.0000
37.3600 314.0000 1.0000
37.3800 321.0000 1.0000
37.4000 302.0000 1.0000
37.4200 346.0000 1.0000
37.4400 356.0000 1.0000
37.4600 363.0000 1.0000
37.4800 410.0000 1.0000
37.5000 425.0000 1.0000
37.5200 474.0000 1.0000
37.5400 552.0000 1.0000
37.5600 631.0000 1.0000
37.5800 710.0000 1.0000
37.6000 812.0000 1.0000
37.6200 853.0000 1.0000
37.6400 874.0000 1.0000
37.6600 807.0000 1.0000
37.6800 764.0000 1.0000
37.7000 672.0000 1.0000
37.7200 587.0000 1.0000
37.7400 517.0000 1.0000
37.7600 418.0000 1.0000
37.7800 343.0000 1.0000
37.8000 293.0000 1.0000
37.8200 234.0000 1.0000
37.8400 197.0000 1.0000
37.8600 189.0000 1.0000
37.8800 165.0000 1.0000
37.9000 156.0000 1.0000
37.9200 130.0000 1.0000
37.9400 120.0000 1.0000
37.9600 136.0000 1.0000
37.9800 127.0000 1.0000
38.0000 120.0000 1.0000
38.0200 129.0000 1.0000
38.0400 134.0000 1.0000
38.0600 128.0000 1.0000
38.0800 131.0000 1.0000
38.1000 128.0000 1.0000
38.1200 129.0000 1.0000
38.1400 130.0000 1.0000
38.1600 121.0000 1.0000
38.1800 105.0000 1.0000
38.2000 117.0000 1.0000
38.2200 127.0000 1.0000
38.2400 113.0000 1.0000
38.2600 114.0000 1.0000
38.2800 116.0000 1.0000
38.3000 118.0000 1.0000
38.3200 117.0000 1.0000
38.3400 135.0000 1.0000
38.3600 128.0000 1.0000
38.3800 130.0000 1.0000
38.4000 136.0000 1.0000
38.4200 143.0000 1.0000
38.4400 148.0000 1.0000
38.4600 152.0000 1.0000
38.4800 147.0000 1.0000
38.5000 184.0000 1.0000
38.5200 179.0000 1.0000
38.5400 158.0000 1.0000
38.5600 167.0000 1.0000
38.5800 174.0000 1.0000
38.6000 193.0000 1.0000
38.6200 183.0000 1.0000
38.6400 168.0000 1.0000
38.6600 177.0000 1.0000
38.6800 164.0000 1.0000
38.7000 180.0000 1.0000
38.7200 172.0000 1.0000
38.7400 166.0000 1.0000
38.7600 181.0000 1.0000
38.7800 174.0000 1.0000
38.8000 157.0000 1.0000
38.8200 152.0000 1.0000
38.8400 153.0000 1.0000
38.8600 133.0000 1.0000
38.8800 118.0000 1.0000
38.9000 131.0000 1.0000
38.9200 147.0000 1.0000
38.9400 140.0000 1.0000
38.9600 131.0000 1.0000
38.9800 149.0000 1.0000
39.0000 160.0000 1.0000
39.0200 152.0000 1.0000
39.0400 153.0000 1.0000
39.0600 149.0000 1.0000
39.0800 153.0000 1.0000
39.1000 180.0000 1.0000
39.1200 190.0000 1.0000
39.1400 213.0000 1.0000
39.1600 229.0000 1.0000
39.1800 262.0000 1.0000
39.2000 321.0000 1.0000
39.2200 364.0000 1.0000
39.2400 428.0000 1.0000
39.2600 486.0000 1.0000
39.2800 612.0000 1.0000
39.3000 710.0000 1.0000
39.3200 767.0000 1.0000
39.3400 797.0000 1.0000
39.3600 777.0000 1.0000
39.3800 752.0000 1.0000
39.4000 693.0000 1.0000
39.4200 608.0000 1.0000
39.4400 534.0000 1.0000
39.4600 442.0000 1.0000
39.4800 379.0000 1.0000
39.5000 339.0000 1.0000
39.5200 265.0000 1.0000
39.5400 234.0000 1.0000
39.5600 211.0000 1.0000
39.5800 178.0000 1.0000
39.6000 173.0000 1.0000
39.6200 178.0000 1.0000
39.6400 175.0000 1.0000
39.6600 171.0000 1.0000
39.6800 175.0000 1.0000
39.7000 178.0000 1.0000
39.7200 185.0000 1.0000
39.7400 176.0000 1.0000
39.7600 190.0000 1.0000
39.7800 194.0000 1.0000
39.8000 191.0000 1.0000
39.8200 196.0000 1.0000
39.8400 193.0000 1.0000
39.8600 176.0000 1.0000
39.8800 181.0000 1.0000
39.9000 179.0000 1.0000
39.9200 169.0000 1.0000
39.9400 171.0000 1.0000
39.9600 186.0000 1.0000
39.9800 210.0000 1.0000
40.0000 217.0000 1.0000
40.0200 227.0000 1.0000
40.0400 255.0000 1.0000
40.0600 307.0000 1.0000
40.0800 359.0000 1.0000
40.1000 401.0000 1.0000
40.1200 425.0000 1.0000
40.1400 467.0000 1.0000
40.1600 503.0000 1.0000
40.1800 486.0000 1.0000
40.2000 460.0000 1.0000
40.2200 435.0000 1.0000
40.2400 391.0000 1.0000
40.2600 351.0000 1.0000
40.2800 304.0000 1.0000
40.3000 246.0000 1.0000
40.3200 216.0000 1.0000
40.3400 200.0000 1.0000
40.3600 171.0000 1.0000
40.3800 157.0000 1.0000
40.4000 156.0000 1.0000
40.4200 154.0000 1.0000
40.4400 169.0000 1.0000
40.4600 162.0000 1.0000
40.4800 141.0000 1.0000
40.5000 140.0000 1.0000
40.5200 149.0000 1.0000
40.5400 155.0000 1.0000
40.5600 163.0000 1.0000
40.5800 163.0000 1.0000
40.6000 151.0000 1.0000
40.6200 145.0000 1.0000
40.6400 151.0000 1.0000
40.6600 152.0000 1.0000
40.6800 145.0000 1.0000
40.7000 164.0000 1.0000
40.7200 174.0000 1.0000
40.7400 158.0000 1.0000
40.7600 165.0000 1.0000
40.7800 165.0000 1.0000
40.8000 159.0000 1.0000
40.8200 148.0000 1.0000
40.8400 130.0000 1.0000
40.8600 134.0000 1.0000
40.8800 131.0000 1.0000
40.9000 129.0000 1.0000
40.9200 138.0000 1.0000
40.9400 144.0000 1.0000
40.9600 154.0000 1.0000
40.9800 156.0000 1.0000
41.0000 166.0000 1.0000
41.0200 164.0000 1.0000
41.0400 158.0000 1.0000
41.0600 165.0000 1.0000
41.0800 175.0000 1.0000
41.1000 174.0000 1.0000
41.1200 166.0000 1.0000
41.1400 156.0000 1.0000
41.1600 145.0000 1.0000
41.1800 153.0000 1.0000
41.2000 163.0000 1.0000
41.2200 154.0000 1.0000
41.2400 137.0000 1.0000
41.2600 140.0000 1.0000
41.2800 149.0000 1.0000
41.3000 151.0000 1.0000
41.3200 147.0000 1.0000
41.3400 147.0000 1.0000
41.3600 152.0000 1.0000
41.3800 161.0000 1.0000
41.4000 171.0000 1.0000
41.4200 173.0000 1.0000
41.4400 171.0000 1.0000
41.4600 174.0000 1.0000
41.4800 205.0000 1.0000
41.5000 245.0000 1.0000
41.5200 267.0000 1.0000
41.5400 294.0000 1.0000
41.5600 299.0000 1.0000
41.5800 330.0000 1.0000
41.6000 355.0000 1.0000
41.6200 339.0000 1.0000
41.6400 350.0000 1.0000
41.6600 338.0000 1.0000
41.6800 324.0000 1.0000
41.7000 306.0000 1.0000
41.7200 288.0000 1.0000
41.7400 261.0000 1.0000
41.7600 255.0000 1.0000
41.7800 252.0000 1.0000
41.8000 241.0000 1.0000
41.8200 210.0000 1.0000
41.8400 230.0000 1.0000
41.8600 217.0000 1.0000
41.8800 209.0000 1.0000
41.9000 192.0000 1.0000
41.9200 193.0000 1.0000
41.9400 196.0000 1.0000
41.9600 182.0000 1.0000
41.9800 179.0000 1.0000
42.0000 197.0000 1.0000
42.0200 215.0000 1.0000
42.0400 227.0000 1.0000
42.0600 243.0000 1.0000
42.0800 251.0000 1.0000
42.1000 277.0000 1.0000
42.1200 291.0000 1.0000
42.1400 312.0000 1.0000
42.1600 352.0000 1.0000
42.1800 380.0000 1.0000
42.2000 402.0000 1.0000
42.2200 487.0000 1.0000
42.2400 549.0000 1.0000
42.2600 621.0000 1.0000
42.2800 654.0000 1.0000
42.3000 709.0000 1.0000
42.3200 753.0000 1.0000
42.3400 727.0000 1.0000
42.3600 713.0000 1.0000
42.3800 663.0000 1.0000
42.4000 595.0000 1.0000
42.4200 553.0000 1.0000
42.4400 506.0000 1.0000
42.4600 448.0000 1.0000
42.4800 410.0000 1.0000
42.5000 352.0000 1.0000
42.5200 321.0000 1.0000
42.5400 261.0000 1.0000
42.5600 258.0000 1.0000
42.5800 239.0000 1.0000
42.6000 242.0000 1.0000
42.6200 235.0000 1.0000
42.6400 218.0000 1.0000
42.6600 202.0000 1.0000
42.6800 195.0000 1.0000
42.7000 191.0000 1.0000
42.7200 193.0000 1.0000
42.7400 194.0000 1.0000
42.7600 171.0000 1.0000
42.7800 176.0000 1.0000
42.8000 176.0000 1.0000
42.8200 170.0000 1.0000
42.8400 177.0000 1.0000
42.8600 175.0000 1.0000
42.8800 195.0000 1.0000
42.9000 199.0000 1.0000
42.9200 181.0000 1.0000
42.9400 201.0000 1.0000
42.9600 240.0000 1.0000
42.9800 226.0000 1.0000
43.0000 250.0000 1.0000
43.0200 299.0000 1.0000
43.0400 354.0000 1.0000
43.0600 428.0000 1.0000
43.0800 522.0000 1.0000
43.1000 658.0000 1.0000
43.1200 791.0000 1.0000
43.1400 996.0000 1.0000
43.1600 1286.0000 1.0000
43.1800 1503.0000 1.0000
43.2000 1617.0000 1.0000
43.2200 1717.0000 1.0000
43.2400 1719.0000 1.0000
43.2600 1625.0000 1.0000
43.2800 1487.0000 1.0000
43.3000 1337.0000 1.0000
43.3200 1163.0000 1.0000
43.3400 998.0000 1.0000
43.3600 937.0000 1.0000
43.3800 721.0000 1.0000
43.4000 603.0000 1.0000
43.4200 509.0000 1.0000
43.4400 383.0000 1.0000
43.4600 315.0000 1.0000
43.4800 260.0000 1.0000
43.5000 243.0000 1.0000
43.5200 228.0000 1.0000
43.5400 198.0000 1.0000
43.5600 202.0000 1.0000
43.5800 188.0000 1.0000
43.6000 184.0000 1.0000
43.6200 195.0000 1.0000
43.6400 168.0000 1.0000
43.6600 164.0000 1.0000
43.6800 164.0000 1.0000
43.7000 146.0000 1.0000
43.7200 145.0000 1.0000
43.7400 150.0000 1.0000
43.7600 160.0000 1.0000
43.7800 140.0000 1.0000
43.8000 132.0000 1.0000
43.8200 142.0000 1.0000
43.8400 137.0000 1.0000
43.8600 132.0000 1.0000
43.8800 137.0000 1.0000
43.9000 141.0000 1.0000
43.9200 137.0000 1.0000
43.9400 136.0000 1.0000
43.9600 135.0000 1.0000
43.9800 144.0000 1.0000
44.0000 128.0000 1.0000
44.0200 130.0000 1.0000
44.0400 126.0000 1.0000
44.0600 122.0000 1.0000
44.0800 118.0000 1.0000
44.1000 112.0000 1.0000
44.1200 106.0000 1.0000
44.1400 104.0000 1.0000
44.1600 123.0000 1.0000
44.1800 113.0000 1.0000
44.2000 99.0000 1.0000
44.2200 115.0000 1.0000
44.2400 98.0000 1.0000
44.2600 114.0000 1.0000
44.2800 108.0000 1.0000
44.3000 101.0000 1.0000
44.3200 122.0000 1.0000
44.3400 133.0000 1.0000
44.3600 139.0000 1.0000
44.3800 119.0000 1.0000
44.4000 119.0000 1.0000
44.4200 122.0000 1.0000
44.4400 127.0000 1.0000
44.4600 131.0000 1.0000
44.4800 125.0000 1.0000
44.5000 119.0000 1.0000
44.5200 112.0000 1.0000
44.5400 119.0000 1.0000
44.5600 115.0000 1.0000
44.5800 127.0000 1.0000
44.6000 128.0000 1.0000
44.6200 135.0000 1.0000
44.6400 111.0000 1.0000
44.6600 103.0000 1.0000
44.6800 129.0000 1.0000
44.7000 146.0000 1.0000
44.7200 137.0000 1.0000
44.7400 142.0000 1.0000
44.7600 173.0000 1.0000
44.7800 140.0000 1.0000
44.8000 178.0000 1.0000
44.8200 191.0000 1.0000
44.8400 172.0000 1.0000
44.8600 182.0000 1.0000
44.8800 188.0000 1.0000
44.9000 191.0000 1.0000
44.9200 185.0000 1.0000
44.9400 165.0000 1.0000
44.9600 205.0000 1.0000
44.9800 171.0000 1.0000
45.0000 185.0000 1.0000
45.0200 193.0000 1.0000
45.0400 179.0000 1.0000
45.0600 171.0000 1.0000
45.0800 171.0000 1.0000
45.1000 184.0000 1.0000
45.1200 203.0000 1.0000
45.1400 228.0000 1.0000
45.1600 195.0000 1.0000
45.1800 210.0000 1.0000
45.2000 229.0000 1.0000
45.2200 238.0000 1.0000
45.2400 236.0000 1.0000
45.2600 293.0000 1.0000
45.2800 271.0000 1.0000
45.3000 314.0000 1.0000
45.3200 289.0000 1.0000
45.3400 301.0000 1.0000
45.3600 298.0000 1.0000
45.3800 299.0000 1.0000
45.4000 287.0000 1.0000
45.4200 291.0000 1.0000
45.4400 276.0000 1.0000
45.4600 245.0000 1.0000
45.4800 269.0000 1.0000
45.5000 279.0000 1.0000
45.5200 271.0000 1.0000
45.5400 284.0000 1.0000
45.5600 340.0000 1.0000
45.5800 348.0000 1.0000
45.6000 456.0000 1.0000
45.6200 460.0000 1.0000
45.6400 485.0000 1.0000
45.6600 548.0000 1.0000
45.6800 533.0000 1.0000
45.7000 510.0000 1.0000
45.7200 475.0000 1.0000
45.7400 435.0000 1.0000
45.7600 400.0000 1.0000
45.7800 402.0000 1.0000
45.8000 333.0000 1.0000
45.8200 319.0000 1.0000
45.8400 285.0000 1.0000
45.8600 275.0000 1.0000
45.8800 236.0000 1.0000
45.9000 225.0000 1.0000
45.9200 211.0000 1.0000
45.9400 188.0000 1.0000
45.9600 189.0000 1.0000
45.9800 177.0000 1.0000
46.0000 162.0000 1.0000
46.0200 182.0000 1.0000
46.0400 176.0000 1.0000
46.0600 160.0000 1.0000
46.0800 162.0000 1.0000
46.1000 132.0000 1.0000
46.1200 156.0000 1.0000
46.1400 144.0000 1.0000
46.1600 141.0000 1.0000
46.1800 139.0000 1.0000
46.2000 140.0000 1.0000
46.2200 136.0000 1.0000
46.2400 138.0000 1.0000
46.2600 148.0000 1.0000
46.2800 135.0000 1.0000
46.3000 121.0000 1.0000
46.3200 128.0000 1.0000
46.3400 132.0000 1.0000
46.3600 124.0000 1.0000
46.3800 113.0000 1.0000
46.4000 123.0000 1.0000
46.4200 113.0000 1.0000
46.4400 121.0000 1.0000
46.4600 118.0000 1.0000
46.4800 115.0000 1.0000
46.5000 118.0000 1.0000
46.5200 99.0000 1.0000
46.5400 110.0000 1.0000
46.5600 106.0000 1.0000
46.5800 121.0000 1.0000
46.6000 110.0000 1.0000
46.6200 106.0000 1.0000
46.6400 121.0000 1.0000
46.6600 107.0000 1.0000
46.6800 109.0000 1.0000
46.7000 110.0000 1.0000
46.7200 109.0000 1.0000
46.7400 141.0000 1.0000
46.7600 136.0000 1.0000
46.7800 130.0000 1.0000
46.8000 138.0000 1.0000
46.8200 143.0000 1.0000
46.8400 132.0000 1.0000
46.8600 137.0000 1.0000
46.8800 151.0000 1.0000
46.9000 169.0000 1.0000
46.9200 142.0000 1.0000
46.9400 158.0000 1.0000
46.9600 159.0000 1.0000
46.9800 173.0000 1.0000
47.0000 164.0000 1.0000
47.0200 170.0000 1.0000
47.0400 145.0000 1.0000
47.0600 154.0000 1.0000
47.0800 149.0000 1.0000
47.1000 139.0000 1.0000
47.1200 141.0000 1.0000
47.1400 140.0000 1.0000
47.1600 142.0000 1.0000
47.1800 144.0000 1.0000
47.2000 127.0000 1.0000
47.2200 128.0000 1.0000
47.2400 148.0000 1.0000
47.2600 137.0000 1.0000
47.2800 124.0000 1.0000
47.3000 128.0000 1.0000
47.3200 135.0000 1.0000
47.3400 132.0000 1.0000
47.3600 118.0000 1.0000
47.3800 124.0000 1.0000
47.4000 124.0000 1.0000
47.4200 111.0000 1.0000
47.4400 130.0000 1.0000
47.4600 116.0000 1.0000
47.4800 102.0000 1.0000
47.5000 114.0000 1.0000
47.5200 103.0000 1.0000
47.5400 107.0000 1.0000
47.5600 114.0000 1.0000
47.5800 106.0000 1.0000
47.6000 97.0000 1.0000
47.6200 100.0000 1.0000
47.6400 114.0000 1.0000
47.6600 110.0000 1.0000
47.6800 114.0000 1.0000
47.7000 122.0000 1.0000
47.7200 121.0000 1.0000
47.7400 133.0000 1.0000
47.7600 137.0000 1.0000
47.7800 147.0000 1.0000
47.8000 154.0000 1.0000
47.8200 149.0000 1.0000
47.8400 163.0000 1.0000
47.8600 160.0000 1.0000
47.8800 161.0000 1.0000
47.9000 152.0000 1.0000
47.9200 167.0000 1.0000
47.9400 164.0000 1.0000
47.9600 161.0000 1.0000
47.9800 183.0000 1.0000
48.0000 185.0000 1.0000
48.0200 169.0000 1.0000
48.0400 174.0000 1.0000
48.0600 184.0000 1.0000
48.0800 181.0000 1.0000
48.1000 168.0000 1.0000
48.1200 161.0000 1.0000
48.1400 156.0000 1.0000
48.1600 159.0000 1.0000
48.1800 146.0000 1.0000
48.2000 140.0000 1.0000
48.2200 149.0000 1.0000
48.2400 142.0000 1.0000
48.2600 133.0000 1.0000
48.2800 117.0000 1.0000
48.3000 118.0000 1.0000
48.3200 119.0000 1.0000
48.3400 118.0000 1.0000
48.3600 130.0000 1.0000
48.3800 126.0000 1.0000
48.4000 124.0000 1.0000
48.4200 133.0000 1.0000
48.4400 125.0000 1.0000
48.4600 107.0000 1.0000
48.4800 113.0000 1.0000
48.5000 119.0000 1.0000
48.5200 118.0000 1.0000
48.5400 118.0000 1.0000
48.5600 120.0000 1.0000
48.5800 115.0000 1.0000
48.6000 113.0000 1.0000
48.6200 121.0000 1.0000
48.6400 123.0000 1.0000
48.6600 126.0000 1.0000
48.6800 112.0000 1.0000
48.7000 105.0000 1.0000
48.7200 118.0000 1.0000
48.7400 135.0000 1.0000
48.7600 132.0000 1.0000
48.7800 131.0000 1.0000
48.8000 145.0000 1.0000
48.8200 142.0000 1.0000
48.8400 145.0000 1.0000
48.8600 145.0000 1.0000
48.8800 136.0000 1.0000
48.9000 149.0000 1.0000
48.9200 159.0000 1.0000
48.9400 169.0000 1.0000
48.9600 174.0000 1.0000
48.9800 167.0000 1.0000
49.0000 175.0000 1.0000
49.0200 186.0000 1.0000
49.0400 181.0000 1.0000
49.0600 184.0000 1.0000
49.0800 193.0000 1.0000
49.1000 196.0000 1.0000
49.1200 204.0000 1.0000
49.1400 185.0000 1.0000
49.1600 166.0000 1.0000
49.1800 163.0000 1.0000
49.2000 171.0000 1.0000
49.2200 175.0000 1.0000
49.2400 166.0000 1.0000
49.2600 156.0000 1.0000
49.2800 153.0000 1.0000
49.3000 171.0000 1.0000
49.3200 173.0000 1.0000
49.3400 178.0000 1.0000
49.3600 174.0000 1.0000
49.3800 164.0000 1.0000
49.4000 155.0000 1.0000
49.4200 155.0000 1.0000
49.4400 162.0000 1.0000
49.4600 183.0000 1.0000
49.4800 184.0000 1.0000
49.5000 166.0000 1.0000
49.5200 179.0000 1.0000
49.5400 187.0000 1.0000
49.5600 205.0000 1.0000
49.5800 202.0000 1.0000
49.6000 199.0000 1.0000
49.6200 232.0000 1.0000
49.6400 247.0000 1.0000
49.6600 247.0000 1.0000
49.6800 234.0000 1.0000
49.7000 247.0000 1.0000
49.7200 270.0000 1.0000
49.7400 286.0000 1.0000
49.7600 329.0000 1.0000
49.7800 331.0000 1.0000
49.8000 325.0000 1.0000
49.8200 359.0000 1.0000
49.8400 402.0000 1.0000
49.8600 451.0000 1.0000
49.8800 519.0000 1.0000
49.9000 634.0000 1.0000
49.9200 752.0000 1.0000
49.9400 904.0000 1.0000
49.9600 1112.0000 1.0000
49.9800 1285.0000 1.0000
50.0000 1307.0000 1.0000
50.0200 1313.0000 1.0000
50.0400 1254.0000 1.0000
50.0600 1191.0000 1.0000
50.0800 1109.0000 1.0000
50.1000 985.0000 1.0000
50.1200 880.0000 1.0000
50.1400 809.0000 1.0000
50.1600 752.0000 1.0000
50.1800 659.0000 1.0000
50.2000 573.0000 1.0000
50.2200 452.0000 1.0000
50.2400 381.0000 1.0000
50.2600 309.0000 1.0000
50.2800 273.0000 1.0000
50.3000 254.0000 1.0000
50.3200 261.0000 1.0000
50.3400 284.0000 1.0000
50.3600 300.0000 1.0000
50.3800 301.0000 1.0000
50.4000 299.0000 1.0000
50.4200 352.0000 1.0000
50.4400 388.0000 1.0000
50.4600 410.0000 1.0000
50.4800 384.0000 1.0000
50.5000 379.0000 1.0000
50.5200 399.0000 1.0000
50.5400 392.0000 1.0000
50.5600 388.0000 1.0000
50.5800 380.0000 1.0000
50.6000 342.0000 1.0000
50.6200 332.0000 1.0000
50.6400 316.0000 1.0000
50.6600 299.0000 1.0000
50.6800 264.0000 1.0000
50.7000 246.0000 1.0000
50.7200 267.0000 1.0000
50.7400 245.0000 1.0000
50.7600 198.0000 1.0000
50.7800 204.0000 1.0000
50.8000 184.0000 1.0000
50.8200 179.0000 1.0000
50.8400 170.0000 1.0000
50.8600 174.0000 1.0000
50.8800 171.0000 1.0000
50.9000 199.0000 1.0000
50.9200 193.0000 1.0000
50.9400 196.0000 1.0000
50.9600 211.0000 1.0000
50.9800 236.0000 1.0000
51.0000 227.0000 1.0000
51.0200 226.0000 1.0000
51.0400 209.0000 1.0000
51.0600 208.0000 1.0000
51.0800 208.0000 1.0000
51.1000 214.0000 1.0000
51.1200 225.0000 1.0000
51.1400 203.0000 1.0000
51.1600 191.0000 1.0000
51.1800 169.0000 1.0000
51.2000 176.0000 1.0000
51.2200 144.0000 1.0000
51.2400 172.0000 1.0000
51.2600 154.0000 1.0000
51.2800 143.0000 1.0000
51.3000 135.0000 1.0000
51.3200 120.0000 1.0000
51.3400 125.0000 1.0000
51.3600 133.0000 1.0000
51.3800 144.0000 1.0000
51.4000 141.0000 1.0000
51.4200 123.0000 1.0000
51.4400 127.0000 1.0000
51.4600 114.0000 1.0000
51.4800 129.0000 1.0000
51.5000 126.0000 1.0000
51.5200 109.0000 1.0000
51.5400 123.0000 1.0000
51.5600 108.0000 1.0000
51.5800 114.0000 1.0000
51.6000 118.0000 1.0000
51.6200 93.0000 1.0000
51.6400 102.0000 1.0000
51.6600 102.0000 1.0000
51.6800 117.0000 1.0000
51.7000 119.0000 1.0000
51.7200 97.0000 1.0000
51.7400 110.0000 1.0000
51.7600 107.0000 1.0000
51.7800 106.0000 1.0000
51.8000 106.0000 1.0000
51.8200 114.0000 1.0000
51.8400 131.0000 1.0000
51.8600 126.0000 1.0000
51.8800 108.0000 1.0000
51.9000 128.0000 1.0000
51.9200 140.0000 1.0000
51.9400 114.0000 1.0000
51.9600 148.0000 1.0000
51.9800 131.0000 1.0000
52.0000 167.0000 1.0000
52.0200 145.0000 1.0000
52.0400 164.0000 1.0000
52.0600 166.0000 1.0000
52.0800 182.0000 1.0000
52.1000 157.0000 1.0000
52.1200 193.0000 1.0000
52.1400 177.0000 1.0000
52.1600 193.0000 1.0000
52.1800 175.0000 1.0000
52.2000 184.0000 1.0000
52.2200 198.0000 1.0000
52.2400 216.0000 1.0000
52.2600 251.0000 1.0000
52.2800 275.0000 1.0000
52.3000 333.0000 1.0000
52.3200 414.0000 1.0000
52.3400 459.0000 1.0000
52.3600 615.0000 1.0000
52.3800 688.0000 1.0000
52.4000 762.0000 1.0000
52.4200 795.0000 1.0000
52.4400 792.0000 1.0000
52.4600 763.0000 1.0000
52.4800 715.0000 1.0000
52.5000 683.0000 1.0000
52.5200 680.0000 1.0000
52.5400 549.0000 1.0000
52.5600 517.0000 1.0000
52.5800 499.0000 1.0000
52.6000 476.0000 1.0000
52.6200 374.0000 1.0000
52.6400 345.0000 1.0000
52.6600 306.0000 1.0000
52.6800 236.0000 1.0000
52.7000 215.0000 1.0000
52.7200 182.0000 1.0000
52.7400 185.0000 1.0000
52.7600 180.0000 1.0000
52.7800 152.0000 1.0000
52.8000 158.0000 1.0000
52.8200 152.0000 1.0000
52.8400 133.0000 1.0000
52.8600 149.0000 1.0000
52.8800 145.0000 1.0000
52.9000 140.0000 1.0000
52.9200 144.0000 1.0000
52.9400 153.0000 1.0000
52.9600 154.0000 1.0000
52.9800 144.0000 1.0000
53.0000 179.0000 1.0000
53.0200 175.0000 1.0000
53.0400 174.0000 1.0000
53.0600 158.0000 1.0000
53.0800 159.0000 1.0000
53.1000 180.0000 1.0000
53.1200 189.0000 1.0000
53.1400 171.0000 1.0000
53.1600 176.0000 1.0000
53.1800 175.0000 1.0000
53.2000 190.0000 1.0000
53.2200 166.0000 1.0000
53.2400 151.0000 1.0000
53.2600 149.0000 1.0000
53.2800 150.0000 1.0000
53.3000 146.0000 1.0000
53.3200 124.0000 1.0000
53.3400 138.0000 1.0000
53.3600 132.0000 1.0000
53.3800 115.0000 1.0000
53.4000 133.0000 1.0000
53.4200 131.0000 1.0000
53.4400 130.0000 1.0000
53.4600 138.0000 1.0000
53.4800 119.0000 1.0000
53.5000 116.0000 1.0000
53.5200 110.0000 1.0000
53.5400 133.0000 1.0000
53.5600 124.0000 1.0000
53.5800 115.0000 1.0000
53.6000 143.0000 1.0000
53.6200 132.0000 1.0000
53.6400 117.0000 1.0000
53.6600 119.0000 1.0000
53.6800 116.0000 1.0000
53.7000 114.0000 1.0000
53.7200 130.0000 1.0000
53.7400 141.0000 1.0000
53.7600 136.0000 1.0000
53.7800 143.0000 1.0000
53.8000 127.0000 1.0000
53.8200 125.0000 1.0000
53.8400 140.0000 1.0000
53.8600 132.0000 1.0000
53.8800 110.0000 1.0000
53.9000 119.0000 1.0000
53.9200 130.0000 1.0000
53.9400 122.0000 1.0000
53.9600 124.0000 1.0000
53.9800 118.0000 1.0000
54.0000 130.0000 1.0000
54.0200 124.0000 1.0000
54.0400 110.0000 1.0000
54.0600 109.0000 1.0000
54.0800 110.0000 1.0000
54.1000 132.0000 1.0000
54.1200 150.0000 1.0000
54.1400 142.0000 1.0000
54.1600 128.0000 1.0000
54.1800 140.0000 1.0000
54.2000 149.0000 1.0000
54.2200 131.0000 1.0000
54.2400 140.0000 1.0000
54.2600 151.0000 1.0000
54.2800 166.0000 1.0000
54.3000 166.0000 1.0000
54.3200 150.0000 1.0000
54.3400 136.0000 1.0000
54.3600 143.0000 1.0000
54.3800 131.0000 1.0000
54.4000 147.0000 1.0000
54.4200 146.0000 1.0000
54.4400 160.0000 1.0000
54.4600 142.0000 1.0000
54.4800 155.0000 1.0000
54.5000 166.0000 1.0000
54.5200 142.0000 1.0000
54.5400 163.0000 1.0000
54.5600 181.0000 1.0000
54.5800 192.0000 1.0000
54.6000 219.0000 1.0000
54.6200 240.0000 1.0000
54.6400 263.0000 1.0000
54.6600 305.0000 1.0000
54.6800 373.0000 1.0000
54.7000 406.0000 1.0000
54.7200 465.0000 1.0000
54.7400 496.0000 1.0000
54.7600 485.0000 1.0000
54.7800 466.0000 1.0000
54.8000 437.0000 1.0000
54.8200 415.0000 1.0000
54.8400 424.0000 1.0000
54.8600 404.0000 1.0000
54.8800 378.0000 1.0000
54.9000 330.0000 1.0000
54.9200 324.0000 1.0000
54.9400 328.0000 1.0000
54.9600 306.0000 1.0000
54.9800 278.0000 1.0000
55.0000 239.0000 1.0000
55.0200 217.0000 1.0000
55.0400 227.0000 1.0000
55.0600 222.0000 1.0000
55.0800 224.0000 1.0000
55.1000 241.0000 1.0000
55.1200 251.0000 1.0000
55.1400 263.0000 1.0000
55.1600 267.0000 1.0000
55.1800 291.0000 1.0000
55.2000 318.0000 1.0000
55.2200 295.0000 1.0000
55.2400 277.0000 1.0000
55.2600 270.0000 1.0000
55.2800 265.0000 1.0000
55.3000 245.0000 1.0000
55.3200 227.0000 1.0000
55.3400 233.0000 1.0000
55.3600 223.0000 1.0000
55.3800 214.0000 1.0000
55.4000 217.0000 1.0000
55.4200 205.0000 1.0000
55.4400 189.0000 1.0000
55.4600 194.0000 1.0000
55.4800 198.0000 1.0000
55.5000 185.0000 1.0000
55.5200 189.0000 1.0000
55.5400 197.0000 1.0000
55.5600 194.0000 1.0000
55.5800 198.0000 1.0000
55.6000 194.0000 1.0000
55.6200 191.0000 1.0000
55.6400 191.0000 1.0000
55.6600 197.0000 1.0000
55.6800 203.0000 1.0000
55.7000 206.0000 1.0000
55.7200 197.0000 1.0000
55.7400 183.0000 1.0000
55.7600 189.0000 1.0000
55.7800 199.0000 1.0000
55.8000 171.0000 1.0000
55.8200 153.0000 1.0000
55.8400 168.0000 1.0000
55.8600 181.0000 1.0000
55.8800 179.0000 1.0000
55.9000 156.0000 1.0000
55.9200 139.0000 1.0000
55.9400 139.0000 1.0000
55.9600 134.0000 1.0000
55.9800 143.0000 1.0000
56.0000 150.0000 1.0000
56.0200 132.0000 1.0000
56.0400 127.0000 1.0000
56.0600 136.0000 1.0000
56.0800 138.0000 1.0000
56.1000 143.0000 1.0000
56.1200 146.0000 1.0000
56.1400 133.0000 1.0000
56.1600 131.0000 1.0000
56.1800 146.0000 1.0000
56.2000 144.0000 1.0000
56.2200 139.0000 1.0000
56.2400 145.0000 1.0000
56.2600 150.0000 1.0000
56.2800 149.0000 1.0000
56.3000 139.0000 1.0000
56.3200 133.0000 1.0000
56.3400 129.0000 1.0000
56.3600 131.0000 1.0000
56.3800 129.0000 1.0000
56.4000 138.0000 1.0000
56.4200 136.0000 1.0000
56.4400 136.0000 1.0000
56.4600 144.0000 1.0000
56.4800 137.0000 1.0000
56.5000 133.0000 1.0000
56.5200 149.0000 1.0000
56.5400 152.0000 1.0000
56.5600 154.0000 1.0000
56.5800 154.0000 1.0000
56.6000 140.0000 1.0000
56.6200 130.0000 1.0000
56.6400 130.0000 1.0000
56.6600 134.0000 1.0000
56.6800 145.0000 1.0000
56.7000 151.0000 1.0000
56.7200 152.0000 1.0000
56.7400 149.0000 1.0000
56.7600 151.0000 1.0000
56.7800 143.0000 1.0000
56.8000 129.0000 1.0000
56.8200 136.0000 1.0000
56.8400 135.0000 1.0000
56.8600 135.0000 1.0000
56.8800 132.0000 1.0000
56.9000 135.0000 1.0000
56.9200 143.0000 1.0000
56.9400 158.0000 1.0000
56.9600 162.0000 1.0000
56.9800 152.0000 1.0000
57.0000 148.0000 1.0000
57.0200 169.0000 1.0000
57.0400 201.0000 1.0000
57.0600 202.0000 1.0000
57.0800 206.0000 1.0000
57.1000 224.0000 1.0000
57.1200 243.0000 1.0000
57.1400 255.0000 1.0000
57.1600 264.0000 1.0000
57.1800 298.0000 1.0000
57.2000 345.0000 1.0000
57.2200 388.0000 1.0000
57.2400 457.0000 1.0000
57.2600 549.0000 1.0000
57.2800 716.0000 1.0000
57.3000 872.0000 1.0000
57.3200 1023.0000 1.0000
57.3400 1214.0000 1.0000
57.3600 1382.0000 1.0000
57.3800 1446.0000 1.0000
57.4000 1406.0000 1.0000
57.4200 1285.0000 1.0000
57.4400 1198.0000 1.0000
57.4600 1132.0000 1.0000
57.4800 986.0000 1.0000
57.5000 894.0000 1.0000
57.5200 874.0000 1.0000
57.5400 879.0000 1.0000
57.5600 787.0000 1.0000
57.5800 669.0000 1.0000
57.6000 557.0000 1.0000
57.6200 482.0000 1.0000
57.6400 359.0000 1.0000
57.6600 301.0000 1.0000
57.6800 273.0000 1.0000
57.7000 243.0000 1.0000
57.7200 211.0000 1.0000
57.7400 191.0000 1.0000
57.7600 188.0000 1.0000
57.7800 175.0000 1.0000
57.8000 185.0000 1.0000
57.8200 166.0000 1.0000
57.8400 162.0000 1.0000
57.8600 150.0000 1.0000
57.8800 153.0000 1.0000
57.9000 155.0000 1.0000
57.9200 142.0000 1.0000
57.9400 146.0000 1.0000
57.9600 140.0000 1.0000
57.9800 137.0000 1.0000
58.0000 145.0000 1.0000
58.0200 144.0000 1.0000
58.0400 130.0000 1.0000
58.0600 123.0000 1.0000
58.0800 118.0000 1.0000
58.1000 144.0000 1.0000
58.1200 139.0000 1.0000
58.1400 129.0000 1.0000
58.1600 125.0000 1.0000
58.1800 118.0000 1.0000
58.2000 137.0000 1.0000
58.2200 140.0000 1.0000
58.2400 124.0000 1.0000
58.2600 99.0000 1.0000
58.2800 126.0000 1.0000
58.3000 131.0000 1.0000
58.3200 128.0000 1.0000
58.3400 134.0000 1.0000
58.3600 127.0000 1.0000
58.3800 129.0000 1.0000
58.4000 142.0000 1.0000
58.4200 143.0000 1.0000
58.4400 137.0000 1.0000
58.4600 166.0000 1.0000
58.4800 158.0000 1.0000
58.5000 156.0000 1.0000
58.5200 180.0000 1.0000
58.5400 183.0000 1.0000
58.5600 174.0000 1.0000
58.5800 172.0000 1.0000
58.6000 171.0000 1.0000
58.6200 195.0000 1.0000
58.6400 175.0000 1.0000
58.6600 166.0000 1.0000
58.6800 181.0000 1.0000
58.7000 177.0000 1.0000
58.7200 162.0000 1.0000
58.7400 179.0000 1.0000
58.7600 146.0000 1.0000
58.7800 160.0000 1.0000
58.8000 139.0000 1.0000
58.8200 145.0000 1.0000
58.8400 136.0000 1.0000
58.8600 158.0000 1.0000
58.8800 150.0000 1.0000
58.9000 139.0000 1.0000
58.9200 147.0000 1.0000
58.9400 155.0000 1.0000
58.9600 143.0000 1.0000
58.9800 152.0000 1.0000
59.0000 156.0000 1.0000
59.0200 137.0000 1.0000
59.0400 176.0000 1.0000
59.0600 163.0000 1.0000
59.0800 162.0000 1.0000
59.1000 163.0000 1.0000
59.1200 165.0000 1.0000
59.1400 189.0000 1.0000
59.1600 152.0000 1.0000
59.1800 159.0000 1.0000
59.2000 155.0000 1.0000
59.2200 152.0000 1.0000
59.2400 163.0000 1.0000
59.2600 158.0000 1.0000
59.2800 165.0000 1.0000
59.3000 160.0000 1.0000
59.3200 159.0000 1.0000
59.3400 146.0000 1.0000
59.3600 146.0000 1.0000
59.3800 155.0000 1.0000
59.4000 160.0000 1.0000
59.4200 162.0000 1.0000
59.4400 191.0000 1.0000
59.4600 193.0000 1.0000
59.4800 175.0000 1.0000
59.5000 191.0000 1.0000
59.5200 207.0000 1.0000
59.5400 202.0000 1.0000
59.5600 223.0000 1.0000
59.5800 217.0000 1.0000
59.6000 229.0000 1.0000
59.6200 246.0000 1.0000
59.6400 253.0000 1.0000
59.6600 275.0000 1.0000
59.6800 327.0000 1.0000
59.7000 357.0000 1.0000
59.7200 393.0000 1.0000
59.7400 454.0000 1.0000
59.7600 567.0000 1.0000
59.7800 730.0000 1.0000
59.8000 771.0000 1.0000
59.8200 878.0000 1.0000
59.8400 892.0000 1.0000
59.8600 874.0000 1.0000
59.8800 808.0000 1.0000
59.9000 762.0000 1.0000
59.9200 640.0000 1.0000
59.9400 633.0000 1.0000
59.9600 575.0000 1.0000
59.9800 526.0000 1.0000
60.0000 567.0000 1.0000
60.0200 547.0000 1.0000
60.0400 524.0000 1.0000
60.0600 436.0000 1.0000
60.0800 392.0000 1.0000
60.1000 329.0000 1.0000
60.1200 317.0000 1.0000
60.1400 249.0000 1.0000
60.1600 236.0000 1.0000
60.1800 229.0000 1.0000
60.2000 210.0000 1.0000
60.2200 191.0000 1.0000
60.2400 194.0000 1.0000
60.2600 197.0000 1.0000
60.2800 160.0000 1.0000
60.3000 177.0000 1.0000
60.3200 189.0000 1.0000
60.3400 178.0000 1.0000
60.3600 180.0000 1.0000
60.3800 193.0000 1.0000
60.4000 183.0000 1.0000
60.4200 192.0000 1.0000
60.4400 201.0000 1.0000
60.4600 163.0000 1.0000
60.4800 181.0000 1.0000
60.5000 188.0000 1.0000
60.5200 163.0000 1.0000
60.5400 151.0000 1.0000
60.5600 199.0000 1.0000
60.5800 180.0000 1.0000
60.6000 178.0000 1.0000
60.6200 176.0000 1.0000
60.6400 184.0000 1.0000
60.6600 183.0000 1.0000
60.6800 197.0000 1.0000
60.7000 164.0000 1.0000
60.7200 165.0000 1.0000
60.7400 152.0000 1.0000
60.7600 178.0000 1.0000
60.7800 157.0000 1.0000
60.8000 156.0000 1.0000
60.8200 138.0000 1.0000
60.8400 164.0000 1.0000
60.8600 155.0000 1.0000
60.8800 176.0000 1.0000
60.9000 183.0000 1.0000
60.9200 200.0000 1.0000
60.9400 199.0000 1.0000
60.9600 212.0000 1.0000
60.9800 229.0000 1.0000
61.0000 232.0000 1.0000
61.0200 235.0000 1.0000
61.0400 224.0000 1.0000
61.0600 252.0000 1.0000
61.0800 255.0000 1.0000
61.1000 252.0000 1.0000
61.1200 299.0000 1.0000
61.1400 274.0000 1.0000
61.1600 300.0000 1.0000
61.1800 353.0000 1.0000
61.2000 330.0000 1.0000
61.2200 339.0000 1.0000
61.2400 293.0000 1.0000
61.2600 318.0000 1.0000
61.2800 311.0000 1.0000
61.3000 356.0000 1.0000
61.3200 287.0000 1.0000
61.3400 323.0000 1.0000
61.3600 332.0000 1.0000
61.3800 293.0000 1.0000
61.4000 294.0000 1.0000
61.4200 298.0000 1.0000
61.4400 293.0000 1.0000
61.4600 247.0000 1.0000
61.4800 263.0000 1.0000
61.5000 250.0000 1.0000
61.5200 245.0000 1.0000
61.5400 286.0000 1.0000
61.5600 222.0000 1.0000
61.5800 235.0000 1.0000
61.6000 220.0000 1.0000
61.6200 232.0000 1.0000
61.6400 221.0000 1.0000
61.6600 192.0000 1.0000
61.6800 192.0000 1.0000
61.7000 202.0000 1.0000
61.7200 184.0000 1.0000
61.7400 175.0000 1.0000
61.7600 188.0000 1.0000
61.7800 187.0000 1.0000
61.8000 212.0000 1.0000
61.8200 190.0000 1.0000
61.8400 198.0000 1.0000
61.8600 175.0000 1.0000
61.8800 196.0000 1.0000
61.9000 173.0000 1.0000
61.9200 194.0000 1.0000
61.9400 186.0000 1.0000
61.9600 197.0000 1.0000
61.9800 150.0000 1.0000
62.0000 148.0000 1.0000
62.0200 183.0000 1.0000
62.0400 170.0000 1.0000
62.0600 162.0000 1.0000
62.0800 164.0000 1.0000
62.1000 150.0000 1.0000
62.1200 154.0000 1.0000
62.1400 157.0000 1.0000
62.1600 144.0000 1.0000
62.1800 149.0000 1.0000
62.2000 148.0000 1.0000
62.2200 134.0000 1.0000
62.2400 138.0000 1.0000
62.2600 165.0000 1.0000
62.2800 154.0000 1.0000
62.3000 137.0000 1.0000
62.3200 138.0000 1.0000
62.3400 140.0000 1.0000
62.3600 143.0000 1.0000
62.3800 129.0000 1.0000
62.4000 127.0000 1.0000
62.4200 132.0000 1.0000
62.4400 122.0000 1.0000
62.4600 134.0000 1.0000
62.4800 133.0000 1.0000
62.5000 150.0000 1.0000
62.5200 129.0000 1.0000
62.5400 130.0000 1.0000
62.5600 130.0000 1.0000
62.5800 134.0000 1.0000
62.6000 139.0000 1.0000
62.6200 128.0000 1.0000
62.6400 127.0000 1.0000
62.6600 115.0000 1.0000
62.6800 132.0000 1.0000
62.7000 132.0000 1.0000
62.7200 136.0000 1.0000
62.7400 125.0000 1.0000
62.7600 127.0000 1.0000
62.7800 132.0000 1.0000
62.8000 131.0000 1.0000
62.8200 117.0000 1.0000
62.8400 113.0000 1.0000
62.8600 129.0000 1.0000
62.8800 128.0000 1.0000
62.9000 117.0000 1.0000
62.9200 122.0000 1.0000
62.9400 104.0000 1.0000
62.9600 101.0000 1.0000
62.9800 113.0000 1.0000
63.0000 104.0000 1.0000
63.0200 105.0000 1.0000
63.0400 128.0000 1.0000
63.0600 127.0000 1.0000
63.0800 131.0000 1.0000
63.1000 102.0000 1.0000
63.1200 120.0000 1.0000
63.1400 133.0000 1.0000
63.1600 131.0000 1.0000
63.1800 138.0000 1.0000
63.2000 124.0000 1.0000
63.2200 135.0000 1.0000
63.2400 121.0000 1.0000
63.2600 122.0000 1.0000
63.2800 113.0000 1.0000
63.3000 112.0000 1.0000
63.3200 132.0000 1.0000
63.3400 166.0000 1.0000
63.3600 139.0000 1.0000
63.3800 154.0000 1.0000
63.4000 154.0000 1.0000
63.4200 154.0000 1.0000
63.4400 167.0000 1.0000
63.4600 158.0000 1.0000
63.4800 168.0000 1.0000
63.5000 145.0000 1.0000
63.5200 132.0000 1.0000
63.5400 152.0000 1.0000
63.5600 162.0000 1.0000
63.5800 166.0000 1.0000
63.6000 187.0000 1.0000
63.6200 142.0000 1.0000
63.6400 186.0000 1.0000
63.6600 183.0000 1.0000
63.6800 199.0000 1.0000
63.7000 195.0000 1.0000
63.7200 186.0000 1.0000
63.7400 190.0000 1.0000
63.7600 201.0000 1.0000
63.7800 224.0000 1.0000
63.8000 238.0000 1.0000
63.8200 223.0000 1.0000
63.8400 277.0000 1.0000
63.8600 285.0000 1.0000
63.8800 271.0000 1.0000
63.9000 284.0000 1.0000
63.9200 300.0000 1.0000
63.9400 286.0000 1.0000
63.9600 299.0000 1.0000
63.9800 278.0000 1.0000
64.0000 251.0000 1.0000
64.0200 238.0000 1.0000
64.0400 254.0000 1.0000
64.0600 238.0000 1.0000
64.0800 213.0000 1.0000
64.1000 246.0000 1.0000
64.1200 211.0000 1.0000
64.1400 190.0000 1.0000
64.1600 175.0000 1.0000
64.1800 178.0000 1.0000
64.2000 153.0000 1.0000
64.2200 141.0000 1.0000
64.2400 132.0000 1.0000
64.2600 152.0000 1.0000
64.2800 153.0000 1.0000
64.3000 153.0000 1.0000
64.3200 156.0000 1.0000
64.3400 151.0000 1.0000
64.3600 146.0000 1.0000
64.3800 138.0000 1.0000
64.4000 138.0000 1.0000
64.4200 131.0000 1.0000
64.4400 147.0000 1.0000
64.4600 142.0000 1.0000
64.4800 143.0000 1.0000
64.5000 142.0000 1.0000
64.5200 137.0000 1.0000
64.5400 128.0000 1.0000
64.5600 140.0000 1.0000
64.5800 111.0000 1.0000
64.6000 128.0000 1.0000
64.6200 136.0000 1.0000
64.6400 141.0000 1.0000
64.6600 133.0000 1.0000
64.6800 144.0000 1.0000
64.7000 146.0000 1.0000
64.7200 152.0000 1.0000
64.7400 176.0000 1.0000
64.7600 164.0000 1.0000
64.7800 151.0000 1.0000
64.8000 145.0000 1.0000
64.8200 147.0000 1.0000
64.8400 143.0000 1.0000
64.8600 147.0000 1.0000
64.8800 157.0000 1.0000
64.9000 166.0000 1.0000
64.9200 176.0000 1.0000
64.9400 175.0000 1.0000
64.9600 173.0000 1.0000
64.9800 173.0000 1.0000
65.0000 173.0000 1.0000
*RAS_INT_END
*RAS_DATA_END
