*RAS_DATA_START
*RAS_HEADER_START
*CORR_POS_DB_NAME "Angle Correction ASC6 SC WITH Mono_04082019"
*CORR_POS_GONIO_RADIUS ""
*CORR_POS_NODE_INDEX01 ""
*CORR_POS_NODE_INDEX02 ""
*CORR_POS_NODE_INDEX03 ""
*CORR_POS_NODE_INDEX04 ""
*CORR_POS_NODE_INDEX05 ""
*CORR_POS_NODE_INDEX06 ""
*CORR_POS_NODE_INDEX07 ""
*CORR_POS_NODE_INDEX08 ""
*CORR_POS_NODE_INDEX09 ""
*CORR_POS_NODE_INDEX10 ""
*CORR_POS_NODE_INDEX11 ""
*CORR_POS_NODE_LABEL01 "Si(111)"
*CORR_POS_NODE_LABEL02 "Si(220)"
*CORR_POS_NODE_LABEL03 "Si(311)"
*CORR_POS_NODE_LABEL04 "Si(400)"
*CORR_POS_NODE_LABEL05 "Si(331)"
*CORR_POS_NODE_LABEL06 "Si(422)"
*CORR_POS_NODE_LABEL07 "Si(511)"
*CORR_POS_NODE_LABEL08 "Si(440)"
*CORR_POS_NODE_LABEL09 "Si(531)"
*CORR_POS_NODE_LABEL10 "Si(620)"
*CORR_POS_NODE_LABEL11 "Si(533)"
*CORR_POS_NODE_POS_CALC01 "28.377"
*CORR_POS_NODE_POS_CALC02 "47.2506"
*CORR_POS_NODE_POS_CALC03 "56.0725"
*CORR_POS_NODE_POS_CALC04 "69.0822"
*CORR_POS_NODE_POS_CALC05 "76.3294"
*CORR_POS_NODE_POS_CALC06 "87.9853"
*CORR_POS_NODE_POS_CALC07 "94.9091"
*CORR_POS_NODE_POS_CALC08 "106.668"
*CORR_POS_NODE_POS_CALC09 "114.054"
*CORR_POS_NODE_POS_CALC10 "127.511"
*CORR_POS_NODE_POS_CALC11 "136.864"
*CORR_POS_NODE_POS_MEAS01 "28.5058"
*CORR_POS_NODE_POS_MEAS02 "47.345"
*CORR_POS_NODE_POS_MEAS03 "56.1421"
*CORR_POS_NODE_POS_MEAS04 "69.1304"
*CORR_POS_NODE_POS_MEAS05 "76.366"
*CORR_POS_NODE_POS_MEAS06 "88.0213"
*CORR_POS_NODE_POS_MEAS07 "94.9406"
*CORR_POS_NODE_POS_MEAS08 "106.689"
*CORR_POS_NODE_POS_MEAS09 "114.065"
*CORR_POS_NODE_POS_MEAS10 "127.518"
*CORR_POS_NODE_POS_MEAS11 "136.869"
*CORR_POS_OPT_ATTR "集中法"
*CORR_POS_PARAM_MU ""
*CORR_POS_PARAM_PL ""
*CORR_POS_SEMODEL_TYPE "0"
*CORR_POS_STANDARD_TYPE ""
*CORR_POS_VALUE_ANALYZER "None"
*CORR_POS_VALUE_CMONO "None"
*CORR_POS_VALUE_IMONO "None"
*CORR_POS_VALUE_IS "1.250deg"
*CORR_POS_VALUE_ISL "10.0mm"
*CORR_POS_VALUE_ISOLLER "5.0deg"
*CORR_POS_VALUE_RS1 "1.250deg"
*CORR_POS_VALUE_RS2 "0.3mm"
*CORR_POS_VALUE_RSOLLER "5.0deg"
*CORR_POS_XG_FOCUS_L ""
*CORR_POS_XG_WAVE_TYPE ""
*CORR_POS_XG_WAVE_VALUE ""
*DISP_FMT_X "%.2f"
*DISP_FMT_Y "%.0f"
*DISP_FULLSCALE "9404.4000000000"
*DISP_LINE_COLOR "255.0000000000"
*DISP_LINE_STYLE "0.0000000000"
*DISP_LINE_WIDTH "0.2500000000"
*DISP_NOTE "Collected Data-28"
*DISP_OFFSET_Y "0.0000000000"
*DISP_PEAKSEARCH_UNIT_Y "CPS"
*DISP_RANGE_BOTTOM "0.0000000000"
*DISP_RANGE_LEFT "5.0000000000"
*DISP_RANGE_LOGCUTOFF "0.0100000000"
*DISP_RANGE_RIGHT "65.0000000000"
*DISP_RANGE_TOP "9404.4000000000"
*DISP_SCALE_MODE_Y "0.0000000000"
*DISP_TAB_NAME "Theta/2-Theta"
*DISP_TITLE_Y "Intensity"
*DISP_UNIT_Y "CPS"
*DISP_WINDOW_NAME "MSG_MACROENGINE"
*FILE_COMMENT " "
*FILE_MD5 ""
*FILE_MEMO " "
*FILE_OPERATOR "Administrator"
*FILE_PART_ID "MEAS_PBEA_00223"
*FILE_SAMPLE " "
*FILE_TYPE "RAS_RAW"
*FILE_USERGROUP "System Manager"
*FILE_VERSION "1.0000000000"
*HW_ATTACHMENT_ID "ATT1031"
*HW_ATTACHMENT_NAME "6サンプルチェンジャ|ASC-6"
*HW_COUNTER_ID-0 "CUT0021"
*HW_COUNTER_ID-1 "CUT0020"
*HW_COUNTER_ID-2 "CUT0020"
*HW_COUNTER_ID-3 "CMC0021"
*HW_COUNTER_NAME-0 "SC-70|SC-70"
*HW_COUNTER_NAME-1 "None|None"
*HW_COUNTER_NAME-2 "None|None"
*HW_COUNTER_NAME-3 "検出器モノクロメータ|Detector monochromator"
*HW_COUNTER_SELECT_NAME "SC-70|SC-70"
*HW_ECP_HV "671.5000000000"
*HW_ECP_HV_UNIT "V"
*HW_GONIOMETER_ID "GON0070"
*HW_GONIOMETER_NAME "MiniFlex 300/600|MiniFlex 300/600"
*HW_GONIOMETER_RADIUS-0 "79.0"
*HW_GONIOMETER_RADIUS-1 "91.5"
*HW_GONIOMETER_RADIUS-2 "150.0"
*HW_GONIOMETER_RADIUS-3 "0"
*HW_GONIOMETER_RADIUS-4 "103.4"
*HW_GONIOMETER_RADIUS-5 "150.0"
*HW_GONIOMETER_RADIUS-6 "46.6"
*HW_GONIOMETER_RADIUS-7 "160.0"
*HW_I_OPT_ID-0 "ISL0021"
*HW_I_OPT_ID-1 "ISO0021"
*HW_I_OPT_NAME-0 "発散スリット|Divergence slit"
*HW_I_OPT_NAME-1 "入射平行スリット|Incident parallel slit"
*HW_R_ATTENUATER_AUTOMODE "0"
*HW_R_OPT_ID-0 "RSS0021"
*HW_R_OPT_ID-1 "RSO0021"
*HW_R_OPT_ID-2 "RRS0021"
*HW_R_OPT_NAME-0 "散乱スリット|Scattering slit"
*HW_R_OPT_NAME-1 "受光平行スリット|Receiving soller slit"
*HW_R_OPT_NAME-2 "受光スリット|Receiving slit"
*HW_SAMPLE_HOLDER_ID "SMP0000"
*HW_SAMPLE_HOLDER_NAME "無し|None"
*HW_XG_CURRENT_MAX "15"
*HW_XG_CURRENT_MIN "2"
*HW_XG_CURRENT_RESOLUTION "1"
*HW_XG_CURRENT_UNIT "mA"
*HW_XG_FOCUS "1mm x 10mm"
*HW_XG_FOCUS_TYPE "Normal"
*HW_XG_ID "1060"
*HW_XG_NAME "300W/600W 封入管-B|300W/600W Sealed tube-B"
*HW_XG_TARGET_ATOMIC_NUMBER "29.0000000000"
*HW_XG_TARGET_NAME "Cu"
*HW_XG_TYPE "Hermetic"
*HW_XG_VOLTAGE_MAX "40"
*HW_XG_VOLTAGE_MIN "20"
*HW_XG_VOLTAGE_RESOLUTION "1"
*HW_XG_VOLTAGE_UNIT "kV"
*HW_XG_WATT_MAX "0.600"
*HW_XG_WATT_UNIT "kW"
*HW_XG_WAVE_LENGTH_ALPHA1 "1.540593"
*HW_XG_WAVE_LENGTH_ALPHA2 "1.544414"
*HW_XG_WAVE_LENGTH_BETA "1.392250"
*MEAS_COND_AXIS_NAME-0 "Theta/2-Theta"
*MEAS_COND_AXIS_NAME-1 "Spin"
*MEAS_COND_AXIS_NAME-2 "Change"
*MEAS_COND_AXIS_NAME-3 "Soller(inc.)"
*MEAS_COND_AXIS_NAME-4 "IHS"
*MEAS_COND_AXIS_NAME-5 "DS"
*MEAS_COND_AXIS_NAME-6 "SS"
*MEAS_COND_AXIS_NAME-7 "Soller(rec.)"
*MEAS_COND_AXIS_NAME-8 "RS"
*MEAS_COND_AXIS_NAME-9 "Filter"
*MEAS_COND_AXIS_NAME-10 "Monochromator"
*MEAS_COND_AXIS_NAME-11 "HV"
*MEAS_COND_AXIS_NAME-12 "PHA"
*MEAS_COND_AXIS_NAME_INTERNAL-0 "TwoThetaTheta"
*MEAS_COND_AXIS_NAME_INTERNAL-1 "Spin"
*MEAS_COND_AXIS_NAME_INTERNAL-2 "Change"
*MEAS_COND_AXIS_NAME_INTERNAL-3 "IncidentSollerSlit"
*MEAS_COND_AXIS_NAME_INTERNAL-4 "IncidentAxdSlit"
*MEAS_COND_AXIS_NAME_INTERNAL-5 "IncidentSlitBox"
*MEAS_COND_AXIS_NAME_INTERNAL-6 "ReceivingSlitBox1"
*MEAS_COND_AXIS_NAME_INTERNAL-7 "ReceivingSollerSlit"
*MEAS_COND_AXIS_NAME_INTERNAL-8 "ReceivingSlitBox2"
*MEAS_COND_AXIS_NAME_INTERNAL-9 "Filter"
*MEAS_COND_AXIS_NAME_INTERNAL-10 "CounterMonochromator"
*MEAS_COND_AXIS_NAME_INTERNAL-11 "HV"
*MEAS_COND_AXIS_NAME_INTERNAL-12 "PHA"
*MEAS_COND_AXIS_NAME_MAGICNO-0 "268632064.0000000000"
*MEAS_COND_AXIS_NAME_MAGICNO-1 "16842752.0000000000"
*MEAS_COND_AXIS_NAME_MAGICNO-2 "16842752.0000000000"
*MEAS_COND_AXIS_NAME_MAGICNO-3 "20971521.0000000000"
*MEAS_COND_AXIS_NAME_MAGICNO-4 "22020097.0000000000"
*MEAS_COND_AXIS_NAME_MAGICNO-5 "22020097.0000000000"
*MEAS_COND_AXIS_NAME_MAGICNO-6 "23068673.0000000000"
*MEAS_COND_AXIS_NAME_MAGICNO-7 "20971521.0000000000"
*MEAS_COND_AXIS_NAME_MAGICNO-8 "23068673.0000000000"
*MEAS_COND_AXIS_NAME_MAGICNO-9 "20971521.0000000000"
*MEAS_COND_AXIS_NAME_MAGICNO-10 "20971521.0000000000"
*MEAS_COND_AXIS_NAME_MAGICNO-11 "0.0000000000"
*MEAS_COND_AXIS_NAME_MAGICNO-12 "0.0000000000"
*MEAS_COND_AXIS_OFFSET-0 "0.0000000000"
*MEAS_COND_AXIS_OFFSET-1 "-"
*MEAS_COND_AXIS_OFFSET-2 "-"
*MEAS_COND_AXIS_OFFSET-3 "-"
*MEAS_COND_AXIS_OFFSET-4 "-"
*MEAS_COND_AXIS_OFFSET-5 "-"
*MEAS_COND_AXIS_OFFSET-6 "-"
*MEAS_COND_AXIS_OFFSET-7 "-"
*MEAS_COND_AXIS_OFFSET-8 "-"
*MEAS_COND_AXIS_OFFSET-9 "-"
*MEAS_COND_AXIS_OFFSET-10 "-"
*MEAS_COND_AXIS_OFFSET-11 "-"
*MEAS_COND_AXIS_OFFSET-12 "-"
*MEAS_COND_AXIS_POSITION-0 "65.0000000000"
*MEAS_COND_AXIS_POSITION-1 "0.0000000000"
*MEAS_COND_AXIS_POSITION-2 "2.0000000000"
*MEAS_COND_AXIS_POSITION-3 "5.0deg"
*MEAS_COND_AXIS_POSITION-4 "10.0mm"
*MEAS_COND_AXIS_POSITION-5 "1.250deg"
*MEAS_COND_AXIS_POSITION-6 "1.250deg"
*MEAS_COND_AXIS_POSITION-7 "5.0deg"
*MEAS_COND_AXIS_POSITION-8 "0.3mm"
*MEAS_COND_AXIS_POSITION-9 "None"
*MEAS_COND_AXIS_POSITION-10 "Bent"
*MEAS_COND_AXIS_POSITION-11 "671.5000000000"
*MEAS_COND_AXIS_POSITION-12 "551.2500000000"
*MEAS_COND_AXIS_UNIT-0 "deg"
*MEAS_COND_AXIS_UNIT-1 ""
*MEAS_COND_AXIS_UNIT-2 ""
*MEAS_COND_AXIS_UNIT-3 ""
*MEAS_COND_AXIS_UNIT-4 ""
*MEAS_COND_AXIS_UNIT-5 ""
*MEAS_COND_AXIS_UNIT-6 ""
*MEAS_COND_AXIS_UNIT-7 ""
*MEAS_COND_AXIS_UNIT-8 ""
*MEAS_COND_AXIS_UNIT-9 ""
*MEAS_COND_AXIS_UNIT-10 ""
*MEAS_COND_AXIS_UNIT-11 "V"
*MEAS_COND_AXIS_UNIT-12 "mV"
*MEAS_COND_CORRECTION_SLIT_COUNTERMONO "None"
*MEAS_COND_CORRECTION_SLIT_DS "1.250deg"
*MEAS_COND_CORRECTION_SLIT_FILTER "None"
*MEAS_COND_CORRECTION_SLIT_IHS "10.0mm"
*MEAS_COND_CORRECTION_SLIT_RS "0.3mm"
*MEAS_COND_CORRECTION_SLIT_SOLLER_INC "5.0deg"
*MEAS_COND_CORRECTION_SLIT_SOLLER_REC "5.0deg"
*MEAS_COND_CORRECTION_SLIT_SS "1.250deg"
*MEAS_COND_COUNTER_CNTLOSS_CORR "0.0000000000"
*MEAS_COND_COUNTER_PHABASE "551.2500000000"
*MEAS_COND_COUNTER_PHAWINDOW "926.2500000000"
*MEAS_COND_COUNTER_PHA_UNIT "mV"
*MEAS_COND_COUNTER_TAUDIFF "0.2500000000"
*MEAS_COND_COUNTER_TAUINT "0.7500000000"
*MEAS_COND_IRRADIATION_MODE "OFF"
*MEAS_COND_IRRADIATION_WIDTH ""
*MEAS_COND_OPT_ATTR " "
*MEAS_COND_OPT_NAME ""
*MEAS_COND_UNSYMMETRIC_MODE "OFF"
*MEAS_COND_XG_CURRENT "15.0000000000"
*MEAS_COND_XG_VOLTAGE "40.0000000000"
*MEAS_COND_XG_WAVE_TYPE "Ka"
*MEAS_DATA_COUNT "3001.0000000000"
*MEAS_SCAN_AXIS_X "Theta/2-Theta"
*MEAS_SCAN_AXIS_X_INTERNAL "TwoThetaTheta"
*MEAS_SCAN_END_TIME "05/08/25 22:02:02"
*MEAS_SCAN_MODE "STEP"
*MEAS_SCAN_MONITOR "0"
*MEAS_SCAN_RESOLUTION_X "0.0025"
*MEAS_SCAN_SPEED "2.00"
*MEAS_SCAN_SPEED_UNIT "sec."
*MEAS_SCAN_SPEED_USER "2.00"
*MEAS_SCAN_START "5.0000000000"
*MEAS_SCAN_START_TIME "05/08/25 20:16:46"
*MEAS_SCAN_STEP "0.0200000000"
*MEAS_SCAN_STOP "65.0000000000"
*MEAS_SCAN_UNIT_X "deg"
*MEAS_SCAN_UNIT_Y "counts"
*SLIT_SYSTEM "0"
*RAS_HEADER_END
*RAS_INT_START
5.0000 807.0000 1.0000
5.0200 829.0000 1.0000
5.0400 834.0000 1.0000
5.0600 694.0000 1.0000
5.0800 779.0000 1.0000
5.1000 754.0000 1.0000
5.1200 788.0000 1.0000
5.1400 723.0000 1.0000
5.1600 669.0000 1.0000
5.1800 743.0000 1.0000
5.2000 862.0000 1.0000
5.2200 834.0000 1.0000
5.2400 748.0000 1.0000
5.2600 728.0000 1.0000
5.2800 693.0000 1.0000
5.3000 736.0000 1.0000
5.3200 797.0000 1.0000
5.3400 846.0000 1.0000
5.3600 742.0000 1.0000
5.3800 781.0000 1.0000
5.4000 705.0000 1.0000
5.4200 696.0000 1.0000
5.4400 779.0000 1.0000
5.4600 752.0000 1.0000
5.4800 780.0000 1.0000
5.5000 740.0000 1.0000
5.5200 616.0000 1.0000
5.5400 634.0000 1.0000
5.5600 631.0000 1.0000
5.5800 679.0000 1.0000
5.6000 684.0000 1.0000
5.6200 688.0000 1.0000
5.6400 675.0000 1.0000
5.6600 657.0000 1.0000
5.6800 664.0000 1.0000
5.7000 727.0000 1.0000
5.7200 682.0000 1.0000
5.7400 618.0000 1.0000
5.7600 658.0000 1.0000
5.7800 646.0000 1.0000
5.8000 580.0000 1.0000
5.8200 603.0000 1.0000
5.8400 624.0000 1.0000
5.8600 641.0000 1.0000
5.8800 632.0000 1.0000
5.9000 665.0000 1.0000
5.9200 615.0000 1.0000
5.9400 569.0000 1.0000
5.9600 661.0000 1.0000
5.9800 621.0000 1.0000
6.0000 644.0000 1.0000
6.0200 614.0000 1.0000
6.0400 600.0000 1.0000
6.0600 582.0000 1.0000
6.0800 584.0000 1.0000
6.1000 594.0000 1.0000
6.1200 610.0000 1.0000
6.1400 557.0000 1.0000
6.1600 543.0000 1.0000
6.1800 535.0000 1.0000
6.2000 551.0000 1.0000
6.2200 589.0000 1.0000
6.2400 569.0000 1.0000
6.2600 579.0000 1.0000
6.2800 580.0000 1.0000
6.3000 584.0000 1.0000
6.3200 570.0000 1.0000
6.3400 536.0000 1.0000
6.3600 517.0000 1.0000
6.3800 574.0000 1.0000
6.4000 505.0000 1.0000
6.4200 489.0000 1.0000
6.4400 505.0000 1.0000
6.4600 529.0000 1.0000
6.4800 539.0000 1.0000
6.5000 486.0000 1.0000
6.5200 484.0000 1.0000
6.5400 517.0000 1.0000
6.5600 532.0000 1.0000
6.5800 525.0000 1.0000
6.6000 529.0000 1.0000
6.6200 556.0000 1.0000
6.6400 512.0000 1.0000
6.6600 482.0000 1.0000
6.6800 506.0000 1.0000
6.7000 507.0000 1.0000
6.7200 520.0000 1.0000
6.7400 496.0000 1.0000
6.7600 442.0000 1.0000
6.7800 446.0000 1.0000
6.8000 472.0000 1.0000
6.8200 507.0000 1.0000
6.8400 516.0000 1.0000
6.8600 506.0000 1.0000
6.8800 440.0000 1.0000
6.9000 398.0000 1.0000
6.9200 453.0000 1.0000
6.9400 471.0000 1.0000
6.9600 491.0000 1.0000
6.9800 506.0000 1.0000
7.0000 483.0000 1.0000
7.0200 482.0000 1.0000
7.0400 475.0000 1.0000
7.0600 455.0000 1.0000
7.0800 435.0000 1.0000
7.1000 413.0000 1.0000
7.1200 415.0000 1.0000
7.1400 432.0000 1.0000
7.1600 457.0000 1.0000
7.1800 445.0000 1.0000
7.2000 420.0000 1.0000
7.2200 427.0000 1.0000
7.2400 441.0000 1.0000
7.2600 445.0000 1.0000
7.2800 418.0000 1.0000
7.3000 404.0000 1.0000
7.3200 396.0000 1.0000
7.3400 405.0000 1.0000
7.3600 411.0000 1.0000
7.3800 433.0000 1.0000
7.4000 432.0000 1.0000
7.4200 408.0000 1.0000
7.4400 414.0000 1.0000
7.4600 386.0000 1.0000
7.4800 390.0000 1.0000
7.5000 389.0000 1.0000
7.5200 368.0000 1.0000
7.5400 394.0000 1.0000
7.5600 440.0000 1.0000
7.5800 436.0000 1.0000
7.6000 430.0000 1.0000
7.6200 412.0000 1.0000
7.6400 384.0000 1.0000
7.6600 363.0000 1.0000
7.6800 355.0000 1.0000
7.7000 357.0000 1.0000
7.7200 356.0000 1.0000
7.7400 360.0000 1.0000
7.7600 385.0000 1.0000
7.7800 370.0000 1.0000
7.8000 381.0000 1.0000
7.8200 420.0000 1.0000
7.8400 381.0000 1.0000
7.8600 371.0000 1.0000
7.8800 386.0000 1.0000
7.9000 407.0000 1.0000
7.9200 384.0000 1.0000
7.9400 386.0000 1.0000
7.9600 385.0000 1.0000
7.9800 379.0000 1.0000
8.0000 385.0000 1.0000
8.0200 370.0000 1.0000
8.0400 374.0000 1.0000
8.0600 380.0000 1.0000
8.0800 379.0000 1.0000
8.1000 401.0000 1.0000
8.1200 444.0000 1.0000
8.1400 454.0000 1.0000
8.1600 421.0000 1.0000
8.1800 500.0000 1.0000
8.2000 524.0000 1.0000
8.2200 548.0000 1.0000
8.2400 537.0000 1.0000
8.2600 568.0000 1.0000
8.2800 598.0000 1.0000
8.3000 590.0000 1.0000
8.3200 633.0000 1.0000
8.3400 674.0000 1.0000
8.3600 708.0000 1.0000
8.3800 734.0000 1.0000
8.4000 807.0000 1.0000
8.4200 919.0000 1.0000
8.4400 1018.0000 1.0000
8.4600 1109.0000 1.0000
8.4800 1188.0000 1.0000
8.5000 1288.0000 1.0000
8.5200 1520.0000 1.0000
8.5400 1737.0000 1.0000
8.5600 2154.0000 1.0000
8.5800 2526.0000 1.0000
8.6000 2987.0000 1.0000
8.6200 3516.0000 1.0000
8.6400 3929.0000 1.0000
8.6600 4350.0000 1.0000
8.6800 4185.0000 1.0000
8.7000 3559.0000 1.0000
8.7200 3032.0000 1.0000
8.7400 2279.0000 1.0000
8.7600 1346.0000 1.0000
8.7800 813.0000 1.0000
8.8000 541.0000 1.0000
8.8200 434.0000 1.0000
8.8400 385.0000 1.0000
8.8600 333.0000 1.0000
8.8800 318.0000 1.0000
8.9000 313.0000 1.0000
8.9200 291.0000 1.0000
8.9400 307.0000 1.0000
8.9600 309.0000 1.0000
8.9800 295.0000 1.0000
9.0000 274.0000 1.0000
9.0200 263.0000 1.0000
9.0400 287.0000 1.0000
9.0600 287.0000 1.0000
9.0800 261.0000 1.0000
9.1000 259.0000 1.0000
9.1200 248.0000 1.0000
9.1400 254.0000 1.0000
9.1600 267.0000 1.0000
9.1800 252.0000 1.0000
9.2000 264.0000 1.0000
9.2200 239.0000 1.0000
9.2400 275.0000 1.0000
9.2600 224.0000 1.0000
9.2800 207.0000 1.0000
9.3000 225.0000 1.0000
9.3200 213.0000 1.0000
9.3400 224.0000 1.0000
9.3600 240.0000 1.0000
9.3800 245.0000 1.0000
9.4000 215.0000 1.0000
9.4200 230.0000 1.0000
9.4400 232.0000 1.0000
9.4600 237.0000 1.0000
9.4800 229.0000 1.0000
9.5000 236.0000 1.0000
9.5200 208.0000 1.0000
9.5400 208.0000 1.0000
9.5600 268.0000 1.0000
9.5800 224.0000 1.0000
9.6000 212.0000 1.0000
9.6200 233.0000 1.0000
9.6400 237.0000 1.0000
9.6600 205.0000 1.0000
9.6800 201.0000 1.0000
9.7000 208.0000 1.0000
9.7200 204.0000 1.0000
9.7400 225.0000 1.0000
9.7600 197.0000 1.0000
9.7800 176.0000 1.0000
9.8000 235.0000 1.0000
9.8200 190.0000 1.0000
9.8400 201.0000 1.0000
9.8600 210.0000 1.0000
9.8800 221.0000 1.0000
9.9000 179.0000 1.0000
9.9200 168.0000 1.0000
9.9400 190.0000 1.0000
9.9600 184.0000 1.0000
9.9800 208.0000 1.0000
10.0000 228.0000 1.0000
10.0200 187.0000 1.0000
10.0400 216.0000 1.0000
10.0600 190.0000 1.0000
10.0800 206.0000 1.0000
10.1000 194.0000 1.0000
10.1200 190.0000 1.0000
10.1400 170.0000 1.0000
10.1600 171.0000 1.0000
10.1800 215.0000 1.0000
10.2000 202.0000 1.0000
10.2200 258.0000 1.0000
10.2400 204.0000 1.0000
10.2600 171.0000 1.0000
10.2800 193.0000 1.0000
10.3000 187.0000 1.0000
10.3200 149.0000 1.0000
10.3400 244.0000 1.0000
10.3600 186.0000 1.0000
10.3800 211.0000 1.0000
10.4000 232.0000 1.0000
10.4200 203.0000 1.0000
10.4400 201.0000 1.0000
10.4600 172.0000 1.0000
10.4800 180.0000 1.0000
10.5000 171.0000 1.0000
10.5200 197.0000 1.0000
10.5400 168.0000 1.0000
10.5600 182.0000 1.0000
10.5800 194.0000 1.0000
10.6000 189.0000 1.0000
10.6200 180.0000 1.0000
10.6400 192.0000 1.0000
10.6600 189.0000 1.0000
10.6800 194.0000 1.0000
10.7000 157.0000 1.0000
10.7200 150.0000 1.0000
10.7400 178.0000 1.0000
10.7600 198.0000 1.0000
10.7800 177.0000 1.0000
10.8000 192.0000 1.0000
10.8200 237.0000 1.0000
10.8400 207.0000 1.0000
10.8600 196.0000 1.0000
10.8800 191.0000 1.0000
10.9000 180.0000 1.0000
10.9200 187.0000 1.0000
10.9400 186.0000 1.0000
10.9600 184.0000 1.0000
10.9800 179.0000 1.0000
11.0000 163.0000 1.0000
11.0200 185.0000 1.0000
11.0400 198.0000 1.0000
11.0600 179.0000 1.0000
11.0800 196.0000 1.0000
11.1000 179.0000 1.0000
11.1200 143.0000 1.0000
11.1400 151.0000 1.0000
11.1600 164.0000 1.0000
11.1800 164.0000 1.0000
11.2000 157.0000 1.0000
11.2200 153.0000 1.0000
11.2400 188.0000 1.0000
11.2600 161.0000 1.0000
11.2800 172.0000 1.0000
11.3000 161.0000 1.0000
11.3200 155.0000 1.0000
11.3400 157.0000 1.0000
11.3600 151.0000 1.0000
11.3800 143.0000 1.0000
11.4000 159.0000 1.0000
11.4200 152.0000 1.0000
11.4400 162.0000 1.0000
11.4600 186.0000 1.0000
11.4800 155.0000 1.0000
11.5000 143.0000 1.0000
11.5200 151.0000 1.0000
11.5400 152.0000 1.0000
11.5600 176.0000 1.0000
11.5800 178.0000 1.0000
11.6000 148.0000 1.0000
11.6200 138.0000 1.0000
11.6400 145.0000 1.0000
11.6600 154.0000 1.0000
11.6800 159.0000 1.0000
11.7000 137.0000 1.0000
11.7200 176.0000 1.0000
11.7400 147.0000 1.0000
11.7600 148.0000 1.0000
11.7800 165.0000 1.0000
11.8000 144.0000 1.0000
11.8200 161.0000 1.0000
11.8400 160.0000 1.0000
11.8600 150.0000 1.0000
11.8800 128.0000 1.0000
11.9000 145.0000 1.0000
11.9200 133.0000 1.0000
11.9400 136.0000 1.0000
11.9600 150.0000 1.0000
11.9800 153.0000 1.0000
12.0000 164.0000 1.0000
12.0200 152.0000 1.0000
12.0400 137.0000 1.0000
12.0600 150.0000 1.0000
12.0800 139.0000 1.0000
12.1000 133.0000 1.0000
12.1200 140.0000 1.0000
12.1400 165.0000 1.0000
12.1600 151.0000 1.0000
12.1800 152.0000 1.0000
12.2000 156.0000 1.0000
12.2200 144.0000 1.0000
12.2400 177.0000 1.0000
12.2600 171.0000 1.0000
12.2800 177.0000 1.0000
12.3000 135.0000 1.0000
12.3200 140.0000 1.0000
12.3400 142.0000 1.0000
12.3600 160.0000 1.0000
12.3800 159.0000 1.0000
12.4000 176.0000 1.0000
12.4200 169.0000 1.0000
12.4400 132.0000 1.0000
12.4600 117.0000 1.0000
12.4800 123.0000 1.0000
12.5000 138.0000 1.0000
12.5200 143.0000 1.0000
12.5400 163.0000 1.0000
12.5600 141.0000 1.0000
12.5800 162.0000 1.0000
12.6000 123.0000 1.0000
12.6200 127.0000 1.0000
12.6400 126.0000 1.0000
12.6600 134.0000 1.0000
12.6800 148.0000 1.0000
12.7000 149.0000 1.0000
12.7200 144.0000 1.0000
12.7400 125.0000 1.0000
12.7600 135.0000 1.0000
12.7800 152.0000 1.0000
12.8000 167.0000 1.0000
12.8200 155.0000 1.0000
12.8400 144.0000 1.0000
12.8600 148.0000 1.0000
12.8800 139.0000 1.0000
12.9000 146.0000 1.0000
12.9200 151.0000 1.0000
12.9400 146.0000 1.0000
12.9600 170.0000 1.0000
12.9800 156.0000 1.0000
13.0000 148.0000 1.0000
13.0200 147.0000 1.0000
13.0400 155.0000 1.0000
13.0600 163.0000 1.0000
13.0800 139.0000 1.0000
13.1000 153.0000 1.0000
13.1200 173.0000 1.0000
13.1400 169.0000 1.0000
13.1600 165.0000 1.0000
13.1800 159.0000 1.0000
13.2000 142.0000 1.0000
13.2200 147.0000 1.0000
13.2400 148.0000 1.0000
13.2600 158.0000 1.0000
13.2800 155.0000 1.0000
13.3000 172.0000 1.0000
13.3200 160.0000 1.0000
13.3400 170.0000 1.0000
13.3600 193.0000 1.0000
13.3800 204.0000 1.0000
13.4000 193.0000 1.0000
13.4200 192.0000 1.0000
13.4400 207.0000 1.0000
13.4600 217.0000 1.0000
13.4800 192.0000 1.0000
13.5000 220.0000 1.0000
13.5200 245.0000 1.0000
13.5400 240.0000 1.0000
13.5600 228.0000 1.0000
13.5800 262.0000 1.0000
13.6000 266.0000 1.0000
13.6200 282.0000 1.0000
13.6400 296.0000 1.0000
13.6600 293.0000 1.0000
13.6800 306.0000 1.0000
13.7000 280.0000 1.0000
13.7200 271.0000 1.0000
13.7400 259.0000 1.0000
13.7600 241.0000 1.0000
13.7800 198.0000 1.0000
13.8000 179.0000 1.0000
13.8200 171.0000 1.0000
13.8400 150.0000 1.0000
13.8600 143.0000 1.0000
13.8800 138.0000 1.0000
13.9000 141.0000 1.0000
13.9200 145.0000 1.0000
13.9400 148.0000 1.0000
13.9600 130.0000 1.0000
13.9800 124.0000 1.0000
14.0000 131.0000 1.0000
14.0200 125.0000 1.0000
14.0400 115.0000 1.0000
14.0600 126.0000 1.0000
14.0800 130.0000 1.0000
14.1000 123.0000 1.0000
14.1200 125.0000 1.0000
14.1400 116.0000 1.0000
14.1600 112.0000 1.0000
14.1800 112.0000 1.0000
14.2000 119.0000 1.0000
14.2200 125.0000 1.0000
14.2400 135.0000 1.0000
14.2600 121.0000 1.0000
14.2800 126.0000 1.0000
14.3000 119.0000 1.0000
14.3200 120.0000 1.0000
14.3400 133.0000 1.0000
14.3600 126.0000 1.0000
14.3800 128.0000 1.0000
14.4000 123.0000 1.0000
14.4200 125.0000 1.0000
14.4400 121.0000 1.0000
14.4600 117.0000 1.0000
14.4800 122.0000 1.0000
14.5000 124.0000 1.0000
14.5200 134.0000 1.0000
14.5400 136.0000 1.0000
14.5600 130.0000 1.0000
14.5800 121.0000 1.0000
14.6000 119.0000 1.0000
14.6200 137.0000 1.0000
14.6400 150.0000 1.0000
14.6600 160.0000 1.0000
14.6800 167.0000 1.0000
14.7000 153.0000 1.0000
14.7200 170.0000 1.0000
14.7400 191.0000 1.0000
14.7600 183.0000 1.0000
14.7800 185.0000 1.0000
14.8000 192.0000 1.0000
14.8200 193.0000 1.0000
14.8400 179.0000 1.0000
14.8600 159.0000 1.0000
14.8800 159.0000 1.0000
14.9000 171.0000 1.0000
14.9200 168.0000 1.0000
14.9400 155.0000 1.0000
14.9600 149.0000 1.0000
14.9800 145.0000 1.0000
15.0000 131.0000 1.0000
15.0200 121.0000 1.0000
15.0400 121.0000 1.0000
15.0600 117.0000 1.0000
15.0800 127.0000 1.0000
15.1000 143.0000 1.0000
15.1200 137.0000 1.0000
15.1400 121.0000 1.0000
15.1600 122.0000 1.0000
15.1800 132.0000 1.0000
15.2000 122.0000 1.0000
15.2200 107.0000 1.0000
15.2400 112.0000 1.0000
15.2600 119.0000 1.0000
15.2800 119.0000 1.0000
15.3000 126.0000 1.0000
15.3200 120.0000 1.0000
15.3400 115.0000 1.0000
15.3600 118.0000 1.0000
15.3800 110.0000 1.0000
15.4000 117.0000 1.0000
15.4200 115.0000 1.0000
15.4400 99.0000 1.0000
15.4600 105.0000 1.0000
15.4800 112.0000 1.0000
15.5000 115.0000 1.0000
15.5200 124.0000 1.0000
15.5400 130.0000 1.0000
15.5600 129.0000 1.0000
15.5800 120.0000 1.0000
15.6000 122.0000 1.0000
15.6200 132.0000 1.0000
15.6400 134.0000 1.0000
15.6600 124.0000 1.0000
15.6800 121.0000 1.0000
15.7000 128.0000 1.0000
15.7200 116.0000 1.0000
15.7400 118.0000 1.0000
15.7600 130.0000 1.0000
15.7800 119.0000 1.0000
15.8000 121.0000 1.0000
15.8200 109.0000 1.0000
15.8400 95.0000 1.0000
15.8600 105.0000 1.0000
15.8800 104.0000 1.0000
15.9000 99.0000 1.0000
15.9200 106.0000 1.0000
15.9400 117.0000 1.0000
15.9600 111.0000 1.0000
15.9800 108.0000 1.0000
16.0000 98.0000 1.0000
16.0200 102.0000 1.0000
16.0400 112.0000 1.0000
16.0600 101.0000 1.0000
16.0800 103.0000 1.0000
16.1000 111.0000 1.0000
16.1200 107.0000 1.0000
16.1400 113.0000 1.0000
16.1600 129.0000 1.0000
16.1800 137.0000 1.0000
16.2000 116.0000 1.0000
16.2200 114.0000 1.0000
16.2400 125.0000 1.0000
16.2600 107.0000 1.0000
16.2800 96.0000 1.0000
16.3000 114.0000 1.0000
16.3200 118.0000 1.0000
16.3400 119.0000 1.0000
16.3600 110.0000 1.0000
16.3800 103.0000 1.0000
16.4000 109.0000 1.0000
16.4200 108.0000 1.0000
16.4400 106.0000 1.0000
16.4600 98.0000 1.0000
16.4800 99.0000 1.0000
16.5000 111.0000 1.0000
16.5200 105.0000 1.0000
16.5400 93.0000 1.0000
16.5600 110.0000 1.0000
16.5800 111.0000 1.0000
16.6000 97.0000 1.0000
16.6200 105.0000 1.0000
16.6400 109.0000 1.0000
16.6600 105.0000 1.0000
16.6800 107.0000 1.0000
16.7000 108.0000 1.0000
16.7200 104.0000 1.0000
16.7400 118.0000 1.0000
16.7600 129.0000 1.0000
16.7800 111.0000 1.0000
16.8000 110.0000 1.0000
16.8200 100.0000 1.0000
16.8400 93.0000 1.0000
16.8600 100.0000 1.0000
16.8800 102.0000 1.0000
16.9000 101.0000 1.0000
16.9200 107.0000 1.0000
16.9400 121.0000 1.0000
16.9600 117.0000 1.0000
16.9800 110.0000 1.0000
17.0000 118.0000 1.0000
17.0200 98.0000 1.0000
17.0400 97.0000 1.0000
17.0600 118.0000 1.0000
17.0800 117.0000 1.0000
17.1000 105.0000 1.0000
17.1200 116.0000 1.0000
17.1400 117.0000 1.0000
17.1600 115.0000 1.0000
17.1800 118.0000 1.0000
17.2000 135.0000 1.0000
17.2200 119.0000 1.0000
17.2400 124.0000 1.0000
17.2600 129.0000 1.0000
17.2800 130.0000 1.0000
17.3000 139.0000 1.0000
17.3200 150.0000 1.0000
17.3400 159.0000 1.0000
17.3600 164.0000 1.0000
17.3800 173.0000 1.0000
17.4000 201.0000 1.0000
17.4200 226.0000 1.0000
17.4400 243.0000 1.0000
17.4600 281.0000 1.0000
17.4800 320.0000 1.0000
17.5000 345.0000 1.0000
17.5200 419.0000 1.0000
17.5400 455.0000 1.0000
17.5600 465.0000 1.0000
17.5800 520.0000 1.0000
17.6000 514.0000 1.0000
17.6200 479.0000 1.0000
17.6400 452.0000 1.0000
17.6600 348.0000 1.0000
17.6800 250.0000 1.0000
17.7000 197.0000 1.0000
17.7200 159.0000 1.0000
17.7400 145.0000 1.0000
17.7600 137.0000 1.0000
17.7800 129.0000 1.0000
17.8000 123.0000 1.0000
17.8200 118.0000 1.0000
17.8400 118.0000 1.0000
17.8600 104.0000 1.0000
17.8800 111.0000 1.0000
17.9000 107.0000 1.0000
17.9200 101.0000 1.0000
17.9400 114.0000 1.0000
17.9600 114.0000 1.0000
17.9800 111.0000 1.0000
18.0000 111.0000 1.0000
18.0200 100.0000 1.0000
18.0400 97.0000 1.0000
18.0600 109.0000 1.0000
18.0800 97.0000 1.0000
18.1000 108.0000 1.0000
18.1200 114.0000 1.0000
18.1400 90.0000 1.0000
18.1600 99.0000 1.0000
18.1800 107.0000 1.0000
18.2000 104.0000 1.0000
18.2200 105.0000 1.0000
18.2400 92.0000 1.0000
18.2600 97.0000 1.0000
18.2800 93.0000 1.0000
18.3000 97.0000 1.0000
18.3200 102.0000 1.0000
18.3400 110.0000 1.0000
18.3600 98.0000 1.0000
18.3800 108.0000 1.0000
18.4000 103.0000 1.0000
18.4200 105.0000 1.0000
18.4400 88.0000 1.0000
18.4600 105.0000 1.0000
18.4800 120.0000 1.0000
18.5000 110.0000 1.0000
18.5200 100.0000 1.0000
18.5400 103.0000 1.0000
18.5600 99.0000 1.0000
18.5800 115.0000 1.0000
18.6000 94.0000 1.0000
18.6200 99.0000 1.0000
18.6400 97.0000 1.0000
18.6600 105.0000 1.0000
18.6800 112.0000 1.0000
18.7000 114.0000 1.0000
18.7200 117.0000 1.0000
18.7400 126.0000 1.0000
18.7600 117.0000 1.0000
18.7800 102.0000 1.0000
18.8000 92.0000 1.0000
18.8200 115.0000 1.0000
18.8400 120.0000 1.0000
18.8600 126.0000 1.0000
18.8800 117.0000 1.0000
18.9000 123.0000 1.0000
18.9200 110.0000 1.0000
18.9400 129.0000 1.0000
18.9600 108.0000 1.0000
18.9800 114.0000 1.0000
19.0000 126.0000 1.0000
19.0200 119.0000 1.0000
19.0400 121.0000 1.0000
19.0600 124.0000 1.0000
19.0800 165.0000 1.0000
19.1000 137.0000 1.0000
19.1200 139.0000 1.0000
19.1400 136.0000 1.0000
19.1600 136.0000 1.0000
19.1800 119.0000 1.0000
19.2000 132.0000 1.0000
19.2200 140.0000 1.0000
19.2400 142.0000 1.0000
19.2600 156.0000 1.0000
19.2800 149.0000 1.0000
19.3000 133.0000 1.0000
19.3200 169.0000 1.0000
19.3400 175.0000 1.0000
19.3600 181.0000 1.0000
19.3800 205.0000 1.0000
19.4000 227.0000 1.0000
19.4200 229.0000 1.0000
19.4400 270.0000 1.0000
19.4600 278.0000 1.0000
19.4800 321.0000 1.0000
19.5000 366.0000 1.0000
19.5200 371.0000 1.0000
19.5400 381.0000 1.0000
19.5600 440.0000 1.0000
19.5800 436.0000 1.0000
19.6000 483.0000 1.0000
19.6200 463.0000 1.0000
19.6400 477.0000 1.0000
19.6600 495.0000 1.0000
19.6800 489.0000 1.0000
19.7000 422.0000 1.0000
19.7200 414.0000 1.0000
19.7400 320.0000 1.0000
19.7600 313.0000 1.0000
19.7800 229.0000 1.0000
19.8000 207.0000 1.0000
19.8200 191.0000 1.0000
19.8400 210.0000 1.0000
19.8600 188.0000 1.0000
19.8800 197.0000 1.0000
19.9000 188.0000 1.0000
19.9200 178.0000 1.0000
19.9400 181.0000 1.0000
19.9600 187.0000 1.0000
19.9800 166.0000 1.0000
20.0000 195.0000 1.0000
20.0200 178.0000 1.0000
20.0400 170.0000 1.0000
20.0600 168.0000 1.0000
20.0800 169.0000 1.0000
20.1000 156.0000 1.0000
20.1200 150.0000 1.0000
20.1400 173.0000 1.0000
20.1600 171.0000 1.0000
20.1800 189.0000 1.0000
20.2000 186.0000 1.0000
20.2200 234.0000 1.0000
20.2400 197.0000 1.0000
20.2600 213.0000 1.0000
20.2800 257.0000 1.0000
20.3000 262.0000 1.0000
20.3200 275.0000 1.0000
20.3400 316.0000 1.0000
20.3600 364.0000 1.0000
20.3800 404.0000 1.0000
20.4000 390.0000 1.0000
20.4200 458.0000 1.0000
20.4400 487.0000 1.0000
20.4600 543.0000 1.0000
20.4800 618.0000 1.0000
20.5000 663.0000 1.0000
20.5200 784.0000 1.0000
20.5400 894.0000 1.0000
20.5600 1071.0000 1.0000
20.5800 1323.0000 1.0000
20.6000 1645.0000 1.0000
20.6200 2113.0000 1.0000
20.6400 2585.0000 1.0000
20.6600 3038.0000 1.0000
20.6800 3137.0000 1.0000
20.7000 3347.0000 1.0000
20.7200 3220.0000 1.0000
20.7400 2744.0000 1.0000
20.7600 2141.0000 1.0000
20.7800 1601.0000 1.0000
20.8000 1153.0000 1.0000
20.8200 847.0000 1.0000
20.8400 731.0000 1.0000
20.8600 569.0000 1.0000
20.8800 442.0000 1.0000
20.9000 395.0000 1.0000
20.9200 320.0000 1.0000
20.9400 286.0000 1.0000
20.9600 275.0000 1.0000
20.9800 225.0000 1.0000
21.0000 235.0000 1.0000
21.0200 230.0000 1.0000
21.0400 196.0000 1.0000
21.0600 209.0000 1.0000
21.0800 207.0000 1.0000
21.1000 186.0000 1.0000
21.1200 183.0000 1.0000
21.1400 191.0000 1.0000
21.1600 173.0000 1.0000
21.1800 183.0000 1.0000
21.2000 192.0000 1.0000
21.2200 171.0000 1.0000
21.2400 180.0000 1.0000
21.2600 191.0000 1.0000
21.2800 190.0000 1.0000
21.3000 225.0000 1.0000
21.3200 218.0000 1.0000
21.3400 203.0000 1.0000
21.3600 192.0000 1.0000
21.3800 247.0000 1.0000
21.4000 237.0000 1.0000
21.4200 214.0000 1.0000
21.4400 199.0000 1.0000
21.4600 190.0000 1.0000
21.4800 200.0000 1.0000
21.5000 181.0000 1.0000
21.5200 177.0000 1.0000
21.5400 176.0000 1.0000
21.5600 213.0000 1.0000
21.5800 193.0000 1.0000
21.6000 200.0000 1.0000
21.6200 218.0000 1.0000
21.6400 208.0000 1.0000
21.6600 233.0000 1.0000
21.6800 241.0000 1.0000
21.7000 298.0000 1.0000
21.7200 330.0000 1.0000
21.7400 375.0000 1.0000
21.7600 374.0000 1.0000
21.7800 459.0000 1.0000
21.8000 544.0000 1.0000
21.8200 579.0000 1.0000
21.8400 665.0000 1.0000
21.8600 676.0000 1.0000
21.8800 727.0000 1.0000
21.9000 622.0000 1.0000
21.9200 551.0000 1.0000
21.9400 501.0000 1.0000
21.9600 443.0000 1.0000
21.9800 349.0000 1.0000
22.0000 279.0000 1.0000
22.0200 250.0000 1.0000
22.0400 275.0000 1.0000
22.0600 253.0000 1.0000
22.0800 239.0000 1.0000
22.1000 210.0000 1.0000
22.1200 198.0000 1.0000
22.1400 218.0000 1.0000
22.1600 231.0000 1.0000
22.1800 226.0000 1.0000
22.2000 239.0000 1.0000
22.2200 239.0000 1.0000
22.2400 250.0000 1.0000
22.2600 230.0000 1.0000
22.2800 222.0000 1.0000
22.3000 212.0000 1.0000
22.3200 229.0000 1.0000
22.3400 225.0000 1.0000
22.3600 222.0000 1.0000
22.3800 210.0000 1.0000
22.4000 204.0000 1.0000
22.4200 185.0000 1.0000
22.4400 201.0000 1.0000
22.4600 189.0000 1.0000
22.4800 168.0000 1.0000
22.5000 198.0000 1.0000
22.5200 206.0000 1.0000
22.5400 211.0000 1.0000
22.5600 231.0000 1.0000
22.5800 249.0000 1.0000
22.6000 273.0000 1.0000
22.6200 286.0000 1.0000
22.6400 306.0000 1.0000
22.6600 331.0000 1.0000
22.6800 301.0000 1.0000
22.7000 303.0000 1.0000
22.7200 289.0000 1.0000
22.7400 298.0000 1.0000
22.7600 292.0000 1.0000
22.7800 312.0000 1.0000
22.8000 336.0000 1.0000
22.8200 336.0000 1.0000
22.8400 279.0000 1.0000
22.8600 317.0000 1.0000
22.8800 322.0000 1.0000
22.9000 300.0000 1.0000
22.9200 278.0000 1.0000
22.9400 287.0000 1.0000
22.9600 269.0000 1.0000
22.9800 266.0000 1.0000
23.0000 237.0000 1.0000
23.0200 251.0000 1.0000
23.0400 224.0000 1.0000
23.0600 251.0000 1.0000
23.0800 262.0000 1.0000
23.1000 264.0000 1.0000
23.1200 262.0000 1.0000
23.1400 275.0000 1.0000
23.1600 283.0000 1.0000
23.1800 278.0000 1.0000
23.2000 308.0000 1.0000
23.2200 294.0000 1.0000
23.2400 338.0000 1.0000
23.2600 350.0000 1.0000
23.2800 403.0000 1.0000
23.3000 436.0000 1.0000
23.3200 490.0000 1.0000
23.3400 524.0000 1.0000
23.3600 570.0000 1.0000
23.3800 601.0000 1.0000
23.4000 584.0000 1.0000
23.4200 577.0000 1.0000
23.4400 525.0000 1.0000
23.4600 503.0000 1.0000
23.4800 452.0000 1.0000
23.5000 396.0000 1.0000
23.5200 379.0000 1.0000
23.5400 417.0000 1.0000
23.5600 401.0000 1.0000
23.5800 398.0000 1.0000
23.6000 386.0000 1.0000
23.6200 389.0000 1.0000
23.6400 373.0000 1.0000
23.6600 376.0000 1.0000
23.6800 381.0000 1.0000
23.7000 342.0000 1.0000
23.7200 295.0000 1.0000
23.7400 299.0000 1.0000
23.7600 287.0000 1.0000
23.7800 292.0000 1.0000
23.8000 284.0000 1.0000
23.8200 274.0000 1.0000
23.8400 264.0000 1.0000
23.8600 283.0000 1.0000
23.8800 310.0000 1.0000
23.9000 333.0000 1.0000
23.9200 355.0000 1.0000
23.9400 391.0000 1.0000
23.9600 403.0000 1.0000
23.9800 450.0000 1.0000
24.0000 499.0000 1.0000
24.0200 543.0000 1.0000
24.0400 571.0000 1.0000
24.0600 605.0000 1.0000
24.0800 589.0000 1.0000
24.1000 561.0000 1.0000
24.1200 550.0000 1.0000
24.1400 539.0000 1.0000
24.1600 502.0000 1.0000
24.1800 426.0000 1.0000
24.2000 352.0000 1.0000
24.2200 304.0000 1.0000
24.2400 251.0000 1.0000
24.2600 239.0000 1.0000
24.2800 228.0000 1.0000
24.3000 202.0000 1.0000
24.3200 183.0000 1.0000
24.3400 180.0000 1.0000
24.3600 181.0000 1.0000
24.3800 187.0000 1.0000
24.4000 186.0000 1.0000
24.4200 184.0000 1.0000
24.4400 171.0000 1.0000
24.4600 167.0000 1.0000
24.4800 194.0000 1.0000
24.5000 199.0000 1.0000
24.5200 186.0000 1.0000
24.5400 186.0000 1.0000
24.5600 190.0000 1.0000
24.5800 184.0000 1.0000
24.6000 192.0000 1.0000
24.6200 181.0000 1.0000
24.6400 170.0000 1.0000
24.6600 197.0000 1.0000
24.6800 193.0000 1.0000
24.7000 174.0000 1.0000
24.7200 167.0000 1.0000
24.7400 163.0000 1.0000
24.7600 170.0000 1.0000
24.7800 182.0000 1.0000
24.8000 167.0000 1.0000
24.8200 164.0000 1.0000
24.8400 181.0000 1.0000
24.8600 182.0000 1.0000
24.8800 178.0000 1.0000
24.9000 178.0000 1.0000
24.9200 185.0000 1.0000
24.9400 192.0000 1.0000
24.9600 191.0000 1.0000
24.9800 215.0000 1.0000
25.0000 230.0000 1.0000
25.0200 222.0000 1.0000
25.0400 240.0000 1.0000
25.0600 245.0000 1.0000
25.0800 271.0000 1.0000
25.1000 310.0000 1.0000
25.1200 346.0000 1.0000
25.1400 371.0000 1.0000
25.1600 438.0000 1.0000
25.1800 511.0000 1.0000
25.2000 615.0000 1.0000
25.2200 715.0000 1.0000
25.2400 803.0000 1.0000
25.2600 895.0000 1.0000
25.2800 990.0000 1.0000
25.3000 1069.0000 1.0000
25.3200 1194.0000 1.0000
25.3400 1392.0000 1.0000
25.3600 1497.0000 1.0000
25.3800 1578.0000 1.0000
25.4000 1628.0000 1.0000
25.4200 1657.0000 1.0000
25.4400 1611.0000 1.0000
25.4600 1413.0000 1.0000
25.4800 1156.0000 1.0000
25.5000 942.0000 1.0000
25.5200 779.0000 1.0000
25.5400 633.0000 1.0000
25.5600 499.0000 1.0000
25.5800 418.0000 1.0000
25.6000 369.0000 1.0000
25.6200 309.0000 1.0000
25.6400 311.0000 1.0000
25.6600 292.0000 1.0000
25.6800 266.0000 1.0000
25.7000 270.0000 1.0000
25.7200 277.0000 1.0000
25.7400 260.0000 1.0000
25.7600 252.0000 1.0000
25.7800 265.0000 1.0000
25.8000 296.0000 1.0000
25.8200 320.0000 1.0000
25.8400 303.0000 1.0000
25.8600 306.0000 1.0000
25.8800 329.0000 1.0000
25.9000 356.0000 1.0000
25.9200 367.0000 1.0000
25.9400 383.0000 1.0000
25.9600 412.0000 1.0000
25.9800 473.0000 1.0000
26.0000 505.0000 1.0000
26.0200 553.0000 1.0000
26.0400 600.0000 1.0000
26.0600 620.0000 1.0000
26.0800 689.0000 1.0000
26.1000 777.0000 1.0000
26.1200 824.0000 1.0000
26.1400 926.0000 1.0000
26.1600 1065.0000 1.0000
26.1800 1206.0000 1.0000
26.2000 1357.0000 1.0000
26.2200 1517.0000 1.0000
26.2400 1827.0000 1.0000
26.2600 2185.0000 1.0000
26.2800 2593.0000 1.0000
26.3000 3093.0000 1.0000
26.3200 3855.0000 1.0000
26.3400 4856.0000 1.0000
26.3600 6150.0000 1.0000
26.3800 7943.0000 1.0000
26.4000 10029.0000 1.0000
26.4200 12151.0000 1.0000
26.4400 14036.0000 1.0000
26.4600 15338.0000 1.0000
26.4800 15674.0000 1.0000
26.5000 14978.0000 1.0000
26.5200 13244.0000 1.0000
26.5400 10745.0000 1.0000
26.5600 8391.0000 1.0000
26.5800 6463.0000 1.0000
26.6000 4906.0000 1.0000
26.6200 3644.0000 1.0000
26.6400 2748.0000 1.0000
26.6600 2288.0000 1.0000
26.6800 1974.0000 1.0000
26.7000 1650.0000 1.0000
26.7200 1396.0000 1.0000
26.7400 1273.0000 1.0000
26.7600 1168.0000 1.0000
26.7800 1033.0000 1.0000
26.8000 950.0000 1.0000
26.8200 920.0000 1.0000
26.8400 912.0000 1.0000
26.8600 891.0000 1.0000
26.8800 857.0000 1.0000
26.9000 809.0000 1.0000
26.9200 751.0000 1.0000
26.9400 699.0000 1.0000
26.9600 613.0000 1.0000
26.9800 569.0000 1.0000
27.0000 538.0000 1.0000
27.0200 500.0000 1.0000
27.0400 497.0000 1.0000
27.0600 462.0000 1.0000
27.0800 458.0000 1.0000
27.1000 473.0000 1.0000
27.1200 466.0000 1.0000
27.1400 477.0000 1.0000
27.1600 511.0000 1.0000
27.1800 556.0000 1.0000
27.2000 591.0000 1.0000
27.2200 619.0000 1.0000
27.2400 706.0000 1.0000
27.2600 780.0000 1.0000
27.2800 822.0000 1.0000
27.3000 900.0000 1.0000
27.3200 945.0000 1.0000
27.3400 943.0000 1.0000
27.3600 935.0000 1.0000
27.3800 861.0000 1.0000
27.4000 818.0000 1.0000
27.4200 794.0000 1.0000
27.4400 757.0000 1.0000
27.4600 746.0000 1.0000
27.4800 750.0000 1.0000
27.5000 796.0000 1.0000
27.5200 879.0000 1.0000
27.5400 940.0000 1.0000
27.5600 1007.0000 1.0000
27.5800 1046.0000 1.0000
27.6000 1048.0000 1.0000
27.6200 1129.0000 1.0000
27.6400 1154.0000 1.0000
27.6600 1170.0000 1.0000
27.6800 1252.0000 1.0000
27.7000 1342.0000 1.0000
27.7200 1464.0000 1.0000
27.7400 1612.0000 1.0000
27.7600 1669.0000 1.0000
27.7800 1597.0000 1.0000
27.8000 1506.0000 1.0000
27.8200 1387.0000 1.0000
27.8400 1229.0000 1.0000
27.8600 1058.0000 1.0000
27.8800 879.0000 1.0000
27.9000 741.0000 1.0000
27.9200 655.0000 1.0000
27.9400 615.0000 1.0000
27.9600 593.0000 1.0000
27.9800 570.0000 1.0000
28.0000 551.0000 1.0000
28.0200 544.0000 1.0000
28.0400 527.0000 1.0000
28.0600 500.0000 1.0000
28.0800 454.0000 1.0000
28.1000 441.0000 1.0000
28.1200 429.0000 1.0000
28.1400 402.0000 1.0000
28.1600 359.0000 1.0000
28.1800 335.0000 1.0000
28.2000 310.0000 1.0000
28.2200 275.0000 1.0000
28.2400 255.0000 1.0000
28.2600 226.0000 1.0000
28.2800 203.0000 1.0000
28.3000 185.0000 1.0000
28.3200 177.0000 1.0000
28.3400 177.0000 1.0000
28.3600 180.0000 1.0000
28.3800 169.0000 1.0000
28.4000 160.0000 1.0000
28.4200 153.0000 1.0000
28.4400 149.0000 1.0000
28.4600 138.0000 1.0000
28.4800 139.0000 1.0000
28.5000 138.0000 1.0000
28.5200 151.0000 1.0000
28.5400 164.0000 1.0000
28.5600 144.0000 1.0000
28.5800 127.0000 1.0000
28.6000 120.0000 1.0000
28.6200 123.0000 1.0000
28.6400 128.0000 1.0000
28.6600 131.0000 1.0000
28.6800 121.0000 1.0000
28.7000 122.0000 1.0000
28.7200 137.0000 1.0000
28.7400 127.0000 1.0000
28.7600 115.0000 1.0000
28.7800 126.0000 1.0000
28.8000 133.0000 1.0000
28.8200 128.0000 1.0000
28.8400 121.0000 1.0000
28.8600 127.0000 1.0000
28.8800 129.0000 1.0000
28.9000 137.0000 1.0000
28.9200 144.0000 1.0000
28.9400 134.0000 1.0000
28.9600 126.0000 1.0000
28.9800 126.0000 1.0000
29.0000 120.0000 1.0000
29.0200 125.0000 1.0000
29.0400 143.0000 1.0000
29.0600 145.0000 1.0000
29.0800 135.0000 1.0000
29.1000 135.0000 1.0000
29.1200 151.0000 1.0000
29.1400 153.0000 1.0000
29.1600 154.0000 1.0000
29.1800 160.0000 1.0000
29.2000 172.0000 1.0000
29.2200 182.0000 1.0000
29.2400 191.0000 1.0000
29.2600 201.0000 1.0000
29.2800 234.0000 1.0000
29.3000 232.0000 1.0000
29.3200 211.0000 1.0000
29.3400 211.0000 1.0000
29.3600 225.0000 1.0000
29.3800 221.0000 1.0000
29.4000 228.0000 1.0000
29.4200 246.0000 1.0000
29.4400 272.0000 1.0000
29.4600 291.0000 1.0000
29.4800 287.0000 1.0000
29.5000 313.0000 1.0000
29.5200 340.0000 1.0000
29.5400 342.0000 1.0000
29.5600 391.0000 1.0000
29.5800 434.0000 1.0000
29.6000 427.0000 1.0000
29.6200 436.0000 1.0000
29.6400 452.0000 1.0000
29.6600 479.0000 1.0000
29.6800 491.0000 1.0000
29.7000 510.0000 1.0000
29.7200 473.0000 1.0000
29.7400 445.0000 1.0000
29.7600 436.0000 1.0000
29.7800 425.0000 1.0000
29.8000 389.0000 1.0000
29.8200 378.0000 1.0000
29.8400 401.0000 1.0000
29.8600 381.0000 1.0000
29.8800 392.0000 1.0000
29.9000 385.0000 1.0000
29.9200 408.0000 1.0000
29.9400 403.0000 1.0000
29.9600 391.0000 1.0000
29.9800 393.0000 1.0000
30.0000 391.0000 1.0000
30.0200 400.0000 1.0000
30.0400 367.0000 1.0000
30.0600 367.0000 1.0000
30.0800 369.0000 1.0000
30.1000 323.0000 1.0000
30.1200 292.0000 1.0000
30.1400 304.0000 1.0000
30.1600 275.0000 1.0000
30.1800 282.0000 1.0000
30.2000 264.0000 1.0000
30.2200 276.0000 1.0000
30.2400 289.0000 1.0000
30.2600 308.0000 1.0000
30.2800 348.0000 1.0000
30.3000 369.0000 1.0000
30.3200 350.0000 1.0000
30.3400 366.0000 1.0000
30.3600 366.0000 1.0000
30.3800 357.0000 1.0000
30.4000 337.0000 1.0000
30.4200 325.0000 1.0000
30.4400 278.0000 1.0000
30.4600 249.0000 1.0000
30.4800 262.0000 1.0000
30.5000 257.0000 1.0000
30.5200 270.0000 1.0000
30.5400 293.0000 1.0000
30.5600 312.0000 1.0000
30.5800 326.0000 1.0000
30.6000 352.0000 1.0000
30.6200 354.0000 1.0000
30.6400 323.0000 1.0000
30.6600 358.0000 1.0000
30.6800 375.0000 1.0000
30.7000 360.0000 1.0000
30.7200 314.0000 1.0000
30.7400 303.0000 1.0000
30.7600 264.0000 1.0000
30.7800 269.0000 1.0000
30.8000 254.0000 1.0000
30.8200 240.0000 1.0000
30.8400 228.0000 1.0000
30.8600 231.0000 1.0000
30.8800 224.0000 1.0000
30.9000 242.0000 1.0000
30.9200 247.0000 1.0000
30.9400 273.0000 1.0000
30.9600 309.0000 1.0000
30.9800 330.0000 1.0000
31.0000 333.0000 1.0000
31.0200 339.0000 1.0000
31.0400 401.0000 1.0000
31.0600 391.0000 1.0000
31.0800 380.0000 1.0000
31.1000 385.0000 1.0000
31.1200 330.0000 1.0000
31.1400 281.0000 1.0000
31.1600 256.0000 1.0000
31.1800 226.0000 1.0000
31.2000 217.0000 1.0000
31.2200 205.0000 1.0000
31.2400 195.0000 1.0000
31.2600 173.0000 1.0000
31.2800 177.0000 1.0000
31.3000 170.0000 1.0000
31.3200 174.0000 1.0000
31.3400 148.0000 1.0000
31.3600 154.0000 1.0000
31.3800 140.0000 1.0000
31.4000 145.0000 1.0000
31.4200 149.0000 1.0000
31.4400 162.0000 1.0000
31.4600 151.0000 1.0000
31.4800 150.0000 1.0000
31.5000 146.0000 1.0000
31.5200 149.0000 1.0000
31.5400 141.0000 1.0000
31.5600 128.0000 1.0000
31.5800 158.0000 1.0000
31.6000 161.0000 1.0000
31.6200 174.0000 1.0000
31.6400 173.0000 1.0000
31.6600 173.0000 1.0000
31.6800 197.0000 1.0000
31.7000 200.0000 1.0000
31.7200 192.0000 1.0000
31.7400 206.0000 1.0000
31.7600 214.0000 1.0000
31.7800 221.0000 1.0000
31.8000 232.0000 1.0000
31.8200 267.0000 1.0000
31.8400 278.0000 1.0000
31.8600 280.0000 1.0000
31.8800 243.0000 1.0000
31.9000 232.0000 1.0000
31.9200 224.0000 1.0000
31.9400 207.0000 1.0000
31.9600 215.0000 1.0000
31.9800 200.0000 1.0000
32.0000 185.0000 1.0000
32.0200 180.0000 1.0000
32.0400 165.0000 1.0000
32.0600 171.0000 1.0000
32.0800 196.0000 1.0000
32.1000 161.0000 1.0000
32.1200 144.0000 1.0000
32.1400 174.0000 1.0000
32.1600 177.0000 1.0000
32.1800 185.0000 1.0000
32.2000 167.0000 1.0000
32.2200 179.0000 1.0000
32.2400 153.0000 1.0000
32.2600 150.0000 1.0000
32.2800 144.0000 1.0000
32.3000 141.0000 1.0000
32.3200 118.0000 1.0000
32.3400 113.0000 1.0000
32.3600 126.0000 1.0000
32.3800 130.0000 1.0000
32.4000 112.0000 1.0000
32.4200 109.0000 1.0000
32.4400 89.0000 1.0000
32.4600 112.0000 1.0000
32.4800 99.0000 1.0000
32.5000 91.0000 1.0000
32.5200 90.0000 1.0000
32.5400 100.0000 1.0000
32.5600 101.0000 1.0000
32.5800 94.0000 1.0000
32.6000 98.0000 1.0000
32.6200 105.0000 1.0000
32.6400 89.0000 1.0000
32.6600 109.0000 1.0000
32.6800 109.0000 1.0000
32.7000 97.0000 1.0000
32.7200 107.0000 1.0000
32.7400 101.0000 1.0000
32.7600 115.0000 1.0000
32.7800 113.0000 1.0000
32.8000 103.0000 1.0000
32.8200 113.0000 1.0000
32.8400 122.0000 1.0000
32.8600 128.0000 1.0000
32.8800 124.0000 1.0000
32.9000 150.0000 1.0000
32.9200 154.0000 1.0000
32.9400 177.0000 1.0000
32.9600 178.0000 1.0000
32.9800 164.0000 1.0000
33.0000 203.0000 1.0000
33.0200 201.0000 1.0000
33.0400 190.0000 1.0000
33.0600 200.0000 1.0000
33.0800 192.0000 1.0000
33.1000 182.0000 1.0000
33.1200 160.0000 1.0000
33.1400 157.0000 1.0000
33.1600 157.0000 1.0000
33.1800 148.0000 1.0000
33.2000 121.0000 1.0000
33.2200 152.0000 1.0000
33.2400 123.0000 1.0000
33.2600 140.0000 1.0000
33.2800 134.0000 1.0000
33.3000 130.0000 1.0000
33.3200 139.0000 1.0000
33.3400 124.0000 1.0000
33.3600 143.0000 1.0000
33.3800 116.0000 1.0000
33.4000 115.0000 1.0000
33.4200 133.0000 1.0000
33.4400 151.0000 1.0000
33.4600 137.0000 1.0000
33.4800 116.0000 1.0000
33.5000 111.0000 1.0000
33.5200 125.0000 1.0000
33.5400 98.0000 1.0000
33.5600 118.0000 1.0000
33.5800 107.0000 1.0000
33.6000 117.0000 1.0000
33.6200 121.0000 1.0000
33.6400 132.0000 1.0000
33.6600 102.0000 1.0000
33.6800 149.0000 1.0000
33.7000 146.0000 1.0000
33.7200 163.0000 1.0000
33.7400 169.0000 1.0000
33.7600 151.0000 1.0000
33.7800 169.0000 1.0000
33.8000 153.0000 1.0000
33.8200 207.0000 1.0000
33.8400 165.0000 1.0000
33.8600 161.0000 1.0000
33.8800 150.0000 1.0000
33.9000 125.0000 1.0000
33.9200 164.0000 1.0000
33.9400 151.0000 1.0000
33.9600 152.0000 1.0000
33.9800 130.0000 1.0000
34.0000 168.0000 1.0000
34.0200 163.0000 1.0000
34.0400 195.0000 1.0000
34.0600 203.0000 1.0000
34.0800 229.0000 1.0000
34.1000 215.0000 1.0000
34.1200 212.0000 1.0000
34.1400 267.0000 1.0000
34.1600 262.0000 1.0000
34.1800 285.0000 1.0000
34.2000 312.0000 1.0000
34.2200 356.0000 1.0000
34.2400 389.0000 1.0000
34.2600 351.0000 1.0000
34.2800 341.0000 1.0000
34.3000 407.0000 1.0000
34.3200 394.0000 1.0000
34.3400 409.0000 1.0000
34.3600 400.0000 1.0000
34.3800 363.0000 1.0000
34.4000 410.0000 1.0000
34.4200 380.0000 1.0000
34.4400 324.0000 1.0000
34.4600 371.0000 1.0000
34.4800 320.0000 1.0000
34.5000 364.0000 1.0000
34.5200 389.0000 1.0000
34.5400 440.0000 1.0000
34.5600 406.0000 1.0000
34.5800 483.0000 1.0000
34.6000 533.0000 1.0000
34.6200 575.0000 1.0000
34.6400 592.0000 1.0000
34.6600 642.0000 1.0000
34.6800 672.0000 1.0000
34.7000 736.0000 1.0000
34.7200 773.0000 1.0000
34.7400 773.0000 1.0000
34.7600 779.0000 1.0000
34.7800 854.0000 1.0000
34.8000 820.0000 1.0000
34.8200 783.0000 1.0000
34.8400 904.0000 1.0000
34.8600 974.0000 1.0000
34.8800 1119.0000 1.0000
34.9000 1319.0000 1.0000
34.9200 1520.0000 1.0000
34.9400 1674.0000 1.0000
34.9600 1910.0000 1.0000
34.9800 1970.0000 1.0000
35.0000 1930.0000 1.0000
35.0200 1935.0000 1.0000
35.0400 1672.0000 1.0000
35.0600 1432.0000 1.0000
35.0800 1225.0000 1.0000
35.1000 974.0000 1.0000
35.1200 786.0000 1.0000
35.1400 601.0000 1.0000
35.1600 506.0000 1.0000
35.1800 401.0000 1.0000
35.2000 350.0000 1.0000
35.2200 314.0000 1.0000
35.2400 287.0000 1.0000
35.2600 272.0000 1.0000
35.2800 271.0000 1.0000
35.3000 267.0000 1.0000
35.3200 255.0000 1.0000
35.3400 244.0000 1.0000
35.3600 244.0000 1.0000
35.3800 263.0000 1.0000
35.4000 248.0000 1.0000
35.4200 276.0000 1.0000
35.4400 266.0000 1.0000
35.4600 269.0000 1.0000
35.4800 248.0000 1.0000
35.5000 266.0000 1.0000
35.5200 235.0000 1.0000
35.5400 247.0000 1.0000
35.5600 234.0000 1.0000
35.5800 249.0000 1.0000
35.6000 199.0000 1.0000
35.6200 216.0000 1.0000
35.6400 220.0000 1.0000
35.6600 206.0000 1.0000
35.6800 217.0000 1.0000
35.7000 203.0000 1.0000
35.7200 226.0000 1.0000
35.7400 222.0000 1.0000
35.7600 224.0000 1.0000
35.7800 225.0000 1.0000
35.8000 233.0000 1.0000
35.8200 230.0000 1.0000
35.8400 237.0000 1.0000
35.8600 217.0000 1.0000
35.8800 194.0000 1.0000
35.9000 181.0000 1.0000
35.9200 189.0000 1.0000
35.9400 201.0000 1.0000
35.9600 177.0000 1.0000
35.9800 186.0000 1.0000
36.0000 191.0000 1.0000
36.0200 195.0000 1.0000
36.0400 191.0000 1.0000
36.0600 187.0000 1.0000
36.0800 186.0000 1.0000
36.1000 215.0000 1.0000
36.1200 234.0000 1.0000
36.1400 259.0000 1.0000
36.1600 273.0000 1.0000
36.1800 305.0000 1.0000
36.2000 343.0000 1.0000
36.2200 371.0000 1.0000
36.2400 408.0000 1.0000
36.2600 462.0000 1.0000
36.2800 594.0000 1.0000
36.3000 715.0000 1.0000
36.3200 869.0000 1.0000
36.3400 1013.0000 1.0000
36.3600 1093.0000 1.0000
36.3800 1113.0000 1.0000
36.4000 1112.0000 1.0000
36.4200 1116.0000 1.0000
36.4400 1046.0000 1.0000
36.4600 979.0000 1.0000
36.4800 805.0000 1.0000
36.5000 700.0000 1.0000
36.5200 589.0000 1.0000
36.5400 509.0000 1.0000
36.5600 425.0000 1.0000
36.5800 334.0000 1.0000
36.6000 294.0000 1.0000
36.6200 272.0000 1.0000
36.6400 235.0000 1.0000
36.6600 226.0000 1.0000
36.6800 206.0000 1.0000
36.7000 210.0000 1.0000
36.7200 186.0000 1.0000
36.7400 191.0000 1.0000
36.7600 197.0000 1.0000
36.7800 217.0000 1.0000
36.8000 196.0000 1.0000
36.8200 203.0000 1.0000
36.8400 189.0000 1.0000
36.8600 170.0000 1.0000
36.8800 169.0000 1.0000
36.9000 181.0000 1.0000
36.9200 168.0000 1.0000
36.9400 176.0000 1.0000
36.9600 169.0000 1.0000
36.9800 167.0000 1.0000
37.0000 178.0000 1.0000
37.0200 190.0000 1.0000
37.0400 195.0000 1.0000
37.0600 216.0000 1.0000
37.0800 204.0000 1.0000
37.1000 198.0000 1.0000
37.1200 225.0000 1.0000
37.1400 253.0000 1.0000
37.1600 270.0000 1.0000
37.1800 245.0000 1.0000
37.2000 267.0000 1.0000
37.2200 273.0000 1.0000
37.2400 273.0000 1.0000
37.2600 287.0000 1.0000
37.2800 296.0000 1.0000
37.3000 310.0000 1.0000
37.3200 291.0000 1.0000
37.3400 305.0000 1.0000
37.3600 281.0000 1.0000
37.3800 323.0000 1.0000
37.4000 316.0000 1.0000
37.4200 376.0000 1.0000
37.4400 400.0000 1.0000
37.4600 420.0000 1.0000
37.4800 448.0000 1.0000
37.5000 517.0000 1.0000
37.5200 564.0000 1.0000
37.5400 690.0000 1.0000
37.5600 811.0000 1.0000
37.5800 886.0000 1.0000
37.6000 911.0000 1.0000
37.6200 922.0000 1.0000
37.6400 912.0000 1.0000
37.6600 800.0000 1.0000
37.6800 747.0000 1.0000
37.7000 609.0000 1.0000
37.7200 508.0000 1.0000
37.7400 436.0000 1.0000
37.7600 357.0000 1.0000
37.7800 278.0000 1.0000
37.8000 216.0000 1.0000
37.8200 196.0000 1.0000
37.8400 173.0000 1.0000
37.8600 140.0000 1.0000
37.8800 130.0000 1.0000
37.9000 147.0000 1.0000
37.9200 139.0000 1.0000
37.9400 130.0000 1.0000
37.9600 109.0000 1.0000
37.9800 100.0000 1.0000
38.0000 122.0000 1.0000
38.0200 109.0000 1.0000
38.0400 109.0000 1.0000
38.0600 119.0000 1.0000
38.0800 122.0000 1.0000
38.1000 106.0000 1.0000
38.1200 107.0000 1.0000
38.1400 110.0000 1.0000
38.1600 88.0000 1.0000
38.1800 83.0000 1.0000
38.2000 81.0000 1.0000
38.2200 91.0000 1.0000
38.2400 94.0000 1.0000
38.2600 117.0000 1.0000
38.2800 97.0000 1.0000
38.3000 97.0000 1.0000
38.3200 102.0000 1.0000
38.3400 115.0000 1.0000
38.3600 121.0000 1.0000
38.3800 111.0000 1.0000
38.4000 113.0000 1.0000
38.4200 126.0000 1.0000
38.4400 149.0000 1.0000
38.4600 140.0000 1.0000
38.4800 129.0000 1.0000
38.5000 141.0000 1.0000
38.5200 131.0000 1.0000
38.5400 118.0000 1.0000
38.5600 126.0000 1.0000
38.5800 142.0000 1.0000
38.6000 139.0000 1.0000
38.6200 161.0000 1.0000
38.6400 159.0000 1.0000
38.6600 152.0000 1.0000
38.6800 159.0000 1.0000
38.7000 161.0000 1.0000
38.7200 166.0000 1.0000
38.7400 172.0000 1.0000
38.7600 165.0000 1.0000
38.7800 149.0000 1.0000
38.8000 140.0000 1.0000
38.8200 141.0000 1.0000
38.8400 124.0000 1.0000
38.8600 130.0000 1.0000
38.8800 133.0000 1.0000
38.9000 129.0000 1.0000
38.9200 134.0000 1.0000
38.9400 121.0000 1.0000
38.9600 134.0000 1.0000
38.9800 158.0000 1.0000
39.0000 150.0000 1.0000
39.0200 154.0000 1.0000
39.0400 158.0000 1.0000
39.0600 161.0000 1.0000
39.0800 189.0000 1.0000
39.1000 209.0000 1.0000
39.1200 223.0000 1.0000
39.1400 268.0000 1.0000
39.1600 309.0000 1.0000
39.1800 347.0000 1.0000
39.2000 439.0000 1.0000
39.2200 538.0000 1.0000
39.2400 669.0000 1.0000
39.2600 803.0000 1.0000
39.2800 922.0000 1.0000
39.3000 959.0000 1.0000
39.3200 962.0000 1.0000
39.3400 955.0000 1.0000
39.3600 922.0000 1.0000
39.3800 823.0000 1.0000
39.4000 697.0000 1.0000
39.4200 601.0000 1.0000
39.4400 512.0000 1.0000
39.4600 405.0000 1.0000
39.4800 314.0000 1.0000
39.5000 252.0000 1.0000
39.5200 219.0000 1.0000
39.5400 197.0000 1.0000
39.5600 171.0000 1.0000
39.5800 168.0000 1.0000
39.6000 173.0000 1.0000
39.6200 175.0000 1.0000
39.6400 168.0000 1.0000
39.6600 165.0000 1.0000
39.6800 161.0000 1.0000
39.7000 179.0000 1.0000
39.7200 191.0000 1.0000
39.7400 172.0000 1.0000
39.7600 182.0000 1.0000
39.7800 194.0000 1.0000
39.8000 196.0000 1.0000
39.8200 186.0000 1.0000
39.8400 177.0000 1.0000
39.8600 176.0000 1.0000
39.8800 193.0000 1.0000
39.9000 207.0000 1.0000
39.9200 192.0000 1.0000
39.9400 213.0000 1.0000
39.9600 235.0000 1.0000
39.9800 216.0000 1.0000
40.0000 244.0000 1.0000
40.0200 306.0000 1.0000
40.0400 327.0000 1.0000
40.0600 379.0000 1.0000
40.0800 471.0000 1.0000
40.1000 515.0000 1.0000
40.1200 553.0000 1.0000
40.1400 600.0000 1.0000
40.1600 587.0000 1.0000
40.1800 540.0000 1.0000
40.2000 493.0000 1.0000
40.2200 446.0000 1.0000
40.2400 397.0000 1.0000
40.2600 348.0000 1.0000
40.2800 287.0000 1.0000
40.3000 235.0000 1.0000
40.3200 213.0000 1.0000
40.3400 191.0000 1.0000
40.3600 166.0000 1.0000
40.3800 162.0000 1.0000
40.4000 153.0000 1.0000
40.4200 149.0000 1.0000
40.4400 151.0000 1.0000
40.4600 139.0000 1.0000
40.4800 135.0000 1.0000
40.5000 144.0000 1.0000
40.5200 152.0000 1.0000
40.5400 164.0000 1.0000
40.5600 164.0000 1.0000
40.5800 167.0000 1.0000
40.6000 179.0000 1.0000
40.6200 172.0000 1.0000
40.6400 170.0000 1.0000
40.6600 175.0000 1.0000
40.6800 179.0000 1.0000
40.7000 177.0000 1.0000
40.7200 162.0000 1.0000
40.7400 154.0000 1.0000
40.7600 160.0000 1.0000
40.7800 164.0000 1.0000
40.8000 166.0000 1.0000
40.8200 150.0000 1.0000
40.8400 134.0000 1.0000
40.8600 145.0000 1.0000
40.8800 144.0000 1.0000
40.9000 131.0000 1.0000
40.9200 138.0000 1.0000
40.9400 145.0000 1.0000
40.9600 142.0000 1.0000
40.9800 155.0000 1.0000
41.0000 165.0000 1.0000
41.0200 172.0000 1.0000
41.0400 180.0000 1.0000
41.0600 188.0000 1.0000
41.0800 177.0000 1.0000
41.1000 171.0000 1.0000
41.1200 162.0000 1.0000
41.1400 157.0000 1.0000
41.1600 155.0000 1.0000
41.1800 138.0000 1.0000
41.2000 138.0000 1.0000
41.2200 141.0000 1.0000
41.2400 145.0000 1.0000
41.2600 147.0000 1.0000
41.2800 138.0000 1.0000
41.3000 139.0000 1.0000
41.3200 143.0000 1.0000
41.3400 144.0000 1.0000
41.3600 141.0000 1.0000
41.3800 148.0000 1.0000
41.4000 159.0000 1.0000
41.4200 157.0000 1.0000
41.4400 153.0000 1.0000
41.4600 161.0000 1.0000
41.4800 180.0000 1.0000
41.5000 203.0000 1.0000
41.5200 212.0000 1.0000
41.5400 243.0000 1.0000
41.5600 267.0000 1.0000
41.5800 263.0000 1.0000
41.6000 255.0000 1.0000
41.6200 265.0000 1.0000
41.6400 285.0000 1.0000
41.6600 310.0000 1.0000
41.6800 299.0000 1.0000
41.7000 286.0000 1.0000
41.7200 291.0000 1.0000
41.7400 258.0000 1.0000
41.7600 247.0000 1.0000
41.7800 229.0000 1.0000
41.8000 229.0000 1.0000
41.8200 240.0000 1.0000
41.8400 252.0000 1.0000
41.8600 243.0000 1.0000
41.8800 242.0000 1.0000
41.9000 235.0000 1.0000
41.9200 215.0000 1.0000
41.9400 208.0000 1.0000
41.9600 212.0000 1.0000
41.9800 235.0000 1.0000
42.0000 238.0000 1.0000
42.0200 252.0000 1.0000
42.0400 283.0000 1.0000
42.0600 297.0000 1.0000
42.0800 321.0000 1.0000
42.1000 329.0000 1.0000
42.1200 383.0000 1.0000
42.1400 411.0000 1.0000
42.1600 431.0000 1.0000
42.1800 489.0000 1.0000
42.2000 552.0000 1.0000
42.2200 640.0000 1.0000
42.2400 755.0000 1.0000
42.2600 879.0000 1.0000
42.2800 930.0000 1.0000
42.3000 934.0000 1.0000
42.3200 893.0000 1.0000
42.3400 837.0000 1.0000
42.3600 780.0000 1.0000
42.3800 719.0000 1.0000
42.4000 604.0000 1.0000
42.4200 553.0000 1.0000
42.4400 502.0000 1.0000
42.4600 426.0000 1.0000
42.4800 372.0000 1.0000
42.5000 299.0000 1.0000
42.5200 271.0000 1.0000
42.5400 252.0000 1.0000
42.5600 246.0000 1.0000
42.5800 234.0000 1.0000
42.6000 234.0000 1.0000
42.6200 219.0000 1.0000
42.6400 202.0000 1.0000
42.6600 201.0000 1.0000
42.6800 206.0000 1.0000
42.7000 198.0000 1.0000
42.7200 185.0000 1.0000
42.7400 181.0000 1.0000
42.7600 191.0000 1.0000
42.7800 193.0000 1.0000
42.8000 186.0000 1.0000
42.8200 160.0000 1.0000
42.8400 173.0000 1.0000
42.8600 184.0000 1.0000
42.8800 201.0000 1.0000
42.9000 197.0000 1.0000
42.9200 215.0000 1.0000
42.9400 240.0000 1.0000
42.9600 246.0000 1.0000
42.9800 258.0000 1.0000
43.0000 297.0000 1.0000
43.0200 372.0000 1.0000
43.0400 445.0000 1.0000
43.0600 571.0000 1.0000
43.0800 698.0000 1.0000
43.1000 848.0000 1.0000
43.1200 1095.0000 1.0000
43.1400 1330.0000 1.0000
43.1600 1623.0000 1.0000
43.1800 1849.0000 1.0000
43.2000 1836.0000 1.0000
43.2200 1822.0000 1.0000
43.2400 1687.0000 1.0000
43.2600 1557.0000 1.0000
43.2800 1422.0000 1.0000
43.3000 1265.0000 1.0000
43.3200 1086.0000 1.0000
43.3400 892.0000 1.0000
43.3600 768.0000 1.0000
43.3800 583.0000 1.0000
43.4000 460.0000 1.0000
43.4200 381.0000 1.0000
43.4400 309.0000 1.0000
43.4600 278.0000 1.0000
43.4800 254.0000 1.0000
43.5000 228.0000 1.0000
43.5200 240.0000 1.0000
43.5400 197.0000 1.0000
43.5600 175.0000 1.0000
43.5800 170.0000 1.0000
43.6000 162.0000 1.0000
43.6200 159.0000 1.0000
43.6400 164.0000 1.0000
43.6600 152.0000 1.0000
43.6800 165.0000 1.0000
43.7000 162.0000 1.0000
43.7200 160.0000 1.0000
43.7400 148.0000 1.0000
43.7600 130.0000 1.0000
43.7800 136.0000 1.0000
43.8000 123.0000 1.0000
43.8200 130.0000 1.0000
43.8400 130.0000 1.0000
43.8600 117.0000 1.0000
43.8800 148.0000 1.0000
43.9000 146.0000 1.0000
43.9200 127.0000 1.0000
43.9400 113.0000 1.0000
43.9600 130.0000 1.0000
43.9800 123.0000 1.0000
44.0000 124.0000 1.0000
44.0200 112.0000 1.0000
44.0400 124.0000 1.0000
44.0600 123.0000 1.0000
44.0800 120.0000 1.0000
44.1000 104.0000 1.0000
44.1200 120.0000 1.0000
44.1400 118.0000 1.0000
44.1600 129.0000 1.0000
44.1800 122.0000 1.0000
44.2000 103.0000 1.0000
44.2200 108.0000 1.0000
44.2400 112.0000 1.0000
44.2600 116.0000 1.0000
44.2800 103.0000 1.0000
44.3000 101.0000 1.0000
44.3200 112.0000 1.0000
44.3400 103.0000 1.0000
44.3600 134.0000 1.0000
44.3800 111.0000 1.0000
44.4000 124.0000 1.0000
44.4200 107.0000 1.0000
44.4400 107.0000 1.0000
44.4600 131.0000 1.0000
44.4800 106.0000 1.0000
44.5000 115.0000 1.0000
44.5200 104.0000 1.0000
44.5400 116.0000 1.0000
44.5600 103.0000 1.0000
44.5800 99.0000 1.0000
44.6000 124.0000 1.0000
44.6200 99.0000 1.0000
44.6400 108.0000 1.0000
44.6600 115.0000 1.0000
44.6800 106.0000 1.0000
44.7000 119.0000 1.0000
44.7200 124.0000 1.0000
44.7400 110.0000 1.0000
44.7600 99.0000 1.0000
44.7800 108.0000 1.0000
44.8000 137.0000 1.0000
44.8200 124.0000 1.0000
44.8400 123.0000 1.0000
44.8600 130.0000 1.0000
44.8800 144.0000 1.0000
44.9000 141.0000 1.0000
44.9200 152.0000 1.0000
44.9400 167.0000 1.0000
44.9600 152.0000 1.0000
44.9800 165.0000 1.0000
45.0000 153.0000 1.0000
45.0200 177.0000 1.0000
45.0400 164.0000 1.0000
45.0600 173.0000 1.0000
45.0800 197.0000 1.0000
45.1000 249.0000 1.0000
45.1200 246.0000 1.0000
45.1400 279.0000 1.0000
45.1600 277.0000 1.0000
45.1800 322.0000 1.0000
45.2000 331.0000 1.0000
45.2200 352.0000 1.0000
45.2400 399.0000 1.0000
45.2600 412.0000 1.0000
45.2800 428.0000 1.0000
45.3000 411.0000 1.0000
45.3200 400.0000 1.0000
45.3400 409.0000 1.0000
45.3600 386.0000 1.0000
45.3800 347.0000 1.0000
45.4000 325.0000 1.0000
45.4200 301.0000 1.0000
45.4400 278.0000 1.0000
45.4600 278.0000 1.0000
45.4800 301.0000 1.0000
45.5000 298.0000 1.0000
45.5200 333.0000 1.0000
45.5400 413.0000 1.0000
45.5600 455.0000 1.0000
45.5800 491.0000 1.0000
45.6000 530.0000 1.0000
45.6200 582.0000 1.0000
45.6400 596.0000 1.0000
45.6600 586.0000 1.0000
45.6800 542.0000 1.0000
45.7000 556.0000 1.0000
45.7200 487.0000 1.0000
45.7400 441.0000 1.0000
45.7600 428.0000 1.0000
45.7800 391.0000 1.0000
45.8000 353.0000 1.0000
45.8200 310.0000 1.0000
45.8400 269.0000 1.0000
45.8600 214.0000 1.0000
45.8800 215.0000 1.0000
45.9000 208.0000 1.0000
45.9200 185.0000 1.0000
45.9400 177.0000 1.0000
45.9600 193.0000 1.0000
45.9800 194.0000 1.0000
46.0000 190.0000 1.0000
46.0200 193.0000 1.0000
46.0400 189.0000 1.0000
46.0600 150.0000 1.0000
46.0800 147.0000 1.0000
46.1000 153.0000 1.0000
46.1200 145.0000 1.0000
46.1400 134.0000 1.0000
46.1600 129.0000 1.0000
46.1800 130.0000 1.0000
46.2000 127.0000 1.0000
46.2200 118.0000 1.0000
46.2400 114.0000 1.0000
46.2600 123.0000 1.0000
46.2800 129.0000 1.0000
46.3000 117.0000 1.0000
46.3200 117.0000 1.0000
46.3400 128.0000 1.0000
46.3600 121.0000 1.0000
46.3800 127.0000 1.0000
46.4000 136.0000 1.0000
46.4200 137.0000 1.0000
46.4400 120.0000 1.0000
46.4600 111.0000 1.0000
46.4800 122.0000 1.0000
46.5000 118.0000 1.0000
46.5200 117.0000 1.0000
46.5400 101.0000 1.0000
46.5600 104.0000 1.0000
46.5800 106.0000 1.0000
46.6000 99.0000 1.0000
46.6200 90.0000 1.0000
46.6400 110.0000 1.0000
46.6600 89.0000 1.0000
46.6800 98.0000 1.0000
46.7000 104.0000 1.0000
46.7200 102.0000 1.0000
46.7400 103.0000 1.0000
46.7600 102.0000 1.0000
46.7800 117.0000 1.0000
46.8000 117.0000 1.0000
46.8200 134.0000 1.0000
46.8400 137.0000 1.0000
46.8600 142.0000 1.0000
46.8800 134.0000 1.0000
46.9000 113.0000 1.0000
46.9200 136.0000 1.0000
46.9400 115.0000 1.0000
46.9600 122.0000 1.0000
46.9800 133.0000 1.0000
47.0000 131.0000 1.0000
47.0200 132.0000 1.0000
47.0400 135.0000 1.0000
47.0600 119.0000 1.0000
47.0800 123.0000 1.0000
47.1000 113.0000 1.0000
47.1200 112.0000 1.0000
47.1400 114.0000 1.0000
47.1600 106.0000 1.0000
47.1800 115.0000 1.0000
47.2000 104.0000 1.0000
47.2200 102.0000 1.0000
47.2400 109.0000 1.0000
47.2600 112.0000 1.0000
47.2800 108.0000 1.0000
47.3000 105.0000 1.0000
47.3200 103.0000 1.0000
47.3400 101.0000 1.0000
47.3600 111.0000 1.0000
47.3800 102.0000 1.0000
47.4000 89.0000 1.0000
47.4200 92.0000 1.0000
47.4400 88.0000 1.0000
47.4600 85.0000 1.0000
47.4800 85.0000 1.0000
47.5000 90.0000 1.0000
47.5200 100.0000 1.0000
47.5400 100.0000 1.0000
47.5600 97.0000 1.0000
47.5800 93.0000 1.0000
47.6000 92.0000 1.0000
47.6200 105.0000 1.0000
47.6400 108.0000 1.0000
47.6600 109.0000 1.0000
47.6800 118.0000 1.0000
47.7000 109.0000 1.0000
47.7200 121.0000 1.0000
47.7400 142.0000 1.0000
47.7600 138.0000 1.0000
47.7800 126.0000 1.0000
47.8000 122.0000 1.0000
47.8200 132.0000 1.0000
47.8400 151.0000 1.0000
47.8600 153.0000 1.0000
47.8800 145.0000 1.0000
47.9000 145.0000 1.0000
47.9200 142.0000 1.0000
47.9400 161.0000 1.0000
47.9600 169.0000 1.0000
47.9800 164.0000 1.0000
48.0000 155.0000 1.0000
48.0200 151.0000 1.0000
48.0400 145.0000 1.0000
48.0600 157.0000 1.0000
48.0800 167.0000 1.0000
48.1000 154.0000 1.0000
48.1200 149.0000 1.0000
48.1400 134.0000 1.0000
48.1600 123.0000 1.0000
48.1800 125.0000 1.0000
48.2000 123.0000 1.0000
48.2200 119.0000 1.0000
48.2400 115.0000 1.0000
48.2600 112.0000 1.0000
48.2800 110.0000 1.0000
48.3000 122.0000 1.0000
48.3200 131.0000 1.0000
48.3400 116.0000 1.0000
48.3600 131.0000 1.0000
48.3800 130.0000 1.0000
48.4000 116.0000 1.0000
48.4200 127.0000 1.0000
48.4400 123.0000 1.0000
48.4600 116.0000 1.0000
48.4800 111.0000 1.0000
48.5000 108.0000 1.0000
48.5200 112.0000 1.0000
48.5400 123.0000 1.0000
48.5600 115.0000 1.0000
48.5800 109.0000 1.0000
48.6000 116.0000 1.0000
48.6200 121.0000 1.0000
48.6400 120.0000 1.0000
48.6600 111.0000 1.0000
48.6800 111.0000 1.0000
48.7000 110.0000 1.0000
48.7200 114.0000 1.0000
48.7400 127.0000 1.0000
48.7600 128.0000 1.0000
48.7800 119.0000 1.0000
48.8000 116.0000 1.0000
48.8200 123.0000 1.0000
48.8400 125.0000 1.0000
48.8600 119.0000 1.0000
48.8800 130.0000 1.0000
48.9000 143.0000 1.0000
48.9200 148.0000 1.0000
48.9400 137.0000 1.0000
48.9600 142.0000 1.0000
48.9800 156.0000 1.0000
49.0000 155.0000 1.0000
49.0200 163.0000 1.0000
49.0400 173.0000 1.0000
49.0600 184.0000 1.0000
49.0800 184.0000 1.0000
49.1000 171.0000 1.0000
49.1200 163.0000 1.0000
49.1400 178.0000 1.0000
49.1600 180.0000 1.0000
49.1800 170.0000 1.0000
49.2000 167.0000 1.0000
49.2200 171.0000 1.0000
49.2400 171.0000 1.0000
49.2600 157.0000 1.0000
49.2800 149.0000 1.0000
49.3000 179.0000 1.0000
49.3200 177.0000 1.0000
49.3400 161.0000 1.0000
49.3600 179.0000 1.0000
49.3800 171.0000 1.0000
49.4000 188.0000 1.0000
49.4200 191.0000 1.0000
49.4400 180.0000 1.0000
49.4600 170.0000 1.0000
49.4800 179.0000 1.0000
49.5000 200.0000 1.0000
49.5200 197.0000 1.0000
49.5400 188.0000 1.0000
49.5600 211.0000 1.0000
49.5800 219.0000 1.0000
49.6000 224.0000 1.0000
49.6200 241.0000 1.0000
49.6400 241.0000 1.0000
49.6600 266.0000 1.0000
49.6800 298.0000 1.0000
49.7000 285.0000 1.0000
49.7200 286.0000 1.0000
49.7400 314.0000 1.0000
49.7600 330.0000 1.0000
49.7800 379.0000 1.0000
49.8000 419.0000 1.0000
49.8200 460.0000 1.0000
49.8400 518.0000 1.0000
49.8600 613.0000 1.0000
49.8800 775.0000 1.0000
49.9000 904.0000 1.0000
49.9200 1137.0000 1.0000
49.9400 1400.0000 1.0000
49.9600 1572.0000 1.0000
49.9800 1692.0000 1.0000
50.0000 1701.0000 1.0000
50.0200 1651.0000 1.0000
50.0400 1536.0000 1.0000
50.0600 1342.0000 1.0000
50.0800 1147.0000 1.0000
50.1000 1055.0000 1.0000
50.1200 1031.0000 1.0000
50.1400 920.0000 1.0000
50.1600 826.0000 1.0000
50.1800 653.0000 1.0000
50.2000 497.0000 1.0000
50.2200 401.0000 1.0000
50.2400 342.0000 1.0000
50.2600 285.0000 1.0000
50.2800 263.0000 1.0000
50.3000 280.0000 1.0000
50.3200 262.0000 1.0000
50.3400 250.0000 1.0000
50.3600 282.0000 1.0000
50.3800 302.0000 1.0000
50.4000 307.0000 1.0000
50.4200 351.0000 1.0000
50.4400 306.0000 1.0000
50.4600 340.0000 1.0000
50.4800 340.0000 1.0000
50.5000 326.0000 1.0000
50.5200 312.0000 1.0000
50.5400 276.0000 1.0000
50.5600 262.0000 1.0000
50.5800 253.0000 1.0000
50.6000 236.0000 1.0000
50.6200 248.0000 1.0000
50.6400 243.0000 1.0000
50.6600 237.0000 1.0000
50.6800 212.0000 1.0000
50.7000 192.0000 1.0000
50.7200 182.0000 1.0000
50.7400 145.0000 1.0000
50.7600 159.0000 1.0000
50.7800 158.0000 1.0000
50.8000 156.0000 1.0000
50.8200 146.0000 1.0000
50.8400 146.0000 1.0000
50.8600 138.0000 1.0000
50.8800 157.0000 1.0000
50.9000 151.0000 1.0000
50.9200 154.0000 1.0000
50.9400 173.0000 1.0000
50.9600 204.0000 1.0000
50.9800 187.0000 1.0000
51.0000 221.0000 1.0000
51.0200 195.0000 1.0000
51.0400 210.0000 1.0000
51.0600 188.0000 1.0000
51.0800 186.0000 1.0000
51.1000 182.0000 1.0000
51.1200 167.0000 1.0000
51.1400 155.0000 1.0000
51.1600 158.0000 1.0000
51.1800 149.0000 1.0000
51.2000 131.0000 1.0000
51.2200 114.0000 1.0000
51.2400 100.0000 1.0000
51.2600 126.0000 1.0000
51.2800 119.0000 1.0000
51.3000 110.0000 1.0000
51.3200 103.0000 1.0000
51.3400 111.0000 1.0000
51.3600 109.0000 1.0000
51.3800 119.0000 1.0000
51.4000 120.0000 1.0000
51.4200 109.0000 1.0000
51.4400 107.0000 1.0000
51.4600 102.0000 1.0000
51.4800 97.0000 1.0000
51.5000 107.0000 1.0000
51.5200 125.0000 1.0000
51.5400 94.0000 1.0000
51.5600 101.0000 1.0000
51.5800 120.0000 1.0000
51.6000 95.0000 1.0000
51.6200 96.0000 1.0000
51.6400 85.0000 1.0000
51.6600 116.0000 1.0000
51.6800 93.0000 1.0000
51.7000 78.0000 1.0000
51.7200 97.0000 1.0000
51.7400 102.0000 1.0000
51.7600 109.0000 1.0000
51.7800 90.0000 1.0000
51.8000 91.0000 1.0000
51.8200 95.0000 1.0000
51.8400 96.0000 1.0000
51.8600 118.0000 1.0000
51.8800 102.0000 1.0000
51.9000 136.0000 1.0000
51.9200 135.0000 1.0000
51.9400 115.0000 1.0000
51.9600 122.0000 1.0000
51.9800 130.0000 1.0000
52.0000 134.0000 1.0000
52.0200 144.0000 1.0000
52.0400 138.0000 1.0000
52.0600 178.0000 1.0000
52.0800 148.0000 1.0000
52.1000 176.0000 1.0000
52.1200 168.0000 1.0000
52.1400 182.0000 1.0000
52.1600 189.0000 1.0000
52.1800 193.0000 1.0000
52.2000 219.0000 1.0000
52.2200 220.0000 1.0000
52.2400 248.0000 1.0000
52.2600 258.0000 1.0000
52.2800 351.0000 1.0000
52.3000 434.0000 1.0000
52.3200 493.0000 1.0000
52.3400 631.0000 1.0000
52.3600 718.0000 1.0000
52.3800 763.0000 1.0000
52.4000 875.0000 1.0000
52.4200 819.0000 1.0000
52.4400 798.0000 1.0000
52.4600 737.0000 1.0000
52.4800 721.0000 1.0000
52.5000 681.0000 1.0000
52.5200 589.0000 1.0000
52.5400 577.0000 1.0000
52.5600 531.0000 1.0000
52.5800 469.0000 1.0000
52.6000 403.0000 1.0000
52.6200 364.0000 1.0000
52.6400 280.0000 1.0000
52.6600 229.0000 1.0000
52.6800 220.0000 1.0000
52.7000 190.0000 1.0000
52.7200 186.0000 1.0000
52.7400 161.0000 1.0000
52.7600 134.0000 1.0000
52.7800 130.0000 1.0000
52.8000 154.0000 1.0000
52.8200 165.0000 1.0000
52.8400 125.0000 1.0000
52.8600 154.0000 1.0000
52.8800 127.0000 1.0000
52.9000 131.0000 1.0000
52.9200 133.0000 1.0000
52.9400 127.0000 1.0000
52.9600 136.0000 1.0000
52.9800 134.0000 1.0000
53.0000 140.0000 1.0000
53.0200 131.0000 1.0000
53.0400 145.0000 1.0000
53.0600 145.0000 1.0000
53.0800 155.0000 1.0000
53.1000 137.0000 1.0000
53.1200 135.0000 1.0000
53.1400 161.0000 1.0000
53.1600 138.0000 1.0000
53.1800 153.0000 1.0000
53.2000 148.0000 1.0000
53.2200 115.0000 1.0000
53.2400 130.0000 1.0000
53.2600 137.0000 1.0000
53.2800 130.0000 1.0000
53.3000 125.0000 1.0000
53.3200 117.0000 1.0000
53.3400 117.0000 1.0000
53.3600 114.0000 1.0000
53.3800 109.0000 1.0000
53.4000 113.0000 1.0000
53.4200 102.0000 1.0000
53.4400 116.0000 1.0000
53.4600 123.0000 1.0000
53.4800 117.0000 1.0000
53.5000 108.0000 1.0000
53.5200 121.0000 1.0000
53.5400 118.0000 1.0000
53.5600 125.0000 1.0000
53.5800 124.0000 1.0000
53.6000 117.0000 1.0000
53.6200 113.0000 1.0000
53.6400 141.0000 1.0000
53.6600 156.0000 1.0000
53.6800 130.0000 1.0000
53.7000 128.0000 1.0000
53.7200 135.0000 1.0000
53.7400 135.0000 1.0000
53.7600 138.0000 1.0000
53.7800 130.0000 1.0000
53.8000 146.0000 1.0000
53.8200 147.0000 1.0000
53.8400 160.0000 1.0000
53.8600 146.0000 1.0000
53.8800 130.0000 1.0000
53.9000 142.0000 1.0000
53.9200 161.0000 1.0000
53.9400 140.0000 1.0000
53.9600 156.0000 1.0000
53.9800 144.0000 1.0000
54.0000 142.0000 1.0000
54.0200 141.0000 1.0000
54.0400 150.0000 1.0000
54.0600 145.0000 1.0000
54.0800 130.0000 1.0000
54.1000 131.0000 1.0000
54.1200 128.0000 1.0000
54.1400 141.0000 1.0000
54.1600 143.0000 1.0000
54.1800 144.0000 1.0000
54.2000 154.0000 1.0000
54.2200 133.0000 1.0000
54.2400 125.0000 1.0000
54.2600 137.0000 1.0000
54.2800 148.0000 1.0000
54.3000 137.0000 1.0000
54.3200 153.0000 1.0000
54.3400 146.0000 1.0000
54.3600 137.0000 1.0000
54.3800 142.0000 1.0000
54.4000 148.0000 1.0000
54.4200 151.0000 1.0000
54.4400 147.0000 1.0000
54.4600 154.0000 1.0000
54.4800 161.0000 1.0000
54.5000 171.0000 1.0000
54.5200 176.0000 1.0000
54.5400 172.0000 1.0000
54.5600 207.0000 1.0000
54.5800 235.0000 1.0000
54.6000 265.0000 1.0000
54.6200 304.0000 1.0000
54.6400 358.0000 1.0000
54.6600 379.0000 1.0000
54.6800 467.0000 1.0000
54.7000 540.0000 1.0000
54.7200 563.0000 1.0000
54.7400 532.0000 1.0000
54.7600 530.0000 1.0000
54.7800 539.0000 1.0000
54.8000 476.0000 1.0000
54.8200 438.0000 1.0000
54.8400 421.0000 1.0000
54.8600 406.0000 1.0000
54.8800 406.0000 1.0000
54.9000 383.0000 1.0000
54.9200 372.0000 1.0000
54.9400 343.0000 1.0000
54.9600 303.0000 1.0000
54.9800 262.0000 1.0000
55.0000 257.0000 1.0000
55.0200 268.0000 1.0000
55.0400 260.0000 1.0000
55.0600 262.0000 1.0000
55.0800 258.0000 1.0000
55.1000 272.0000 1.0000
55.1200 297.0000 1.0000
55.1400 319.0000 1.0000
55.1600 337.0000 1.0000
55.1800 350.0000 1.0000
55.2000 333.0000 1.0000
55.2200 336.0000 1.0000
55.2400 313.0000 1.0000
55.2600 303.0000 1.0000
55.2800 280.0000 1.0000
55.3000 264.0000 1.0000
55.3200 291.0000 1.0000
55.3400 267.0000 1.0000
55.3600 235.0000 1.0000
55.3800 235.0000 1.0000
55.4000 215.0000 1.0000
55.4200 201.0000 1.0000
55.4400 209.0000 1.0000
55.4600 221.0000 1.0000
55.4800 215.0000 1.0000
55.5000 200.0000 1.0000
55.5200 210.0000 1.0000
55.5400 209.0000 1.0000
55.5600 213.0000 1.0000
55.5800 235.0000 1.0000
55.6000 239.0000 1.0000
55.6200 216.0000 1.0000
55.6400 200.0000 1.0000
55.6600 203.0000 1.0000
55.6800 219.0000 1.0000
55.7000 210.0000 1.0000
55.7200 204.0000 1.0000
55.7400 211.0000 1.0000
55.7600 200.0000 1.0000
55.7800 185.0000 1.0000
55.8000 185.0000 1.0000
55.8200 182.0000 1.0000
55.8400 177.0000 1.0000
55.8600 180.0000 1.0000
55.8800 174.0000 1.0000
55.9000 159.0000 1.0000
55.9200 153.0000 1.0000
55.9400 169.0000 1.0000
55.9600 166.0000 1.0000
55.9800 148.0000 1.0000
56.0000 145.0000 1.0000
56.0200 162.0000 1.0000
56.0400 179.0000 1.0000
56.0600 174.0000 1.0000
56.0800 158.0000 1.0000
56.1000 149.0000 1.0000
56.1200 143.0000 1.0000
56.1400 145.0000 1.0000
56.1600 153.0000 1.0000
56.1800 162.0000 1.0000
56.2000 159.0000 1.0000
56.2200 150.0000 1.0000
56.2400 154.0000 1.0000
56.2600 148.0000 1.0000
56.2800 148.0000 1.0000
56.3000 144.0000 1.0000
56.3200 139.0000 1.0000
56.3400 136.0000 1.0000
56.3600 138.0000 1.0000
56.3800 152.0000 1.0000
56.4000 134.0000 1.0000
56.4200 124.0000 1.0000
56.4400 136.0000 1.0000
56.4600 151.0000 1.0000
56.4800 153.0000 1.0000
56.5000 147.0000 1.0000
56.5200 149.0000 1.0000
56.5400 146.0000 1.0000
56.5600 141.0000 1.0000
56.5800 130.0000 1.0000
56.6000 123.0000 1.0000
56.6200 141.0000 1.0000
56.6400 147.0000 1.0000
56.6600 146.0000 1.0000
56.6800 134.0000 1.0000
56.7000 133.0000 1.0000
56.7200 141.0000 1.0000
56.7400 137.0000 1.0000
56.7600 134.0000 1.0000
56.7800 131.0000 1.0000
56.8000 115.0000 1.0000
56.8200 119.0000 1.0000
56.8400 136.0000 1.0000
56.8600 149.0000 1.0000
56.8800 139.0000 1.0000
56.9000 136.0000 1.0000
56.9200 155.0000 1.0000
56.9400 162.0000 1.0000
56.9600 161.0000 1.0000
56.9800 179.0000 1.0000
57.0000 189.0000 1.0000
57.0200 183.0000 1.0000
57.0400 201.0000 1.0000
57.0600 230.0000 1.0000
57.0800 224.0000 1.0000
57.1000 237.0000 1.0000
57.1200 272.0000 1.0000
57.1400 296.0000 1.0000
57.1600 328.0000 1.0000
57.1800 357.0000 1.0000
57.2000 432.0000 1.0000
57.2200 523.0000 1.0000
57.2400 604.0000 1.0000
57.2600 759.0000 1.0000
57.2800 912.0000 1.0000
57.3000 1138.0000 1.0000
57.3200 1296.0000 1.0000
57.3400 1439.0000 1.0000
57.3600 1494.0000 1.0000
57.3800 1452.0000 1.0000
57.4000 1396.0000 1.0000
57.4200 1223.0000 1.0000
57.4400 1123.0000 1.0000
57.4600 1077.0000 1.0000
57.4800 1012.0000 1.0000
57.5000 973.0000 1.0000
57.5200 874.0000 1.0000
57.5400 784.0000 1.0000
57.5600 714.0000 1.0000
57.5800 608.0000 1.0000
57.6000 456.0000 1.0000
57.6200 359.0000 1.0000
57.6400 286.0000 1.0000
57.6600 227.0000 1.0000
57.6800 197.0000 1.0000
57.7000 197.0000 1.0000
57.7200 199.0000 1.0000
57.7400 173.0000 1.0000
57.7600 167.0000 1.0000
57.7800 148.0000 1.0000
57.8000 160.0000 1.0000
57.8200 155.0000 1.0000
57.8400 145.0000 1.0000
57.8600 148.0000 1.0000
57.8800 131.0000 1.0000
57.9000 132.0000 1.0000
57.9200 141.0000 1.0000
57.9400 145.0000 1.0000
57.9600 132.0000 1.0000
57.9800 129.0000 1.0000
58.0000 144.0000 1.0000
58.0200 129.0000 1.0000
58.0400 142.0000 1.0000
58.0600 131.0000 1.0000
58.0800 139.0000 1.0000
58.1000 123.0000 1.0000
58.1200 111.0000 1.0000
58.1400 122.0000 1.0000
58.1600 128.0000 1.0000
58.1800 137.0000 1.0000
58.2000 120.0000 1.0000
58.2200 106.0000 1.0000
58.2400 112.0000 1.0000
58.2600 119.0000 1.0000
58.2800 117.0000 1.0000
58.3000 121.0000 1.0000
58.3200 128.0000 1.0000
58.3400 139.0000 1.0000
58.3600 133.0000 1.0000
58.3800 143.0000 1.0000
58.4000 149.0000 1.0000
58.4200 143.0000 1.0000
58.4400 149.0000 1.0000
58.4600 135.0000 1.0000
58.4800 124.0000 1.0000
58.5000 137.0000 1.0000
58.5200 144.0000 1.0000
58.5400 153.0000 1.0000
58.5600 141.0000 1.0000
58.5800 140.0000 1.0000
58.6000 145.0000 1.0000
58.6200 142.0000 1.0000
58.6400 162.0000 1.0000
58.6600 162.0000 1.0000
58.6800 133.0000 1.0000
58.7000 140.0000 1.0000
58.7200 131.0000 1.0000
58.7400 124.0000 1.0000
58.7600 124.0000 1.0000
58.7800 120.0000 1.0000
58.8000 131.0000 1.0000
58.8200 148.0000 1.0000
58.8400 131.0000 1.0000
58.8600 137.0000 1.0000
58.8800 135.0000 1.0000
58.9000 124.0000 1.0000
58.9200 120.0000 1.0000
58.9400 132.0000 1.0000
58.9600 151.0000 1.0000
58.9800 146.0000 1.0000
59.0000 161.0000 1.0000
59.0200 155.0000 1.0000
59.0400 157.0000 1.0000
59.0600 155.0000 1.0000
59.0800 156.0000 1.0000
59.1000 176.0000 1.0000
59.1200 166.0000 1.0000
59.1400 146.0000 1.0000
59.1600 156.0000 1.0000
59.1800 142.0000 1.0000
59.2000 139.0000 1.0000
59.2200 141.0000 1.0000
59.2400 134.0000 1.0000
59.2600 134.0000 1.0000
59.2800 141.0000 1.0000
59.3000 160.0000 1.0000
59.3200 151.0000 1.0000
59.3400 138.0000 1.0000
59.3600 143.0000 1.0000
59.3800 135.0000 1.0000
59.4000 157.0000 1.0000
59.4200 154.0000 1.0000
59.4400 189.0000 1.0000
59.4600 186.0000 1.0000
59.4800 197.0000 1.0000
59.5000 198.0000 1.0000
59.5200 203.0000 1.0000
59.5400 193.0000 1.0000
59.5600 213.0000 1.0000
59.5800 237.0000 1.0000
59.6000 269.0000 1.0000
59.6200 275.0000 1.0000
59.6400 308.0000 1.0000
59.6600 348.0000 1.0000
59.6800 426.0000 1.0000
59.7000 463.0000 1.0000
59.7200 557.0000 1.0000
59.7400 697.0000 1.0000
59.7600 837.0000 1.0000
59.7800 947.0000 1.0000
59.8000 1055.0000 1.0000
59.8200 1115.0000 1.0000
59.8400 1074.0000 1.0000
59.8600 1053.0000 1.0000
59.8800 935.0000 1.0000
59.9000 841.0000 1.0000
59.9200 723.0000 1.0000
59.9400 691.0000 1.0000
59.9600 681.0000 1.0000
59.9800 693.0000 1.0000
60.0000 639.0000 1.0000
60.0200 575.0000 1.0000
60.0400 486.0000 1.0000
60.0600 436.0000 1.0000
60.0800 344.0000 1.0000
60.1000 278.0000 1.0000
60.1200 261.0000 1.0000
60.1400 240.0000 1.0000
60.1600 195.0000 1.0000
60.1800 188.0000 1.0000
60.2000 189.0000 1.0000
60.2200 187.0000 1.0000
60.2400 197.0000 1.0000
60.2600 184.0000 1.0000
60.2800 156.0000 1.0000
60.3000 151.0000 1.0000
60.3200 158.0000 1.0000
60.3400 177.0000 1.0000
60.3600 164.0000 1.0000
60.3800 194.0000 1.0000
60.4000 180.0000 1.0000
60.4200 148.0000 1.0000
60.4400 180.0000 1.0000
60.4600 189.0000 1.0000
60.4800 174.0000 1.0000
60.5000 167.0000 1.0000
60.5200 172.0000 1.0000
60.5400 173.0000 1.0000
60.5600 182.0000 1.0000
60.5800 159.0000 1.0000
60.6000 156.0000 1.0000
60.6200 157.0000 1.0000
60.6400 167.0000 1.0000
60.6600 158.0000 1.0000
60.6800 172.0000 1.0000
60.7000 161.0000 1.0000
60.7200 145.0000 1.0000
60.7400 156.0000 1.0000
60.7600 132.0000 1.0000
60.7800 129.0000 1.0000
60.8000 142.0000 1.0000
60.8200 152.0000 1.0000
60.8400 134.0000 1.0000
60.8600 163.0000 1.0000
60.8800 160.0000 1.0000
60.9000 146.0000 1.0000
60.9200 189.0000 1.0000
60.9400 173.0000 1.0000
60.9600 189.0000 1.0000
60.9800 212.0000 1.0000
61.0000 204.0000 1.0000
61.0200 209.0000 1.0000
61.0400 211.0000 1.0000
61.0600 214.0000 1.0000
61.0800 241.0000 1.0000
61.1000 246.0000 1.0000
61.1200 284.0000 1.0000
61.1400 320.0000 1.0000
61.1600 308.0000 1.0000
61.1800 344.0000 1.0000
61.2000 338.0000 1.0000
61.2200 318.0000 1.0000
61.2400 334.0000 1.0000
61.2600 294.0000 1.0000
61.2800 317.0000 1.0000
61.3000 336.0000 1.0000
61.3200 330.0000 1.0000
61.3400 369.0000 1.0000
61.3600 329.0000 1.0000
61.3800 327.0000 1.0000
61.4000 355.0000 1.0000
61.4200 339.0000 1.0000
61.4400 303.0000 1.0000
61.4600 282.0000 1.0000
61.4800 288.0000 1.0000
61.5000 295.0000 1.0000
61.5200 279.0000 1.0000
61.5400 261.0000 1.0000
61.5600 231.0000 1.0000
61.5800 257.0000 1.0000
61.6000 280.0000 1.0000
61.6200 241.0000 1.0000
61.6400 225.0000 1.0000
61.6600 219.0000 1.0000
61.6800 213.0000 1.0000
61.7000 220.0000 1.0000
61.7200 194.0000 1.0000
61.7400 185.0000 1.0000
61.7600 168.0000 1.0000
61.7800 183.0000 1.0000
61.8000 168.0000 1.0000
61.8200 170.0000 1.0000
61.8400 152.0000 1.0000
61.8600 160.0000 1.0000
61.8800 160.0000 1.0000
61.9000 138.0000 1.0000
61.9200 145.0000 1.0000
61.9400 147.0000 1.0000
61.9600 141.0000 1.0000
61.9800 142.0000 1.0000
62.0000 121.0000 1.0000
62.0200 126.0000 1.0000
62.0400 152.0000 1.0000
62.0600 126.0000 1.0000
62.0800 137.0000 1.0000
62.1000 142.0000 1.0000
62.1200 152.0000 1.0000
62.1400 131.0000 1.0000
62.1600 151.0000 1.0000
62.1800 130.0000 1.0000
62.2000 126.0000 1.0000
62.2200 142.0000 1.0000
62.2400 129.0000 1.0000
62.2600 130.0000 1.0000
62.2800 123.0000 1.0000
62.3000 133.0000 1.0000
62.3200 138.0000 1.0000
62.3400 124.0000 1.0000
62.3600 133.0000 1.0000
62.3800 140.0000 1.0000
62.4000 136.0000 1.0000
62.4200 131.0000 1.0000
62.4400 137.0000 1.0000
62.4600 130.0000 1.0000
62.4800 142.0000 1.0000
62.5000 121.0000 1.0000
62.5200 119.0000 1.0000
62.5400 130.0000 1.0000
62.5600 127.0000 1.0000
62.5800 135.0000 1.0000
62.6000 126.0000 1.0000
62.6200 113.0000 1.0000
62.6400 100.0000 1.0000
62.6600 106.0000 1.0000
62.6800 107.0000 1.0000
62.7000 107.0000 1.0000
62.7200 103.0000 1.0000
62.7400 106.0000 1.0000
62.7600 119.0000 1.0000
62.7800 116.0000 1.0000
62.8000 123.0000 1.0000
62.8200 98.0000 1.0000
62.8400 124.0000 1.0000
62.8600 104.0000 1.0000
62.8800 110.0000 1.0000
62.9000 108.0000 1.0000
62.9200 105.0000 1.0000
62.9400 114.0000 1.0000
62.9600 108.0000 1.0000
62.9800 91.0000 1.0000
63.0000 101.0000 1.0000
63.0200 106.0000 1.0000
63.0400 115.0000 1.0000
63.0600 120.0000 1.0000
63.0800 111.0000 1.0000
63.1000 118.0000 1.0000
63.1200 122.0000 1.0000
63.1400 108.0000 1.0000
63.1600 112.0000 1.0000
63.1800 113.0000 1.0000
63.2000 116.0000 1.0000
63.2200 122.0000 1.0000
63.2400 107.0000 1.0000
63.2600 120.0000 1.0000
63.2800 127.0000 1.0000
63.3000 148.0000 1.0000
63.3200 139.0000 1.0000
63.3400 140.0000 1.0000
63.3600 154.0000 1.0000
63.3800 132.0000 1.0000
63.4000 162.0000 1.0000
63.4200 141.0000 1.0000
63.4400 152.0000 1.0000
63.4600 134.0000 1.0000
63.4800 153.0000 1.0000
63.5000 141.0000 1.0000
63.5200 145.0000 1.0000
63.5400 171.0000 1.0000
63.5600 171.0000 1.0000
63.5800 178.0000 1.0000
63.6000 182.0000 1.0000
63.6200 156.0000 1.0000
63.6400 164.0000 1.0000
63.6600 187.0000 1.0000
63.6800 195.0000 1.0000
63.7000 197.0000 1.0000
63.7200 203.0000 1.0000
63.7400 196.0000 1.0000
63.7600 218.0000 1.0000
63.7800 261.0000 1.0000
63.8000 293.0000 1.0000
63.8200 295.0000 1.0000
63.8400 296.0000 1.0000
63.8600 315.0000 1.0000
63.8800 344.0000 1.0000
63.9000 348.0000 1.0000
63.9200 350.0000 1.0000
63.9400 321.0000 1.0000
63.9600 300.0000 1.0000
63.9800 275.0000 1.0000
64.0000 248.0000 1.0000
64.0200 240.0000 1.0000
64.0400 252.0000 1.0000
64.0600 241.0000 1.0000
64.0800 230.0000 1.0000
64.1000 208.0000 1.0000
64.1200 195.0000 1.0000
64.1400 180.0000 1.0000
64.1600 157.0000 1.0000
64.1800 152.0000 1.0000
64.2000 129.0000 1.0000
64.2200 126.0000 1.0000
64.2400 120.0000 1.0000
64.2600 126.0000 1.0000
64.2800 124.0000 1.0000
64.3000 120.0000 1.0000
64.3200 117.0000 1.0000
64.3400 131.0000 1.0000
64.3600 114.0000 1.0000
64.3800 110.0000 1.0000
64.4000 132.0000 1.0000
64.4200 118.0000 1.0000
64.4400 119.0000 1.0000
64.4600 123.0000 1.0000
64.4800 120.0000 1.0000
64.5000 123.0000 1.0000
64.5200 124.0000 1.0000
64.5400 124.0000 1.0000
64.5600 140.0000 1.0000
64.5800 144.0000 1.0000
64.6000 143.0000 1.0000
64.6200 130.0000 1.0000
64.6400 136.0000 1.0000
64.6600 134.0000 1.0000
64.6800 118.0000 1.0000
64.7000 122.0000 1.0000
64.7200 134.0000 1.0000
64.7400 138.0000 1.0000
64.7600 145.0000 1.0000
64.7800 151.0000 1.0000
64.8000 129.0000 1.0000
64.8200 135.0000 1.0000
64.8400 149.0000 1.0000
64.8600 131.0000 1.0000
64.8800 140.0000 1.0000
64.9000 135.0000 1.0000
64.9200 150.0000 1.0000
64.9400 145.0000 1.0000
64.9600 140.0000 1.0000
64.9800 140.0000 1.0000
65.0000 140.0000 1.0000
*RAS_INT_END
*RAS_DATA_END
