*RAS_DATA_START
*RAS_HEADER_START
*CORR_POS_DB_NAME "Angle Correction ASC6 SC WITH Mono_04082019"
*CORR_POS_GONIO_RADIUS ""
*CORR_POS_NODE_INDEX01 ""
*CORR_POS_NODE_INDEX02 ""
*CORR_POS_NODE_INDEX03 ""
*CORR_POS_NODE_INDEX04 ""
*CORR_POS_NODE_INDEX05 ""
*CORR_POS_NODE_INDEX06 ""
*CORR_POS_NODE_INDEX07 ""
*CORR_POS_NODE_INDEX08 ""
*CORR_POS_NODE_INDEX09 ""
*CORR_POS_NODE_INDEX10 ""
*CORR_POS_NODE_INDEX11 ""
*CORR_POS_NODE_LABEL01 "Si(111)"
*CORR_POS_NODE_LABEL02 "Si(220)"
*CORR_POS_NODE_LABEL03 "Si(311)"
*CORR_POS_NODE_LABEL04 "Si(400)"
*CORR_POS_NODE_LABEL05 "Si(331)"
*CORR_POS_NODE_LABEL06 "Si(422)"
*CORR_POS_NODE_LABEL07 "Si(511)"
*CORR_POS_NODE_LABEL08 "Si(440)"
*CORR_POS_NODE_LABEL09 "Si(531)"
*CORR_POS_NODE_LABEL10 "Si(620)"
*CORR_POS_NODE_LABEL11 "Si(533)"
*CORR_POS_NODE_POS_CALC01 "28.377"
*CORR_POS_NODE_POS_CALC02 "47.2506"
*CORR_POS_NODE_POS_CALC03 "56.0725"
*CORR_POS_NODE_POS_CALC04 "69.0822"
*CORR_POS_NODE_POS_CALC05 "76.3294"
*CORR_POS_NODE_POS_CALC06 "87.9853"
*CORR_POS_NODE_POS_CALC07 "94.9091"
*CORR_POS_NODE_POS_CALC08 "106.668"
*CORR_POS_NODE_POS_CALC09 "114.054"
*CORR_POS_NODE_POS_CALC10 "127.511"
*CORR_POS_NODE_POS_CALC11 "136.864"
*CORR_POS_NODE_POS_MEAS01 "28.5058"
*CORR_POS_NODE_POS_MEAS02 "47.345"
*CORR_POS_NODE_POS_MEAS03 "56.1421"
*CORR_POS_NODE_POS_MEAS04 "69.1304"
*CORR_POS_NODE_POS_MEAS05 "76.366"
*CORR_POS_NODE_POS_MEAS06 "88.0213"
*CORR_POS_NODE_POS_MEAS07 "94.9406"
*CORR_POS_NODE_POS_MEAS08 "106.689"
*CORR_POS_NODE_POS_MEAS09 "114.065"
*CORR_POS_NODE_POS_MEAS10 "127.518"
*CORR_POS_NODE_POS_MEAS11 "136.869"
*CORR_POS_OPT_ATTR "集中法"
*CORR_POS_PARAM_MU ""
*CORR_POS_PARAM_PL ""
*CORR_POS_SEMODEL_TYPE "0"
*CORR_POS_STANDARD_TYPE ""
*CORR_POS_VALUE_ANALYZER "None"
*CORR_POS_VALUE_CMONO "None"
*CORR_POS_VALUE_IMONO "None"
*CORR_POS_VALUE_IS "1.250deg"
*CORR_POS_VALUE_ISL "10.0mm"
*CORR_POS_VALUE_ISOLLER "5.0deg"
*CORR_POS_VALUE_RS1 "1.250deg"
*CORR_POS_VALUE_RS2 "0.3mm"
*CORR_POS_VALUE_RSOLLER "5.0deg"
*CORR_POS_XG_FOCUS_L ""
*CORR_POS_XG_WAVE_TYPE ""
*CORR_POS_XG_WAVE_VALUE ""
*DISP_FMT_X "%.2f"
*DISP_FMT_Y "%.0f"
*DISP_FULLSCALE "2859.6000000000"
*DISP_LINE_COLOR "255.0000000000"
*DISP_LINE_STYLE "0.0000000000"
*DISP_LINE_WIDTH "0.2500000000"
*DISP_NOTE "Collected Data-30"
*DISP_OFFSET_Y "0.0000000000"
*DISP_PEAKSEARCH_UNIT_Y "CPS"
*DISP_RANGE_BOTTOM "0.0000000000"
*DISP_RANGE_LEFT "5.0000000000"
*DISP_RANGE_LOGCUTOFF "0.0100000000"
*DISP_RANGE_RIGHT "65.0000000000"
*DISP_RANGE_TOP "2859.6000000000"
*DISP_SCALE_MODE_Y "0.0000000000"
*DISP_TAB_NAME "Theta/2-Theta"
*DISP_TITLE_Y "Intensity"
*DISP_UNIT_Y "CPS"
*DISP_WINDOW_NAME "MSG_MACROENGINE"
*FILE_COMMENT " "
*FILE_MD5 ""
*FILE_MEMO " "
*FILE_OPERATOR "Administrator"
*FILE_PART_ID "MEAS_PBEA_00223"
*FILE_SAMPLE " "
*FILE_TYPE "RAS_RAW"
*FILE_USERGROUP "System Manager"
*FILE_VERSION "1.0000000000"
*HW_ATTACHMENT_ID "ATT1031"
*HW_ATTACHMENT_NAME "6サンプルチェンジャ|ASC-6"
*HW_COUNTER_ID-0 "CUT0021"
*HW_COUNTER_ID-1 "CUT0020"
*HW_COUNTER_ID-2 "CUT0020"
*HW_COUNTER_ID-3 "CMC0021"
*HW_COUNTER_NAME-0 "SC-70|SC-70"
*HW_COUNTER_NAME-1 "None|None"
*HW_COUNTER_NAME-2 "None|None"
*HW_COUNTER_NAME-3 "検出器モノクロメータ|Detector monochromator"
*HW_COUNTER_SELECT_NAME "SC-70|SC-70"
*HW_ECP_HV "671.5000000000"
*HW_ECP_HV_UNIT "V"
*HW_GONIOMETER_ID "GON0070"
*HW_GONIOMETER_NAME "MiniFlex 300/600|MiniFlex 300/600"
*HW_GONIOMETER_RADIUS-0 "79.0"
*HW_GONIOMETER_RADIUS-1 "91.5"
*HW_GONIOMETER_RADIUS-2 "150.0"
*HW_GONIOMETER_RADIUS-3 "0"
*HW_GONIOMETER_RADIUS-4 "103.4"
*HW_GONIOMETER_RADIUS-5 "150.0"
*HW_GONIOMETER_RADIUS-6 "46.6"
*HW_GONIOMETER_RADIUS-7 "160.0"
*HW_I_OPT_ID-0 "ISL0021"
*HW_I_OPT_ID-1 "ISO0021"
*HW_I_OPT_NAME-0 "発散スリット|Divergence slit"
*HW_I_OPT_NAME-1 "入射平行スリット|Incident parallel slit"
*HW_R_ATTENUATER_AUTOMODE "0"
*HW_R_OPT_ID-0 "RSS0021"
*HW_R_OPT_ID-1 "RSO0021"
*HW_R_OPT_ID-2 "RRS0021"
*HW_R_OPT_NAME-0 "散乱スリット|Scattering slit"
*HW_R_OPT_NAME-1 "受光平行スリット|Receiving soller slit"
*HW_R_OPT_NAME-2 "受光スリット|Receiving slit"
*HW_SAMPLE_HOLDER_ID "SMP0000"
*HW_SAMPLE_HOLDER_NAME "無し|None"
*HW_XG_CURRENT_MAX "15"
*HW_XG_CURRENT_MIN "2"
*HW_XG_CURRENT_RESOLUTION "1"
*HW_XG_CURRENT_UNIT "mA"
*HW_XG_FOCUS "1mm x 10mm"
*HW_XG_FOCUS_TYPE "Normal"
*HW_XG_ID "1060"
*HW_XG_NAME "300W/600W 封入管-B|300W/600W Sealed tube-B"
*HW_XG_TARGET_ATOMIC_NUMBER "29.0000000000"
*HW_XG_TARGET_NAME "Cu"
*HW_XG_TYPE "Hermetic"
*HW_XG_VOLTAGE_MAX "40"
*HW_XG_VOLTAGE_MIN "20"
*HW_XG_VOLTAGE_RESOLUTION "1"
*HW_XG_VOLTAGE_UNIT "kV"
*HW_XG_WATT_MAX "0.600"
*HW_XG_WATT_UNIT "kW"
*HW_XG_WAVE_LENGTH_ALPHA1 "1.540593"
*HW_XG_WAVE_LENGTH_ALPHA2 "1.544414"
*HW_XG_WAVE_LENGTH_BETA "1.392250"
*MEAS_COND_AXIS_NAME-0 "Theta/2-Theta"
*MEAS_COND_AXIS_NAME-1 "Spin"
*MEAS_COND_AXIS_NAME-2 "Change"
*MEAS_COND_AXIS_NAME-3 "Soller(inc.)"
*MEAS_COND_AXIS_NAME-4 "IHS"
*MEAS_COND_AXIS_NAME-5 "DS"
*MEAS_COND_AXIS_NAME-6 "SS"
*MEAS_COND_AXIS_NAME-7 "Soller(rec.)"
*MEAS_COND_AXIS_NAME-8 "RS"
*MEAS_COND_AXIS_NAME-9 "Filter"
*MEAS_COND_AXIS_NAME-10 "Monochromator"
*MEAS_COND_AXIS_NAME-11 "HV"
*MEAS_COND_AXIS_NAME-12 "PHA"
*MEAS_COND_AXIS_NAME_INTERNAL-0 "TwoThetaTheta"
*MEAS_COND_AXIS_NAME_INTERNAL-1 "Spin"
*MEAS_COND_AXIS_NAME_INTERNAL-2 "Change"
*MEAS_COND_AXIS_NAME_INTERNAL-3 "IncidentSollerSlit"
*MEAS_COND_AXIS_NAME_INTERNAL-4 "IncidentAxdSlit"
*MEAS_COND_AXIS_NAME_INTERNAL-5 "IncidentSlitBox"
*MEAS_COND_AXIS_NAME_INTERNAL-6 "ReceivingSlitBox1"
*MEAS_COND_AXIS_NAME_INTERNAL-7 "ReceivingSollerSlit"
*MEAS_COND_AXIS_NAME_INTERNAL-8 "ReceivingSlitBox2"
*MEAS_COND_AXIS_NAME_INTERNAL-9 "Filter"
*MEAS_COND_AXIS_NAME_INTERNAL-10 "CounterMonochromator"
*MEAS_COND_AXIS_NAME_INTERNAL-11 "HV"
*MEAS_COND_AXIS_NAME_INTERNAL-12 "PHA"
*MEAS_COND_AXIS_NAME_MAGICNO-0 "268632064.0000000000"
*MEAS_COND_AXIS_NAME_MAGICNO-1 "16842752.0000000000"
*MEAS_COND_AXIS_NAME_MAGICNO-2 "16842752.0000000000"
*MEAS_COND_AXIS_NAME_MAGICNO-3 "20971521.0000000000"
*MEAS_COND_AXIS_NAME_MAGICNO-4 "22020097.0000000000"
*MEAS_COND_AXIS_NAME_MAGICNO-5 "22020097.0000000000"
*MEAS_COND_AXIS_NAME_MAGICNO-6 "23068673.0000000000"
*MEAS_COND_AXIS_NAME_MAGICNO-7 "20971521.0000000000"
*MEAS_COND_AXIS_NAME_MAGICNO-8 "23068673.0000000000"
*MEAS_COND_AXIS_NAME_MAGICNO-9 "20971521.0000000000"
*MEAS_COND_AXIS_NAME_MAGICNO-10 "20971521.0000000000"
*MEAS_COND_AXIS_NAME_MAGICNO-11 "0.0000000000"
*MEAS_COND_AXIS_NAME_MAGICNO-12 "0.0000000000"
*MEAS_COND_AXIS_OFFSET-0 "0.0000000000"
*MEAS_COND_AXIS_OFFSET-1 "-"
*MEAS_COND_AXIS_OFFSET-2 "-"
*MEAS_COND_AXIS_OFFSET-3 "-"
*MEAS_COND_AXIS_OFFSET-4 "-"
*MEAS_COND_AXIS_OFFSET-5 "-"
*MEAS_COND_AXIS_OFFSET-6 "-"
*MEAS_COND_AXIS_OFFSET-7 "-"
*MEAS_COND_AXIS_OFFSET-8 "-"
*MEAS_COND_AXIS_OFFSET-9 "-"
*MEAS_COND_AXIS_OFFSET-10 "-"
*MEAS_COND_AXIS_OFFSET-11 "-"
*MEAS_COND_AXIS_OFFSET-12 "-"
*MEAS_COND_AXIS_POSITION-0 "65.0000000000"
*MEAS_COND_AXIS_POSITION-1 "0.0000000000"
*MEAS_COND_AXIS_POSITION-2 "4.0000000000"
*MEAS_COND_AXIS_POSITION-3 "5.0deg"
*MEAS_COND_AXIS_POSITION-4 "10.0mm"
*MEAS_COND_AXIS_POSITION-5 "1.250deg"
*MEAS_COND_AXIS_POSITION-6 "1.250deg"
*MEAS_COND_AXIS_POSITION-7 "5.0deg"
*MEAS_COND_AXIS_POSITION-8 "0.3mm"
*MEAS_COND_AXIS_POSITION-9 "None"
*MEAS_COND_AXIS_POSITION-10 "Bent"
*MEAS_COND_AXIS_POSITION-11 "671.5000000000"
*MEAS_COND_AXIS_POSITION-12 "551.2500000000"
*MEAS_COND_AXIS_UNIT-0 "deg"
*MEAS_COND_AXIS_UNIT-1 ""
*MEAS_COND_AXIS_UNIT-2 ""
*MEAS_COND_AXIS_UNIT-3 ""
*MEAS_COND_AXIS_UNIT-4 ""
*MEAS_COND_AXIS_UNIT-5 ""
*MEAS_COND_AXIS_UNIT-6 ""
*MEAS_COND_AXIS_UNIT-7 ""
*MEAS_COND_AXIS_UNIT-8 ""
*MEAS_COND_AXIS_UNIT-9 ""
*MEAS_COND_AXIS_UNIT-10 ""
*MEAS_COND_AXIS_UNIT-11 "V"
*MEAS_COND_AXIS_UNIT-12 "mV"
*MEAS_COND_CORRECTION_SLIT_COUNTERMONO "None"
*MEAS_COND_CORRECTION_SLIT_DS "1.250deg"
*MEAS_COND_CORRECTION_SLIT_FILTER "None"
*MEAS_COND_CORRECTION_SLIT_IHS "10.0mm"
*MEAS_COND_CORRECTION_SLIT_RS "0.3mm"
*MEAS_COND_CORRECTION_SLIT_SOLLER_INC "5.0deg"
*MEAS_COND_CORRECTION_SLIT_SOLLER_REC "5.0deg"
*MEAS_COND_CORRECTION_SLIT_SS "1.250deg"
*MEAS_COND_COUNTER_CNTLOSS_CORR "0.0000000000"
*MEAS_COND_COUNTER_PHABASE "551.2500000000"
*MEAS_COND_COUNTER_PHAWINDOW "926.2500000000"
*MEAS_COND_COUNTER_PHA_UNIT "mV"
*MEAS_COND_COUNTER_TAUDIFF "0.2500000000"
*MEAS_COND_COUNTER_TAUINT "0.7500000000"
*MEAS_COND_IRRADIATION_MODE "OFF"
*MEAS_COND_IRRADIATION_WIDTH ""
*MEAS_COND_OPT_ATTR " "
*MEAS_COND_OPT_NAME ""
*MEAS_COND_UNSYMMETRIC_MODE "OFF"
*MEAS_COND_XG_CURRENT "15.0000000000"
*MEAS_COND_XG_VOLTAGE "40.0000000000"
*MEAS_COND_XG_WAVE_TYPE "Ka"
*MEAS_DATA_COUNT "3001.0000000000"
*MEAS_SCAN_AXIS_X "Theta/2-Theta"
*MEAS_SCAN_AXIS_X_INTERNAL "TwoThetaTheta"
*MEAS_SCAN_END_TIME "05/09/25 01:33:00"
*MEAS_SCAN_MODE "STEP"
*MEAS_SCAN_MONITOR "0"
*MEAS_SCAN_RESOLUTION_X "0.0025"
*MEAS_SCAN_SPEED "2.00"
*MEAS_SCAN_SPEED_UNIT "sec."
*MEAS_SCAN_SPEED_USER "2.00"
*MEAS_SCAN_START "5.0000000000"
*MEAS_SCAN_START_TIME "05/08/25 23:47:44"
*MEAS_SCAN_STEP "0.0200000000"
*MEAS_SCAN_STOP "65.0000000000"
*MEAS_SCAN_UNIT_X "deg"
*MEAS_SCAN_UNIT_Y "counts"
*SLIT_SYSTEM "0"
*RAS_HEADER_END
*RAS_INT_START
5.0000 807.0000 1.0000
5.0200 882.0000 1.0000
5.0400 956.0000 1.0000
5.0600 867.0000 1.0000
5.0800 842.0000 1.0000
5.1000 780.0000 1.0000
5.1200 941.0000 1.0000
5.1400 850.0000 1.0000
5.1600 883.0000 1.0000
5.1800 887.0000 1.0000
5.2000 844.0000 1.0000
5.2200 844.0000 1.0000
5.2400 852.0000 1.0000
5.2600 767.0000 1.0000
5.2800 852.0000 1.0000
5.3000 824.0000 1.0000
5.3200 863.0000 1.0000
5.3400 769.0000 1.0000
5.3600 742.0000 1.0000
5.3800 805.0000 1.0000
5.4000 775.0000 1.0000
5.4200 761.0000 1.0000
5.4400 759.0000 1.0000
5.4600 814.0000 1.0000
5.4800 770.0000 1.0000
5.5000 767.0000 1.0000
5.5200 771.0000 1.0000
5.5400 762.0000 1.0000
5.5600 786.0000 1.0000
5.5800 786.0000 1.0000
5.6000 710.0000 1.0000
5.6200 791.0000 1.0000
5.6400 765.0000 1.0000
5.6600 729.0000 1.0000
5.6800 743.0000 1.0000
5.7000 704.0000 1.0000
5.7200 744.0000 1.0000
5.7400 735.0000 1.0000
5.7600 791.0000 1.0000
5.7800 721.0000 1.0000
5.8000 760.0000 1.0000
5.8200 680.0000 1.0000
5.8400 697.0000 1.0000
5.8600 663.0000 1.0000
5.8800 689.0000 1.0000
5.9000 684.0000 1.0000
5.9200 612.0000 1.0000
5.9400 660.0000 1.0000
5.9600 664.0000 1.0000
5.9800 621.0000 1.0000
6.0000 607.0000 1.0000
6.0200 642.0000 1.0000
6.0400 683.0000 1.0000
6.0600 647.0000 1.0000
6.0800 663.0000 1.0000
6.1000 634.0000 1.0000
6.1200 659.0000 1.0000
6.1400 605.0000 1.0000
6.1600 570.0000 1.0000
6.1800 641.0000 1.0000
6.2000 648.0000 1.0000
6.2200 655.0000 1.0000
6.2400 655.0000 1.0000
6.2600 638.0000 1.0000
6.2800 607.0000 1.0000
6.3000 620.0000 1.0000
6.3200 626.0000 1.0000
6.3400 580.0000 1.0000
6.3600 605.0000 1.0000
6.3800 615.0000 1.0000
6.4000 595.0000 1.0000
6.4200 593.0000 1.0000
6.4400 592.0000 1.0000
6.4600 564.0000 1.0000
6.4800 539.0000 1.0000
6.5000 552.0000 1.0000
6.5200 553.0000 1.0000
6.5400 565.0000 1.0000
6.5600 549.0000 1.0000
6.5800 494.0000 1.0000
6.6000 515.0000 1.0000
6.6200 570.0000 1.0000
6.6400 523.0000 1.0000
6.6600 538.0000 1.0000
6.6800 593.0000 1.0000
6.7000 560.0000 1.0000
6.7200 525.0000 1.0000
6.7400 502.0000 1.0000
6.7600 503.0000 1.0000
6.7800 545.0000 1.0000
6.8000 541.0000 1.0000
6.8200 534.0000 1.0000
6.8400 554.0000 1.0000
6.8600 550.0000 1.0000
6.8800 497.0000 1.0000
6.9000 498.0000 1.0000
6.9200 526.0000 1.0000
6.9400 495.0000 1.0000
6.9600 526.0000 1.0000
6.9800 557.0000 1.0000
7.0000 520.0000 1.0000
7.0200 522.0000 1.0000
7.0400 531.0000 1.0000
7.0600 495.0000 1.0000
7.0800 499.0000 1.0000
7.1000 529.0000 1.0000
7.1200 496.0000 1.0000
7.1400 460.0000 1.0000
7.1600 480.0000 1.0000
7.1800 492.0000 1.0000
7.2000 444.0000 1.0000
7.2200 435.0000 1.0000
7.2400 439.0000 1.0000
7.2600 422.0000 1.0000
7.2800 429.0000 1.0000
7.3000 450.0000 1.0000
7.3200 475.0000 1.0000
7.3400 504.0000 1.0000
7.3600 508.0000 1.0000
7.3800 468.0000 1.0000
7.4000 444.0000 1.0000
7.4200 453.0000 1.0000
7.4400 452.0000 1.0000
7.4600 426.0000 1.0000
7.4800 445.0000 1.0000
7.5000 426.0000 1.0000
7.5200 417.0000 1.0000
7.5400 406.0000 1.0000
7.5600 398.0000 1.0000
7.5800 431.0000 1.0000
7.6000 452.0000 1.0000
7.6200 444.0000 1.0000
7.6400 438.0000 1.0000
7.6600 412.0000 1.0000
7.6800 399.0000 1.0000
7.7000 410.0000 1.0000
7.7200 438.0000 1.0000
7.7400 430.0000 1.0000
7.7600 392.0000 1.0000
7.7800 403.0000 1.0000
7.8000 412.0000 1.0000
7.8200 389.0000 1.0000
7.8400 424.0000 1.0000
7.8600 425.0000 1.0000
7.8800 382.0000 1.0000
7.9000 416.0000 1.0000
7.9200 441.0000 1.0000
7.9400 449.0000 1.0000
7.9600 397.0000 1.0000
7.9800 389.0000 1.0000
8.0000 404.0000 1.0000
8.0200 391.0000 1.0000
8.0400 407.0000 1.0000
8.0600 382.0000 1.0000
8.0800 377.0000 1.0000
8.1000 364.0000 1.0000
8.1200 384.0000 1.0000
8.1400 390.0000 1.0000
8.1600 355.0000 1.0000
8.1800 352.0000 1.0000
8.2000 365.0000 1.0000
8.2200 382.0000 1.0000
8.2400 415.0000 1.0000
8.2600 387.0000 1.0000
8.2800 347.0000 1.0000
8.3000 387.0000 1.0000
8.3200 413.0000 1.0000
8.3400 394.0000 1.0000
8.3600 360.0000 1.0000
8.3800 346.0000 1.0000
8.4000 340.0000 1.0000
8.4200 348.0000 1.0000
8.4400 341.0000 1.0000
8.4600 360.0000 1.0000
8.4800 390.0000 1.0000
8.5000 387.0000 1.0000
8.5200 382.0000 1.0000
8.5400 363.0000 1.0000
8.5600 369.0000 1.0000
8.5800 346.0000 1.0000
8.6000 376.0000 1.0000
8.6200 399.0000 1.0000
8.6400 445.0000 1.0000
8.6600 399.0000 1.0000
8.6800 398.0000 1.0000
8.7000 384.0000 1.0000
8.7200 373.0000 1.0000
8.7400 370.0000 1.0000
8.7600 322.0000 1.0000
8.7800 313.0000 1.0000
8.8000 342.0000 1.0000
8.8200 367.0000 1.0000
8.8400 317.0000 1.0000
8.8600 314.0000 1.0000
8.8800 318.0000 1.0000
8.9000 340.0000 1.0000
8.9200 314.0000 1.0000
8.9400 291.0000 1.0000
8.9600 327.0000 1.0000
8.9800 316.0000 1.0000
9.0000 280.0000 1.0000
9.0200 342.0000 1.0000
9.0400 277.0000 1.0000
9.0600 293.0000 1.0000
9.0800 340.0000 1.0000
9.1000 308.0000 1.0000
9.1200 311.0000 1.0000
9.1400 325.0000 1.0000
9.1600 304.0000 1.0000
9.1800 281.0000 1.0000
9.2000 301.0000 1.0000
9.2200 268.0000 1.0000
9.2400 301.0000 1.0000
9.2600 319.0000 1.0000
9.2800 302.0000 1.0000
9.3000 283.0000 1.0000
9.3200 265.0000 1.0000
9.3400 242.0000 1.0000
9.3600 262.0000 1.0000
9.3800 261.0000 1.0000
9.4000 288.0000 1.0000
9.4200 286.0000 1.0000
9.4400 242.0000 1.0000
9.4600 261.0000 1.0000
9.4800 298.0000 1.0000
9.5000 299.0000 1.0000
9.5200 261.0000 1.0000
9.5400 276.0000 1.0000
9.5600 268.0000 1.0000
9.5800 252.0000 1.0000
9.6000 251.0000 1.0000
9.6200 282.0000 1.0000
9.6400 262.0000 1.0000
9.6600 248.0000 1.0000
9.6800 259.0000 1.0000
9.7000 260.0000 1.0000
9.7200 240.0000 1.0000
9.7400 253.0000 1.0000
9.7600 239.0000 1.0000
9.7800 294.0000 1.0000
9.8000 263.0000 1.0000
9.8200 232.0000 1.0000
9.8400 251.0000 1.0000
9.8600 216.0000 1.0000
9.8800 252.0000 1.0000
9.9000 242.0000 1.0000
9.9200 220.0000 1.0000
9.9400 259.0000 1.0000
9.9600 238.0000 1.0000
9.9800 236.0000 1.0000
10.0000 236.0000 1.0000
10.0200 224.0000 1.0000
10.0400 240.0000 1.0000
10.0600 225.0000 1.0000
10.0800 235.0000 1.0000
10.1000 244.0000 1.0000
10.1200 260.0000 1.0000
10.1400 265.0000 1.0000
10.1600 230.0000 1.0000
10.1800 233.0000 1.0000
10.2000 269.0000 1.0000
10.2200 278.0000 1.0000
10.2400 245.0000 1.0000
10.2600 219.0000 1.0000
10.2800 249.0000 1.0000
10.3000 270.0000 1.0000
10.3200 223.0000 1.0000
10.3400 212.0000 1.0000
10.3600 220.0000 1.0000
10.3800 218.0000 1.0000
10.4000 214.0000 1.0000
10.4200 221.0000 1.0000
10.4400 201.0000 1.0000
10.4600 214.0000 1.0000
10.4800 180.0000 1.0000
10.5000 196.0000 1.0000
10.5200 208.0000 1.0000
10.5400 188.0000 1.0000
10.5600 216.0000 1.0000
10.5800 219.0000 1.0000
10.6000 205.0000 1.0000
10.6200 187.0000 1.0000
10.6400 206.0000 1.0000
10.6600 167.0000 1.0000
10.6800 205.0000 1.0000
10.7000 227.0000 1.0000
10.7200 183.0000 1.0000
10.7400 193.0000 1.0000
10.7600 177.0000 1.0000
10.7800 163.0000 1.0000
10.8000 197.0000 1.0000
10.8200 202.0000 1.0000
10.8400 172.0000 1.0000
10.8600 231.0000 1.0000
10.8800 198.0000 1.0000
10.9000 173.0000 1.0000
10.9200 236.0000 1.0000
10.9400 186.0000 1.0000
10.9600 191.0000 1.0000
10.9800 201.0000 1.0000
11.0000 202.0000 1.0000
11.0200 197.0000 1.0000
11.0400 171.0000 1.0000
11.0600 159.0000 1.0000
11.0800 172.0000 1.0000
11.1000 162.0000 1.0000
11.1200 207.0000 1.0000
11.1400 195.0000 1.0000
11.1600 201.0000 1.0000
11.1800 216.0000 1.0000
11.2000 189.0000 1.0000
11.2200 180.0000 1.0000
11.2400 168.0000 1.0000
11.2600 166.0000 1.0000
11.2800 156.0000 1.0000
11.3000 200.0000 1.0000
11.3200 208.0000 1.0000
11.3400 175.0000 1.0000
11.3600 181.0000 1.0000
11.3800 164.0000 1.0000
11.4000 171.0000 1.0000
11.4200 165.0000 1.0000
11.4400 170.0000 1.0000
11.4600 176.0000 1.0000
11.4800 182.0000 1.0000
11.5000 185.0000 1.0000
11.5200 195.0000 1.0000
11.5400 190.0000 1.0000
11.5600 163.0000 1.0000
11.5800 163.0000 1.0000
11.6000 182.0000 1.0000
11.6200 182.0000 1.0000
11.6400 191.0000 1.0000
11.6600 167.0000 1.0000
11.6800 152.0000 1.0000
11.7000 168.0000 1.0000
11.7200 156.0000 1.0000
11.7400 156.0000 1.0000
11.7600 140.0000 1.0000
11.7800 186.0000 1.0000
11.8000 198.0000 1.0000
11.8200 193.0000 1.0000
11.8400 178.0000 1.0000
11.8600 186.0000 1.0000
11.8800 165.0000 1.0000
11.9000 173.0000 1.0000
11.9200 182.0000 1.0000
11.9400 197.0000 1.0000
11.9600 158.0000 1.0000
11.9800 147.0000 1.0000
12.0000 171.0000 1.0000
12.0200 188.0000 1.0000
12.0400 182.0000 1.0000
12.0600 181.0000 1.0000
12.0800 159.0000 1.0000
12.1000 202.0000 1.0000
12.1200 181.0000 1.0000
12.1400 176.0000 1.0000
12.1600 160.0000 1.0000
12.1800 177.0000 1.0000
12.2000 212.0000 1.0000
12.2200 207.0000 1.0000
12.2400 223.0000 1.0000
12.2600 168.0000 1.0000
12.2800 186.0000 1.0000
12.3000 184.0000 1.0000
12.3200 179.0000 1.0000
12.3400 200.0000 1.0000
12.3600 157.0000 1.0000
12.3800 175.0000 1.0000
12.4000 190.0000 1.0000
12.4200 166.0000 1.0000
12.4400 173.0000 1.0000
12.4600 192.0000 1.0000
12.4800 172.0000 1.0000
12.5000 162.0000 1.0000
12.5200 163.0000 1.0000
12.5400 170.0000 1.0000
12.5600 159.0000 1.0000
12.5800 170.0000 1.0000
12.6000 160.0000 1.0000
12.6200 154.0000 1.0000
12.6400 169.0000 1.0000
12.6600 170.0000 1.0000
12.6800 186.0000 1.0000
12.7000 184.0000 1.0000
12.7200 199.0000 1.0000
12.7400 156.0000 1.0000
12.7600 147.0000 1.0000
12.7800 142.0000 1.0000
12.8000 140.0000 1.0000
12.8200 146.0000 1.0000
12.8400 131.0000 1.0000
12.8600 160.0000 1.0000
12.8800 154.0000 1.0000
12.9000 151.0000 1.0000
12.9200 149.0000 1.0000
12.9400 139.0000 1.0000
12.9600 141.0000 1.0000
12.9800 144.0000 1.0000
13.0000 145.0000 1.0000
13.0200 159.0000 1.0000
13.0400 178.0000 1.0000
13.0600 166.0000 1.0000
13.0800 160.0000 1.0000
13.1000 164.0000 1.0000
13.1200 171.0000 1.0000
13.1400 161.0000 1.0000
13.1600 154.0000 1.0000
13.1800 143.0000 1.0000
13.2000 174.0000 1.0000
13.2200 175.0000 1.0000
13.2400 168.0000 1.0000
13.2600 179.0000 1.0000
13.2800 182.0000 1.0000
13.3000 205.0000 1.0000
13.3200 185.0000 1.0000
13.3400 203.0000 1.0000
13.3600 230.0000 1.0000
13.3800 242.0000 1.0000
13.4000 260.0000 1.0000
13.4200 270.0000 1.0000
13.4400 262.0000 1.0000
13.4600 274.0000 1.0000
13.4800 285.0000 1.0000
13.5000 284.0000 1.0000
13.5200 239.0000 1.0000
13.5400 238.0000 1.0000
13.5600 262.0000 1.0000
13.5800 243.0000 1.0000
13.6000 239.0000 1.0000
13.6200 246.0000 1.0000
13.6400 228.0000 1.0000
13.6600 230.0000 1.0000
13.6800 209.0000 1.0000
13.7000 214.0000 1.0000
13.7200 214.0000 1.0000
13.7400 195.0000 1.0000
13.7600 177.0000 1.0000
13.7800 170.0000 1.0000
13.8000 148.0000 1.0000
13.8200 171.0000 1.0000
13.8400 160.0000 1.0000
13.8600 132.0000 1.0000
13.8800 128.0000 1.0000
13.9000 133.0000 1.0000
13.9200 140.0000 1.0000
13.9400 145.0000 1.0000
13.9600 135.0000 1.0000
13.9800 147.0000 1.0000
14.0000 162.0000 1.0000
14.0200 154.0000 1.0000
14.0400 143.0000 1.0000
14.0600 154.0000 1.0000
14.0800 160.0000 1.0000
14.1000 141.0000 1.0000
14.1200 133.0000 1.0000
14.1400 144.0000 1.0000
14.1600 145.0000 1.0000
14.1800 156.0000 1.0000
14.2000 146.0000 1.0000
14.2200 122.0000 1.0000
14.2400 117.0000 1.0000
14.2600 139.0000 1.0000
14.2800 140.0000 1.0000
14.3000 137.0000 1.0000
14.3200 129.0000 1.0000
14.3400 112.0000 1.0000
14.3600 119.0000 1.0000
14.3800 124.0000 1.0000
14.4000 121.0000 1.0000
14.4200 122.0000 1.0000
14.4400 128.0000 1.0000
14.4600 136.0000 1.0000
14.4800 136.0000 1.0000
14.5000 129.0000 1.0000
14.5200 128.0000 1.0000
14.5400 125.0000 1.0000
14.5600 127.0000 1.0000
14.5800 141.0000 1.0000
14.6000 140.0000 1.0000
14.6200 140.0000 1.0000
14.6400 137.0000 1.0000
14.6600 132.0000 1.0000
14.6800 149.0000 1.0000
14.7000 144.0000 1.0000
14.7200 134.0000 1.0000
14.7400 127.0000 1.0000
14.7600 131.0000 1.0000
14.7800 138.0000 1.0000
14.8000 144.0000 1.0000
14.8200 140.0000 1.0000
14.8400 139.0000 1.0000
14.8600 154.0000 1.0000
14.8800 164.0000 1.0000
14.9000 166.0000 1.0000
14.9200 168.0000 1.0000
14.9400 150.0000 1.0000
14.9600 143.0000 1.0000
14.9800 146.0000 1.0000
15.0000 137.0000 1.0000
15.0200 145.0000 1.0000
15.0400 142.0000 1.0000
15.0600 129.0000 1.0000
15.0800 132.0000 1.0000
15.1000 136.0000 1.0000
15.1200 131.0000 1.0000
15.1400 124.0000 1.0000
15.1600 132.0000 1.0000
15.1800 126.0000 1.0000
15.2000 103.0000 1.0000
15.2200 108.0000 1.0000
15.2400 119.0000 1.0000
15.2600 128.0000 1.0000
15.2800 126.0000 1.0000
15.3000 114.0000 1.0000
15.3200 115.0000 1.0000
15.3400 123.0000 1.0000
15.3600 126.0000 1.0000
15.3800 124.0000 1.0000
15.4000 116.0000 1.0000
15.4200 111.0000 1.0000
15.4400 137.0000 1.0000
15.4600 149.0000 1.0000
15.4800 139.0000 1.0000
15.5000 128.0000 1.0000
15.5200 116.0000 1.0000
15.5400 111.0000 1.0000
15.5600 114.0000 1.0000
15.5800 133.0000 1.0000
15.6000 128.0000 1.0000
15.6200 114.0000 1.0000
15.6400 123.0000 1.0000
15.6600 112.0000 1.0000
15.6800 116.0000 1.0000
15.7000 119.0000 1.0000
15.7200 108.0000 1.0000
15.7400 112.0000 1.0000
15.7600 114.0000 1.0000
15.7800 106.0000 1.0000
15.8000 120.0000 1.0000
15.8200 128.0000 1.0000
15.8400 118.0000 1.0000
15.8600 123.0000 1.0000
15.8800 124.0000 1.0000
15.9000 126.0000 1.0000
15.9200 113.0000 1.0000
15.9400 115.0000 1.0000
15.9600 116.0000 1.0000
15.9800 101.0000 1.0000
16.0000 95.0000 1.0000
16.0200 89.0000 1.0000
16.0400 106.0000 1.0000
16.0600 108.0000 1.0000
16.0800 112.0000 1.0000
16.1000 112.0000 1.0000
16.1200 117.0000 1.0000
16.1400 117.0000 1.0000
16.1600 129.0000 1.0000
16.1800 111.0000 1.0000
16.2000 99.0000 1.0000
16.2200 102.0000 1.0000
16.2400 110.0000 1.0000
16.2600 104.0000 1.0000
16.2800 94.0000 1.0000
16.3000 106.0000 1.0000
16.3200 121.0000 1.0000
16.3400 120.0000 1.0000
16.3600 103.0000 1.0000
16.3800 105.0000 1.0000
16.4000 113.0000 1.0000
16.4200 114.0000 1.0000
16.4400 120.0000 1.0000
16.4600 110.0000 1.0000
16.4800 107.0000 1.0000
16.5000 110.0000 1.0000
16.5200 112.0000 1.0000
16.5400 114.0000 1.0000
16.5600 124.0000 1.0000
16.5800 122.0000 1.0000
16.6000 116.0000 1.0000
16.6200 105.0000 1.0000
16.6400 111.0000 1.0000
16.6600 115.0000 1.0000
16.6800 118.0000 1.0000
16.7000 114.0000 1.0000
16.7200 97.0000 1.0000
16.7400 91.0000 1.0000
16.7600 107.0000 1.0000
16.7800 127.0000 1.0000
16.8000 99.0000 1.0000
16.8200 104.0000 1.0000
16.8400 102.0000 1.0000
16.8600 111.0000 1.0000
16.8800 130.0000 1.0000
16.9000 118.0000 1.0000
16.9200 114.0000 1.0000
16.9400 108.0000 1.0000
16.9600 102.0000 1.0000
16.9800 113.0000 1.0000
17.0000 108.0000 1.0000
17.0200 109.0000 1.0000
17.0400 111.0000 1.0000
17.0600 110.0000 1.0000
17.0800 109.0000 1.0000
17.1000 100.0000 1.0000
17.1200 114.0000 1.0000
17.1400 118.0000 1.0000
17.1600 114.0000 1.0000
17.1800 117.0000 1.0000
17.2000 114.0000 1.0000
17.2200 121.0000 1.0000
17.2400 118.0000 1.0000
17.2600 121.0000 1.0000
17.2800 110.0000 1.0000
17.3000 105.0000 1.0000
17.3200 111.0000 1.0000
17.3400 130.0000 1.0000
17.3600 133.0000 1.0000
17.3800 124.0000 1.0000
17.4000 113.0000 1.0000
17.4200 123.0000 1.0000
17.4400 128.0000 1.0000
17.4600 129.0000 1.0000
17.4800 129.0000 1.0000
17.5000 144.0000 1.0000
17.5200 119.0000 1.0000
17.5400 128.0000 1.0000
17.5600 132.0000 1.0000
17.5800 124.0000 1.0000
17.6000 124.0000 1.0000
17.6200 132.0000 1.0000
17.6400 122.0000 1.0000
17.6600 107.0000 1.0000
17.6800 131.0000 1.0000
17.7000 129.0000 1.0000
17.7200 121.0000 1.0000
17.7400 126.0000 1.0000
17.7600 140.0000 1.0000
17.7800 130.0000 1.0000
17.8000 112.0000 1.0000
17.8200 120.0000 1.0000
17.8400 115.0000 1.0000
17.8600 116.0000 1.0000
17.8800 134.0000 1.0000
17.9000 131.0000 1.0000
17.9200 116.0000 1.0000
17.9400 128.0000 1.0000
17.9600 134.0000 1.0000
17.9800 122.0000 1.0000
18.0000 129.0000 1.0000
18.0200 128.0000 1.0000
18.0400 117.0000 1.0000
18.0600 114.0000 1.0000
18.0800 119.0000 1.0000
18.1000 113.0000 1.0000
18.1200 120.0000 1.0000
18.1400 117.0000 1.0000
18.1600 130.0000 1.0000
18.1800 140.0000 1.0000
18.2000 124.0000 1.0000
18.2200 125.0000 1.0000
18.2400 102.0000 1.0000
18.2600 101.0000 1.0000
18.2800 119.0000 1.0000
18.3000 119.0000 1.0000
18.3200 117.0000 1.0000
18.3400 118.0000 1.0000
18.3600 122.0000 1.0000
18.3800 125.0000 1.0000
18.4000 115.0000 1.0000
18.4200 140.0000 1.0000
18.4400 124.0000 1.0000
18.4600 122.0000 1.0000
18.4800 135.0000 1.0000
18.5000 144.0000 1.0000
18.5200 129.0000 1.0000
18.5400 157.0000 1.0000
18.5600 174.0000 1.0000
18.5800 150.0000 1.0000
18.6000 174.0000 1.0000
18.6200 162.0000 1.0000
18.6400 174.0000 1.0000
18.6600 203.0000 1.0000
18.6800 236.0000 1.0000
18.7000 276.0000 1.0000
18.7200 246.0000 1.0000
18.7400 270.0000 1.0000
18.7600 268.0000 1.0000
18.7800 262.0000 1.0000
18.8000 267.0000 1.0000
18.8200 256.0000 1.0000
18.8400 240.0000 1.0000
18.8600 231.0000 1.0000
18.8800 233.0000 1.0000
18.9000 201.0000 1.0000
18.9200 189.0000 1.0000
18.9400 209.0000 1.0000
18.9600 195.0000 1.0000
18.9800 181.0000 1.0000
19.0000 193.0000 1.0000
19.0200 193.0000 1.0000
19.0400 196.0000 1.0000
19.0600 174.0000 1.0000
19.0800 190.0000 1.0000
19.1000 221.0000 1.0000
19.1200 193.0000 1.0000
19.1400 201.0000 1.0000
19.1600 210.0000 1.0000
19.1800 207.0000 1.0000
19.2000 198.0000 1.0000
19.2200 216.0000 1.0000
19.2400 178.0000 1.0000
19.2600 153.0000 1.0000
19.2800 148.0000 1.0000
19.3000 151.0000 1.0000
19.3200 149.0000 1.0000
19.3400 168.0000 1.0000
19.3600 154.0000 1.0000
19.3800 157.0000 1.0000
19.4000 143.0000 1.0000
19.4200 128.0000 1.0000
19.4400 154.0000 1.0000
19.4600 158.0000 1.0000
19.4800 171.0000 1.0000
19.5000 178.0000 1.0000
19.5200 189.0000 1.0000
19.5400 209.0000 1.0000
19.5600 188.0000 1.0000
19.5800 210.0000 1.0000
19.6000 200.0000 1.0000
19.6200 205.0000 1.0000
19.6400 208.0000 1.0000
19.6600 218.0000 1.0000
19.6800 194.0000 1.0000
19.7000 218.0000 1.0000
19.7200 202.0000 1.0000
19.7400 195.0000 1.0000
19.7600 189.0000 1.0000
19.7800 206.0000 1.0000
19.8000 175.0000 1.0000
19.8200 186.0000 1.0000
19.8400 184.0000 1.0000
19.8600 189.0000 1.0000
19.8800 155.0000 1.0000
19.9000 178.0000 1.0000
19.9200 176.0000 1.0000
19.9400 164.0000 1.0000
19.9600 189.0000 1.0000
19.9800 195.0000 1.0000
20.0000 183.0000 1.0000
20.0200 181.0000 1.0000
20.0400 175.0000 1.0000
20.0600 191.0000 1.0000
20.0800 207.0000 1.0000
20.1000 196.0000 1.0000
20.1200 195.0000 1.0000
20.1400 176.0000 1.0000
20.1600 184.0000 1.0000
20.1800 176.0000 1.0000
20.2000 171.0000 1.0000
20.2200 172.0000 1.0000
20.2400 174.0000 1.0000
20.2600 185.0000 1.0000
20.2800 164.0000 1.0000
20.3000 174.0000 1.0000
20.3200 178.0000 1.0000
20.3400 189.0000 1.0000
20.3600 205.0000 1.0000
20.3800 199.0000 1.0000
20.4000 214.0000 1.0000
20.4200 206.0000 1.0000
20.4400 199.0000 1.0000
20.4600 220.0000 1.0000
20.4800 265.0000 1.0000
20.5000 275.0000 1.0000
20.5200 273.0000 1.0000
20.5400 342.0000 1.0000
20.5600 377.0000 1.0000
20.5800 475.0000 1.0000
20.6000 563.0000 1.0000
20.6200 680.0000 1.0000
20.6400 797.0000 1.0000
20.6600 1039.0000 1.0000
20.6800 972.0000 1.0000
20.7000 999.0000 1.0000
20.7200 1019.0000 1.0000
20.7400 915.0000 1.0000
20.7600 794.0000 1.0000
20.7800 590.0000 1.0000
20.8000 444.0000 1.0000
20.8200 348.0000 1.0000
20.8400 325.0000 1.0000
20.8600 288.0000 1.0000
20.8800 299.0000 1.0000
20.9000 267.0000 1.0000
20.9200 273.0000 1.0000
20.9400 269.0000 1.0000
20.9600 231.0000 1.0000
20.9800 235.0000 1.0000
21.0000 234.0000 1.0000
21.0200 232.0000 1.0000
21.0400 199.0000 1.0000
21.0600 194.0000 1.0000
21.0800 193.0000 1.0000
21.1000 185.0000 1.0000
21.1200 185.0000 1.0000
21.1400 184.0000 1.0000
21.1600 162.0000 1.0000
21.1800 183.0000 1.0000
21.2000 143.0000 1.0000
21.2200 147.0000 1.0000
21.2400 165.0000 1.0000
21.2600 176.0000 1.0000
21.2800 163.0000 1.0000
21.3000 144.0000 1.0000
21.3200 153.0000 1.0000
21.3400 171.0000 1.0000
21.3600 156.0000 1.0000
21.3800 152.0000 1.0000
21.4000 163.0000 1.0000
21.4200 161.0000 1.0000
21.4400 165.0000 1.0000
21.4600 175.0000 1.0000
21.4800 167.0000 1.0000
21.5000 173.0000 1.0000
21.5200 178.0000 1.0000
21.5400 191.0000 1.0000
21.5600 208.0000 1.0000
21.5800 203.0000 1.0000
21.6000 200.0000 1.0000
21.6200 234.0000 1.0000
21.6400 256.0000 1.0000
21.6600 277.0000 1.0000
21.6800 306.0000 1.0000
21.7000 329.0000 1.0000
21.7200 404.0000 1.0000
21.7400 427.0000 1.0000
21.7600 510.0000 1.0000
21.7800 533.0000 1.0000
21.8000 573.0000 1.0000
21.8200 571.0000 1.0000
21.8400 531.0000 1.0000
21.8600 535.0000 1.0000
21.8800 453.0000 1.0000
21.9000 372.0000 1.0000
21.9200 315.0000 1.0000
21.9400 262.0000 1.0000
21.9600 226.0000 1.0000
21.9800 211.0000 1.0000
22.0000 182.0000 1.0000
22.0200 183.0000 1.0000
22.0400 160.0000 1.0000
22.0600 148.0000 1.0000
22.0800 162.0000 1.0000
22.1000 164.0000 1.0000
22.1200 149.0000 1.0000
22.1400 167.0000 1.0000
22.1600 167.0000 1.0000
22.1800 166.0000 1.0000
22.2000 164.0000 1.0000
22.2200 207.0000 1.0000
22.2400 205.0000 1.0000
22.2600 183.0000 1.0000
22.2800 196.0000 1.0000
22.3000 186.0000 1.0000
22.3200 174.0000 1.0000
22.3400 204.0000 1.0000
22.3600 204.0000 1.0000
22.3800 196.0000 1.0000
22.4000 173.0000 1.0000
22.4200 182.0000 1.0000
22.4400 194.0000 1.0000
22.4600 172.0000 1.0000
22.4800 170.0000 1.0000
22.5000 211.0000 1.0000
22.5200 193.0000 1.0000
22.5400 197.0000 1.0000
22.5600 201.0000 1.0000
22.5800 200.0000 1.0000
22.6000 211.0000 1.0000
22.6200 243.0000 1.0000
22.6400 253.0000 1.0000
22.6600 232.0000 1.0000
22.6800 228.0000 1.0000
22.7000 241.0000 1.0000
22.7200 210.0000 1.0000
22.7400 191.0000 1.0000
22.7600 198.0000 1.0000
22.7800 192.0000 1.0000
22.8000 183.0000 1.0000
22.8200 171.0000 1.0000
22.8400 179.0000 1.0000
22.8600 205.0000 1.0000
22.8800 198.0000 1.0000
22.9000 193.0000 1.0000
22.9200 167.0000 1.0000
22.9400 174.0000 1.0000
22.9600 187.0000 1.0000
22.9800 178.0000 1.0000
23.0000 188.0000 1.0000
23.0200 181.0000 1.0000
23.0400 192.0000 1.0000
23.0600 190.0000 1.0000
23.0800 185.0000 1.0000
23.1000 187.0000 1.0000
23.1200 180.0000 1.0000
23.1400 210.0000 1.0000
23.1600 205.0000 1.0000
23.1800 211.0000 1.0000
23.2000 232.0000 1.0000
23.2200 204.0000 1.0000
23.2400 256.0000 1.0000
23.2600 268.0000 1.0000
23.2800 286.0000 1.0000
23.3000 316.0000 1.0000
23.3200 372.0000 1.0000
23.3400 405.0000 1.0000
23.3600 428.0000 1.0000
23.3800 476.0000 1.0000
23.4000 520.0000 1.0000
23.4200 546.0000 1.0000
23.4400 579.0000 1.0000
23.4600 594.0000 1.0000
23.4800 614.0000 1.0000
23.5000 583.0000 1.0000
23.5200 546.0000 1.0000
23.5400 495.0000 1.0000
23.5600 438.0000 1.0000
23.5800 397.0000 1.0000
23.6000 382.0000 1.0000
23.6200 312.0000 1.0000
23.6400 284.0000 1.0000
23.6600 272.0000 1.0000
23.6800 274.0000 1.0000
23.7000 257.0000 1.0000
23.7200 254.0000 1.0000
23.7400 226.0000 1.0000
23.7600 219.0000 1.0000
23.7800 210.0000 1.0000
23.8000 194.0000 1.0000
23.8200 207.0000 1.0000
23.8400 196.0000 1.0000
23.8600 181.0000 1.0000
23.8800 190.0000 1.0000
23.9000 201.0000 1.0000
23.9200 192.0000 1.0000
23.9400 211.0000 1.0000
23.9600 228.0000 1.0000
23.9800 218.0000 1.0000
24.0000 210.0000 1.0000
24.0200 221.0000 1.0000
24.0400 233.0000 1.0000
24.0600 236.0000 1.0000
24.0800 243.0000 1.0000
24.1000 282.0000 1.0000
24.1200 289.0000 1.0000
24.1400 305.0000 1.0000
24.1600 316.0000 1.0000
24.1800 332.0000 1.0000
24.2000 340.0000 1.0000
24.2200 362.0000 1.0000
24.2400 369.0000 1.0000
24.2600 360.0000 1.0000
24.2800 373.0000 1.0000
24.3000 368.0000 1.0000
24.3200 378.0000 1.0000
24.3400 335.0000 1.0000
24.3600 316.0000 1.0000
24.3800 304.0000 1.0000
24.4000 298.0000 1.0000
24.4200 264.0000 1.0000
24.4400 238.0000 1.0000
24.4600 222.0000 1.0000
24.4800 196.0000 1.0000
24.5000 174.0000 1.0000
24.5200 157.0000 1.0000
24.5400 166.0000 1.0000
24.5600 159.0000 1.0000
24.5800 164.0000 1.0000
24.6000 143.0000 1.0000
24.6200 148.0000 1.0000
24.6400 146.0000 1.0000
24.6600 147.0000 1.0000
24.6800 152.0000 1.0000
24.7000 139.0000 1.0000
24.7200 147.0000 1.0000
24.7400 138.0000 1.0000
24.7600 141.0000 1.0000
24.7800 149.0000 1.0000
24.8000 149.0000 1.0000
24.8200 146.0000 1.0000
24.8400 140.0000 1.0000
24.8600 155.0000 1.0000
24.8800 158.0000 1.0000
24.9000 158.0000 1.0000
24.9200 164.0000 1.0000
24.9400 172.0000 1.0000
24.9600 168.0000 1.0000
24.9800 166.0000 1.0000
25.0000 191.0000 1.0000
25.0200 203.0000 1.0000
25.0400 202.0000 1.0000
25.0600 218.0000 1.0000
25.0800 204.0000 1.0000
25.1000 204.0000 1.0000
25.1200 214.0000 1.0000
25.1400 223.0000 1.0000
25.1600 229.0000 1.0000
25.1800 240.0000 1.0000
25.2000 272.0000 1.0000
25.2200 297.0000 1.0000
25.2400 322.0000 1.0000
25.2600 376.0000 1.0000
25.2800 423.0000 1.0000
25.3000 502.0000 1.0000
25.3200 646.0000 1.0000
25.3400 751.0000 1.0000
25.3600 891.0000 1.0000
25.3800 988.0000 1.0000
25.4000 1042.0000 1.0000
25.4200 1122.0000 1.0000
25.4400 1109.0000 1.0000
25.4600 985.0000 1.0000
25.4800 867.0000 1.0000
25.5000 729.0000 1.0000
25.5200 622.0000 1.0000
25.5400 537.0000 1.0000
25.5600 467.0000 1.0000
25.5800 420.0000 1.0000
25.6000 367.0000 1.0000
25.6200 326.0000 1.0000
25.6400 287.0000 1.0000
25.6600 276.0000 1.0000
25.6800 262.0000 1.0000
25.7000 250.0000 1.0000
25.7200 243.0000 1.0000
25.7400 231.0000 1.0000
25.7600 235.0000 1.0000
25.7800 225.0000 1.0000
25.8000 221.0000 1.0000
25.8200 204.0000 1.0000
25.8400 222.0000 1.0000
25.8600 221.0000 1.0000
25.8800 218.0000 1.0000
25.9000 209.0000 1.0000
25.9200 208.0000 1.0000
25.9400 235.0000 1.0000
25.9600 235.0000 1.0000
25.9800 249.0000 1.0000
26.0000 257.0000 1.0000
26.0200 253.0000 1.0000
26.0400 268.0000 1.0000
26.0600 266.0000 1.0000
26.0800 282.0000 1.0000
26.1000 318.0000 1.0000
26.1200 338.0000 1.0000
26.1400 375.0000 1.0000
26.1600 412.0000 1.0000
26.1800 450.0000 1.0000
26.2000 522.0000 1.0000
26.2200 594.0000 1.0000
26.2400 657.0000 1.0000
26.2600 757.0000 1.0000
26.2800 887.0000 1.0000
26.3000 1022.0000 1.0000
26.3200 1272.0000 1.0000
26.3400 1530.0000 1.0000
26.3600 1848.0000 1.0000
26.3800 2279.0000 1.0000
26.4000 2949.0000 1.0000
26.4200 3681.0000 1.0000
26.4400 4303.0000 1.0000
26.4600 4665.0000 1.0000
26.4800 4766.0000 1.0000
26.5000 4566.0000 1.0000
26.5200 3965.0000 1.0000
26.5400 3210.0000 1.0000
26.5600 2530.0000 1.0000
26.5800 1899.0000 1.0000
26.6000 1373.0000 1.0000
26.6200 993.0000 1.0000
26.6400 724.0000 1.0000
26.6600 593.0000 1.0000
26.6800 555.0000 1.0000
26.7000 531.0000 1.0000
26.7200 510.0000 1.0000
26.7400 516.0000 1.0000
26.7600 483.0000 1.0000
26.7800 461.0000 1.0000
26.8000 475.0000 1.0000
26.8200 471.0000 1.0000
26.8400 419.0000 1.0000
26.8600 395.0000 1.0000
26.8800 422.0000 1.0000
26.9000 418.0000 1.0000
26.9200 415.0000 1.0000
26.9400 397.0000 1.0000
26.9600 360.0000 1.0000
26.9800 360.0000 1.0000
27.0000 368.0000 1.0000
27.0200 377.0000 1.0000
27.0400 366.0000 1.0000
27.0600 362.0000 1.0000
27.0800 377.0000 1.0000
27.1000 339.0000 1.0000
27.1200 358.0000 1.0000
27.1400 400.0000 1.0000
27.1600 406.0000 1.0000
27.1800 433.0000 1.0000
27.2000 474.0000 1.0000
27.2200 514.0000 1.0000
27.2400 560.0000 1.0000
27.2600 601.0000 1.0000
27.2800 656.0000 1.0000
27.3000 701.0000 1.0000
27.3200 754.0000 1.0000
27.3400 795.0000 1.0000
27.3600 795.0000 1.0000
27.3800 838.0000 1.0000
27.4000 854.0000 1.0000
27.4200 851.0000 1.0000
27.4400 898.0000 1.0000
27.4600 931.0000 1.0000
27.4800 960.0000 1.0000
27.5000 1034.0000 1.0000
27.5200 1096.0000 1.0000
27.5400 1177.0000 1.0000
27.5600 1307.0000 1.0000
27.5800 1412.0000 1.0000
27.6000 1522.0000 1.0000
27.6200 1611.0000 1.0000
27.6400 1603.0000 1.0000
27.6600 1581.0000 1.0000
27.6800 1567.0000 1.0000
27.7000 1487.0000 1.0000
27.7200 1422.0000 1.0000
27.7400 1354.0000 1.0000
27.7600 1291.0000 1.0000
27.7800 1288.0000 1.0000
27.8000 1293.0000 1.0000
27.8200 1392.0000 1.0000
27.8400 1458.0000 1.0000
27.8600 1421.0000 1.0000
27.8800 1393.0000 1.0000
27.9000 1288.0000 1.0000
27.9200 1128.0000 1.0000
27.9400 994.0000 1.0000
27.9600 840.0000 1.0000
27.9800 672.0000 1.0000
28.0000 546.0000 1.0000
28.0200 487.0000 1.0000
28.0400 429.0000 1.0000
28.0600 367.0000 1.0000
28.0800 357.0000 1.0000
28.1000 363.0000 1.0000
28.1200 353.0000 1.0000
28.1400 339.0000 1.0000
28.1600 335.0000 1.0000
28.1800 338.0000 1.0000
28.2000 368.0000 1.0000
28.2200 370.0000 1.0000
28.2400 382.0000 1.0000
28.2600 405.0000 1.0000
28.2800 395.0000 1.0000
28.3000 405.0000 1.0000
28.3200 388.0000 1.0000
28.3400 351.0000 1.0000
28.3600 334.0000 1.0000
28.3800 321.0000 1.0000
28.4000 324.0000 1.0000
28.4200 293.0000 1.0000
28.4400 256.0000 1.0000
28.4600 249.0000 1.0000
28.4800 237.0000 1.0000
28.5000 225.0000 1.0000
28.5200 228.0000 1.0000
28.5400 233.0000 1.0000
28.5600 232.0000 1.0000
28.5800 199.0000 1.0000
28.6000 185.0000 1.0000
28.6200 208.0000 1.0000
28.6400 213.0000 1.0000
28.6600 179.0000 1.0000
28.6800 184.0000 1.0000
28.7000 189.0000 1.0000
28.7200 182.0000 1.0000
28.7400 197.0000 1.0000
28.7600 205.0000 1.0000
28.7800 201.0000 1.0000
28.8000 196.0000 1.0000
28.8200 210.0000 1.0000
28.8400 225.0000 1.0000
28.8600 204.0000 1.0000
28.8800 208.0000 1.0000
28.9000 221.0000 1.0000
28.9200 222.0000 1.0000
28.9400 222.0000 1.0000
28.9600 213.0000 1.0000
28.9800 209.0000 1.0000
29.0000 202.0000 1.0000
29.0200 212.0000 1.0000
29.0400 206.0000 1.0000
29.0600 197.0000 1.0000
29.0800 221.0000 1.0000
29.1000 230.0000 1.0000
29.1200 221.0000 1.0000
29.1400 253.0000 1.0000
29.1600 268.0000 1.0000
29.1800 268.0000 1.0000
29.2000 288.0000 1.0000
29.2200 302.0000 1.0000
29.2400 327.0000 1.0000
29.2600 345.0000 1.0000
29.2800 363.0000 1.0000
29.3000 415.0000 1.0000
29.3200 438.0000 1.0000
29.3400 491.0000 1.0000
29.3600 495.0000 1.0000
29.3800 519.0000 1.0000
29.4000 554.0000 1.0000
29.4200 586.0000 1.0000
29.4400 632.0000 1.0000
29.4600 631.0000 1.0000
29.4800 665.0000 1.0000
29.5000 697.0000 1.0000
29.5200 735.0000 1.0000
29.5400 764.0000 1.0000
29.5600 804.0000 1.0000
29.5800 856.0000 1.0000
29.6000 865.0000 1.0000
29.6200 890.0000 1.0000
29.6400 898.0000 1.0000
29.6600 872.0000 1.0000
29.6800 801.0000 1.0000
29.7000 779.0000 1.0000
29.7200 742.0000 1.0000
29.7400 659.0000 1.0000
29.7600 581.0000 1.0000
29.7800 550.0000 1.0000
29.8000 518.0000 1.0000
29.8200 470.0000 1.0000
29.8400 451.0000 1.0000
29.8600 451.0000 1.0000
29.8800 447.0000 1.0000
29.9000 468.0000 1.0000
29.9200 457.0000 1.0000
29.9400 472.0000 1.0000
29.9600 494.0000 1.0000
29.9800 537.0000 1.0000
30.0000 554.0000 1.0000
30.0200 552.0000 1.0000
30.0400 578.0000 1.0000
30.0600 591.0000 1.0000
30.0800 634.0000 1.0000
30.1000 637.0000 1.0000
30.1200 611.0000 1.0000
30.1400 581.0000 1.0000
30.1600 563.0000 1.0000
30.1800 548.0000 1.0000
30.2000 515.0000 1.0000
30.2200 550.0000 1.0000
30.2400 557.0000 1.0000
30.2600 553.0000 1.0000
30.2800 518.0000 1.0000
30.3000 476.0000 1.0000
30.3200 491.0000 1.0000
30.3400 511.0000 1.0000
30.3600 448.0000 1.0000
30.3800 441.0000 1.0000
30.4000 453.0000 1.0000
30.4200 419.0000 1.0000
30.4400 411.0000 1.0000
30.4600 424.0000 1.0000
30.4800 420.0000 1.0000
30.5000 456.0000 1.0000
30.5200 488.0000 1.0000
30.5400 469.0000 1.0000
30.5600 517.0000 1.0000
30.5800 522.0000 1.0000
30.6000 556.0000 1.0000
30.6200 582.0000 1.0000
30.6400 570.0000 1.0000
30.6600 584.0000 1.0000
30.6800 610.0000 1.0000
30.7000 558.0000 1.0000
30.7200 560.0000 1.0000
30.7400 542.0000 1.0000
30.7600 504.0000 1.0000
30.7800 460.0000 1.0000
30.8000 429.0000 1.0000
30.8200 390.0000 1.0000
30.8400 345.0000 1.0000
30.8600 322.0000 1.0000
30.8800 268.0000 1.0000
30.9000 248.0000 1.0000
30.9200 246.0000 1.0000
30.9400 249.0000 1.0000
30.9600 232.0000 1.0000
30.9800 216.0000 1.0000
31.0000 225.0000 1.0000
31.0200 240.0000 1.0000
31.0400 203.0000 1.0000
31.0600 212.0000 1.0000
31.0800 237.0000 1.0000
31.1000 222.0000 1.0000
31.1200 208.0000 1.0000
31.1400 214.0000 1.0000
31.1600 203.0000 1.0000
31.1800 220.0000 1.0000
31.2000 225.0000 1.0000
31.2200 242.0000 1.0000
31.2400 230.0000 1.0000
31.2600 249.0000 1.0000
31.2800 260.0000 1.0000
31.3000 270.0000 1.0000
31.3200 276.0000 1.0000
31.3400 271.0000 1.0000
31.3600 253.0000 1.0000
31.3800 279.0000 1.0000
31.4000 254.0000 1.0000
31.4200 255.0000 1.0000
31.4400 262.0000 1.0000
31.4600 221.0000 1.0000
31.4800 221.0000 1.0000
31.5000 220.0000 1.0000
31.5200 195.0000 1.0000
31.5400 197.0000 1.0000
31.5600 209.0000 1.0000
31.5800 211.0000 1.0000
31.6000 225.0000 1.0000
31.6200 217.0000 1.0000
31.6400 214.0000 1.0000
31.6600 223.0000 1.0000
31.6800 229.0000 1.0000
31.7000 215.0000 1.0000
31.7200 200.0000 1.0000
31.7400 190.0000 1.0000
31.7600 204.0000 1.0000
31.7800 212.0000 1.0000
31.8000 186.0000 1.0000
31.8200 176.0000 1.0000
31.8400 191.0000 1.0000
31.8600 213.0000 1.0000
31.8800 216.0000 1.0000
31.9000 227.0000 1.0000
31.9200 230.0000 1.0000
31.9400 235.0000 1.0000
31.9600 282.0000 1.0000
31.9800 257.0000 1.0000
32.0000 241.0000 1.0000
32.0200 237.0000 1.0000
32.0400 240.0000 1.0000
32.0600 234.0000 1.0000
32.0800 204.0000 1.0000
32.1000 198.0000 1.0000
32.1200 228.0000 1.0000
32.1400 203.0000 1.0000
32.1600 216.0000 1.0000
32.1800 210.0000 1.0000
32.2000 209.0000 1.0000
32.2200 196.0000 1.0000
32.2400 185.0000 1.0000
32.2600 190.0000 1.0000
32.2800 187.0000 1.0000
32.3000 190.0000 1.0000
32.3200 199.0000 1.0000
32.3400 234.0000 1.0000
32.3600 224.0000 1.0000
32.3800 246.0000 1.0000
32.4000 223.0000 1.0000
32.4200 225.0000 1.0000
32.4400 235.0000 1.0000
32.4600 224.0000 1.0000
32.4800 231.0000 1.0000
32.5000 206.0000 1.0000
32.5200 190.0000 1.0000
32.5400 209.0000 1.0000
32.5600 181.0000 1.0000
32.5800 173.0000 1.0000
32.6000 195.0000 1.0000
32.6200 158.0000 1.0000
32.6400 164.0000 1.0000
32.6600 150.0000 1.0000
32.6800 156.0000 1.0000
32.7000 141.0000 1.0000
32.7200 132.0000 1.0000
32.7400 153.0000 1.0000
32.7600 147.0000 1.0000
32.7800 133.0000 1.0000
32.8000 137.0000 1.0000
32.8200 138.0000 1.0000
32.8400 135.0000 1.0000
32.8600 126.0000 1.0000
32.8800 133.0000 1.0000
32.9000 127.0000 1.0000
32.9200 124.0000 1.0000
32.9400 90.0000 1.0000
32.9600 123.0000 1.0000
32.9800 109.0000 1.0000
33.0000 131.0000 1.0000
33.0200 141.0000 1.0000
33.0400 112.0000 1.0000
33.0600 131.0000 1.0000
33.0800 128.0000 1.0000
33.1000 119.0000 1.0000
33.1200 128.0000 1.0000
33.1400 141.0000 1.0000
33.1600 159.0000 1.0000
33.1800 178.0000 1.0000
33.2000 157.0000 1.0000
33.2200 142.0000 1.0000
33.2400 170.0000 1.0000
33.2600 184.0000 1.0000
33.2800 155.0000 1.0000
33.3000 145.0000 1.0000
33.3200 141.0000 1.0000
33.3400 147.0000 1.0000
33.3600 149.0000 1.0000
33.3800 157.0000 1.0000
33.4000 144.0000 1.0000
33.4200 150.0000 1.0000
33.4400 123.0000 1.0000
33.4600 143.0000 1.0000
33.4800 151.0000 1.0000
33.5000 158.0000 1.0000
33.5200 176.0000 1.0000
33.5400 196.0000 1.0000
33.5600 196.0000 1.0000
33.5800 198.0000 1.0000
33.6000 230.0000 1.0000
33.6200 235.0000 1.0000
33.6400 222.0000 1.0000
33.6600 210.0000 1.0000
33.6800 231.0000 1.0000
33.7000 228.0000 1.0000
33.7200 214.0000 1.0000
33.7400 222.0000 1.0000
33.7600 192.0000 1.0000
33.7800 186.0000 1.0000
33.8000 162.0000 1.0000
33.8200 164.0000 1.0000
33.8400 155.0000 1.0000
33.8600 156.0000 1.0000
33.8800 167.0000 1.0000
33.9000 151.0000 1.0000
33.9200 139.0000 1.0000
33.9400 141.0000 1.0000
33.9600 156.0000 1.0000
33.9800 153.0000 1.0000
34.0000 131.0000 1.0000
34.0200 146.0000 1.0000
34.0400 133.0000 1.0000
34.0600 133.0000 1.0000
34.0800 171.0000 1.0000
34.1000 132.0000 1.0000
34.1200 138.0000 1.0000
34.1400 164.0000 1.0000
34.1600 152.0000 1.0000
34.1800 193.0000 1.0000
34.2000 184.0000 1.0000
34.2200 187.0000 1.0000
34.2400 205.0000 1.0000
34.2600 188.0000 1.0000
34.2800 199.0000 1.0000
34.3000 213.0000 1.0000
34.3200 204.0000 1.0000
34.3400 241.0000 1.0000
34.3600 237.0000 1.0000
34.3800 222.0000 1.0000
34.4000 243.0000 1.0000
34.4200 255.0000 1.0000
34.4400 278.0000 1.0000
34.4600 290.0000 1.0000
34.4800 282.0000 1.0000
34.5000 337.0000 1.0000
34.5200 358.0000 1.0000
34.5400 351.0000 1.0000
34.5600 363.0000 1.0000
34.5800 377.0000 1.0000
34.6000 449.0000 1.0000
34.6200 483.0000 1.0000
34.6400 456.0000 1.0000
34.6600 507.0000 1.0000
34.6800 505.0000 1.0000
34.7000 490.0000 1.0000
34.7200 508.0000 1.0000
34.7400 550.0000 1.0000
34.7600 525.0000 1.0000
34.7800 561.0000 1.0000
34.8000 581.0000 1.0000
34.8200 625.0000 1.0000
34.8400 610.0000 1.0000
34.8600 647.0000 1.0000
34.8800 745.0000 1.0000
34.9000 915.0000 1.0000
34.9200 1091.0000 1.0000
34.9400 1246.0000 1.0000
34.9600 1438.0000 1.0000
34.9800 1569.0000 1.0000
35.0000 1602.0000 1.0000
35.0200 1610.0000 1.0000
35.0400 1549.0000 1.0000
35.0600 1458.0000 1.0000
35.0800 1222.0000 1.0000
35.1000 1048.0000 1.0000
35.1200 955.0000 1.0000
35.1400 830.0000 1.0000
35.1600 769.0000 1.0000
35.1800 664.0000 1.0000
35.2000 688.0000 1.0000
35.2200 655.0000 1.0000
35.2400 644.0000 1.0000
35.2600 706.0000 1.0000
35.2800 683.0000 1.0000
35.3000 740.0000 1.0000
35.3200 776.0000 1.0000
35.3400 802.0000 1.0000
35.3600 828.0000 1.0000
35.3800 836.0000 1.0000
35.4000 846.0000 1.0000
35.4200 836.0000 1.0000
35.4400 838.0000 1.0000
35.4600 812.0000 1.0000
35.4800 754.0000 1.0000
35.5000 722.0000 1.0000
35.5200 682.0000 1.0000
35.5400 646.0000 1.0000
35.5600 613.0000 1.0000
35.5800 604.0000 1.0000
35.6000 519.0000 1.0000
35.6200 512.0000 1.0000
35.6400 440.0000 1.0000
35.6600 429.0000 1.0000
35.6800 381.0000 1.0000
35.7000 388.0000 1.0000
35.7200 322.0000 1.0000
35.7400 310.0000 1.0000
35.7600 303.0000 1.0000
35.7800 286.0000 1.0000
35.8000 281.0000 1.0000
35.8200 239.0000 1.0000
35.8400 248.0000 1.0000
35.8600 272.0000 1.0000
35.8800 255.0000 1.0000
35.9000 248.0000 1.0000
35.9200 247.0000 1.0000
35.9400 224.0000 1.0000
35.9600 222.0000 1.0000
35.9800 220.0000 1.0000
36.0000 242.0000 1.0000
36.0200 248.0000 1.0000
36.0400 256.0000 1.0000
36.0600 233.0000 1.0000
36.0800 269.0000 1.0000
36.1000 268.0000 1.0000
36.1200 279.0000 1.0000
36.1400 300.0000 1.0000
36.1600 276.0000 1.0000
36.1800 269.0000 1.0000
36.2000 299.0000 1.0000
36.2200 301.0000 1.0000
36.2400 295.0000 1.0000
36.2600 317.0000 1.0000
36.2800 337.0000 1.0000
36.3000 362.0000 1.0000
36.3200 400.0000 1.0000
36.3400 428.0000 1.0000
36.3600 457.0000 1.0000
36.3800 481.0000 1.0000
36.4000 475.0000 1.0000
36.4200 458.0000 1.0000
36.4400 448.0000 1.0000
36.4600 456.0000 1.0000
36.4800 386.0000 1.0000
36.5000 332.0000 1.0000
36.5200 312.0000 1.0000
36.5400 296.0000 1.0000
36.5600 264.0000 1.0000
36.5800 230.0000 1.0000
36.6000 212.0000 1.0000
36.6200 204.0000 1.0000
36.6400 186.0000 1.0000
36.6600 180.0000 1.0000
36.6800 185.0000 1.0000
36.7000 173.0000 1.0000
36.7200 183.0000 1.0000
36.7400 171.0000 1.0000
36.7600 161.0000 1.0000
36.7800 163.0000 1.0000
36.8000 190.0000 1.0000
36.8200 173.0000 1.0000
36.8400 155.0000 1.0000
36.8600 173.0000 1.0000
36.8800 179.0000 1.0000
36.9000 169.0000 1.0000
36.9200 180.0000 1.0000
36.9400 174.0000 1.0000
36.9600 178.0000 1.0000
36.9800 202.0000 1.0000
37.0000 196.0000 1.0000
37.0200 180.0000 1.0000
37.0400 180.0000 1.0000
37.0600 180.0000 1.0000
37.0800 191.0000 1.0000
37.1000 176.0000 1.0000
37.1200 185.0000 1.0000
37.1400 176.0000 1.0000
37.1600 163.0000 1.0000
37.1800 170.0000 1.0000
37.2000 159.0000 1.0000
37.2200 161.0000 1.0000
37.2400 159.0000 1.0000
37.2600 144.0000 1.0000
37.2800 163.0000 1.0000
37.3000 165.0000 1.0000
37.3200 150.0000 1.0000
37.3400 150.0000 1.0000
37.3600 151.0000 1.0000
37.3800 166.0000 1.0000
37.4000 190.0000 1.0000
37.4200 205.0000 1.0000
37.4400 200.0000 1.0000
37.4600 232.0000 1.0000
37.4800 244.0000 1.0000
37.5000 287.0000 1.0000
37.5200 359.0000 1.0000
37.5400 424.0000 1.0000
37.5600 499.0000 1.0000
37.5800 599.0000 1.0000
37.6000 645.0000 1.0000
37.6200 672.0000 1.0000
37.6400 656.0000 1.0000
37.6600 640.0000 1.0000
37.6800 601.0000 1.0000
37.7000 502.0000 1.0000
37.7200 424.0000 1.0000
37.7400 378.0000 1.0000
37.7600 329.0000 1.0000
37.7800 276.0000 1.0000
37.8000 206.0000 1.0000
37.8200 185.0000 1.0000
37.8400 165.0000 1.0000
37.8600 158.0000 1.0000
37.8800 154.0000 1.0000
37.9000 138.0000 1.0000
37.9200 142.0000 1.0000
37.9400 145.0000 1.0000
37.9600 132.0000 1.0000
37.9800 138.0000 1.0000
38.0000 146.0000 1.0000
38.0200 154.0000 1.0000
38.0400 132.0000 1.0000
38.0600 130.0000 1.0000
38.0800 141.0000 1.0000
38.1000 145.0000 1.0000
38.1200 144.0000 1.0000
38.1400 126.0000 1.0000
38.1600 132.0000 1.0000
38.1800 146.0000 1.0000
38.2000 145.0000 1.0000
38.2200 137.0000 1.0000
38.2400 139.0000 1.0000
38.2600 136.0000 1.0000
38.2800 130.0000 1.0000
38.3000 123.0000 1.0000
38.3200 122.0000 1.0000
38.3400 130.0000 1.0000
38.3600 134.0000 1.0000
38.3800 133.0000 1.0000
38.4000 129.0000 1.0000
38.4200 126.0000 1.0000
38.4400 130.0000 1.0000
38.4600 139.0000 1.0000
38.4800 140.0000 1.0000
38.5000 133.0000 1.0000
38.5200 131.0000 1.0000
38.5400 137.0000 1.0000
38.5600 133.0000 1.0000
38.5800 121.0000 1.0000
38.6000 132.0000 1.0000
38.6200 138.0000 1.0000
38.6400 144.0000 1.0000
38.6600 135.0000 1.0000
38.6800 140.0000 1.0000
38.7000 157.0000 1.0000
38.7200 154.0000 1.0000
38.7400 160.0000 1.0000
38.7600 142.0000 1.0000
38.7800 138.0000 1.0000
38.8000 166.0000 1.0000
38.8200 161.0000 1.0000
38.8400 168.0000 1.0000
38.8600 175.0000 1.0000
38.8800 168.0000 1.0000
38.9000 182.0000 1.0000
38.9200 185.0000 1.0000
38.9400 166.0000 1.0000
38.9600 174.0000 1.0000
38.9800 171.0000 1.0000
39.0000 175.0000 1.0000
39.0200 167.0000 1.0000
39.0400 171.0000 1.0000
39.0600 176.0000 1.0000
39.0800 174.0000 1.0000
39.1000 172.0000 1.0000
39.1200 184.0000 1.0000
39.1400 193.0000 1.0000
39.1600 201.0000 1.0000
39.1800 201.0000 1.0000
39.2000 235.0000 1.0000
39.2200 268.0000 1.0000
39.2400 300.0000 1.0000
39.2600 333.0000 1.0000
39.2800 384.0000 1.0000
39.3000 419.0000 1.0000
39.3200 382.0000 1.0000
39.3400 399.0000 1.0000
39.3600 399.0000 1.0000
39.3800 340.0000 1.0000
39.4000 314.0000 1.0000
39.4200 281.0000 1.0000
39.4400 254.0000 1.0000
39.4600 224.0000 1.0000
39.4800 179.0000 1.0000
39.5000 171.0000 1.0000
39.5200 173.0000 1.0000
39.5400 156.0000 1.0000
39.5600 148.0000 1.0000
39.5800 146.0000 1.0000
39.6000 139.0000 1.0000
39.6200 153.0000 1.0000
39.6400 156.0000 1.0000
39.6600 130.0000 1.0000
39.6800 118.0000 1.0000
39.7000 120.0000 1.0000
39.7200 129.0000 1.0000
39.7400 122.0000 1.0000
39.7600 128.0000 1.0000
39.7800 139.0000 1.0000
39.8000 123.0000 1.0000
39.8200 119.0000 1.0000
39.8400 125.0000 1.0000
39.8600 118.0000 1.0000
39.8800 110.0000 1.0000
39.9000 119.0000 1.0000
39.9200 123.0000 1.0000
39.9400 130.0000 1.0000
39.9600 142.0000 1.0000
39.9800 139.0000 1.0000
40.0000 135.0000 1.0000
40.0200 155.0000 1.0000
40.0400 185.0000 1.0000
40.0600 200.0000 1.0000
40.0800 223.0000 1.0000
40.1000 249.0000 1.0000
40.1200 263.0000 1.0000
40.1400 261.0000 1.0000
40.1600 258.0000 1.0000
40.1800 261.0000 1.0000
40.2000 265.0000 1.0000
40.2200 248.0000 1.0000
40.2400 239.0000 1.0000
40.2600 243.0000 1.0000
40.2800 230.0000 1.0000
40.3000 222.0000 1.0000
40.3200 211.0000 1.0000
40.3400 189.0000 1.0000
40.3600 183.0000 1.0000
40.3800 201.0000 1.0000
40.4000 207.0000 1.0000
40.4200 184.0000 1.0000
40.4400 179.0000 1.0000
40.4600 205.0000 1.0000
40.4800 212.0000 1.0000
40.5000 209.0000 1.0000
40.5200 214.0000 1.0000
40.5400 212.0000 1.0000
40.5600 212.0000 1.0000
40.5800 199.0000 1.0000
40.6000 194.0000 1.0000
40.6200 192.0000 1.0000
40.6400 176.0000 1.0000
40.6600 181.0000 1.0000
40.6800 189.0000 1.0000
40.7000 180.0000 1.0000
40.7200 172.0000 1.0000
40.7400 182.0000 1.0000
40.7600 170.0000 1.0000
40.7800 168.0000 1.0000
40.8000 176.0000 1.0000
40.8200 174.0000 1.0000
40.8400 167.0000 1.0000
40.8600 151.0000 1.0000
40.8800 153.0000 1.0000
40.9000 175.0000 1.0000
40.9200 168.0000 1.0000
40.9400 155.0000 1.0000
40.9600 153.0000 1.0000
40.9800 139.0000 1.0000
41.0000 132.0000 1.0000
41.0200 135.0000 1.0000
41.0400 145.0000 1.0000
41.0600 139.0000 1.0000
41.0800 131.0000 1.0000
41.1000 138.0000 1.0000
41.1200 133.0000 1.0000
41.1400 131.0000 1.0000
41.1600 119.0000 1.0000
41.1800 113.0000 1.0000
41.2000 123.0000 1.0000
41.2200 125.0000 1.0000
41.2400 125.0000 1.0000
41.2600 137.0000 1.0000
41.2800 141.0000 1.0000
41.3000 147.0000 1.0000
41.3200 138.0000 1.0000
41.3400 140.0000 1.0000
41.3600 146.0000 1.0000
41.3800 155.0000 1.0000
41.4000 173.0000 1.0000
41.4200 181.0000 1.0000
41.4400 183.0000 1.0000
41.4600 207.0000 1.0000
41.4800 209.0000 1.0000
41.5000 190.0000 1.0000
41.5200 197.0000 1.0000
41.5400 216.0000 1.0000
41.5600 222.0000 1.0000
41.5800 209.0000 1.0000
41.6000 214.0000 1.0000
41.6200 224.0000 1.0000
41.6400 235.0000 1.0000
41.6600 241.0000 1.0000
41.6800 241.0000 1.0000
41.7000 236.0000 1.0000
41.7200 225.0000 1.0000
41.7400 220.0000 1.0000
41.7600 211.0000 1.0000
41.7800 214.0000 1.0000
41.8000 215.0000 1.0000
41.8200 240.0000 1.0000
41.8400 236.0000 1.0000
41.8600 235.0000 1.0000
41.8800 244.0000 1.0000
41.9000 254.0000 1.0000
41.9200 274.0000 1.0000
41.9400 285.0000 1.0000
41.9600 300.0000 1.0000
41.9800 318.0000 1.0000
42.0000 330.0000 1.0000
42.0200 358.0000 1.0000
42.0400 389.0000 1.0000
42.0600 369.0000 1.0000
42.0800 383.0000 1.0000
42.1000 362.0000 1.0000
42.1200 358.0000 1.0000
42.1400 367.0000 1.0000
42.1600 378.0000 1.0000
42.1800 367.0000 1.0000
42.2000 407.0000 1.0000
42.2200 421.0000 1.0000
42.2400 440.0000 1.0000
42.2600 457.0000 1.0000
42.2800 471.0000 1.0000
42.3000 510.0000 1.0000
42.3200 487.0000 1.0000
42.3400 444.0000 1.0000
42.3600 425.0000 1.0000
42.3800 379.0000 1.0000
42.4000 365.0000 1.0000
42.4200 336.0000 1.0000
42.4400 328.0000 1.0000
42.4600 317.0000 1.0000
42.4800 289.0000 1.0000
42.5000 279.0000 1.0000
42.5200 256.0000 1.0000
42.5400 228.0000 1.0000
42.5600 235.0000 1.0000
42.5800 234.0000 1.0000
42.6000 226.0000 1.0000
42.6200 253.0000 1.0000
42.6400 261.0000 1.0000
42.6600 228.0000 1.0000
42.6800 240.0000 1.0000
42.7000 249.0000 1.0000
42.7200 264.0000 1.0000
42.7400 235.0000 1.0000
42.7600 250.0000 1.0000
42.7800 251.0000 1.0000
42.8000 258.0000 1.0000
42.8200 237.0000 1.0000
42.8400 242.0000 1.0000
42.8600 233.0000 1.0000
42.8800 243.0000 1.0000
42.9000 254.0000 1.0000
42.9200 261.0000 1.0000
42.9400 277.0000 1.0000
42.9600 264.0000 1.0000
42.9800 282.0000 1.0000
43.0000 323.0000 1.0000
43.0200 332.0000 1.0000
43.0400 382.0000 1.0000
43.0600 433.0000 1.0000
43.0800 507.0000 1.0000
43.1000 636.0000 1.0000
43.1200 800.0000 1.0000
43.1400 973.0000 1.0000
43.1600 1160.0000 1.0000
43.1800 1337.0000 1.0000
43.2000 1421.0000 1.0000
43.2200 1439.0000 1.0000
43.2400 1348.0000 1.0000
43.2600 1229.0000 1.0000
43.2800 1045.0000 1.0000
43.3000 985.0000 1.0000
43.3200 860.0000 1.0000
43.3400 763.0000 1.0000
43.3600 636.0000 1.0000
43.3800 482.0000 1.0000
43.4000 393.0000 1.0000
43.4200 320.0000 1.0000
43.4400 268.0000 1.0000
43.4600 241.0000 1.0000
43.4800 197.0000 1.0000
43.5000 182.0000 1.0000
43.5200 179.0000 1.0000
43.5400 172.0000 1.0000
43.5600 167.0000 1.0000
43.5800 174.0000 1.0000
43.6000 159.0000 1.0000
43.6200 164.0000 1.0000
43.6400 155.0000 1.0000
43.6600 150.0000 1.0000
43.6800 174.0000 1.0000
43.7000 157.0000 1.0000
43.7200 136.0000 1.0000
43.7400 128.0000 1.0000
43.7600 150.0000 1.0000
43.7800 135.0000 1.0000
43.8000 142.0000 1.0000
43.8200 133.0000 1.0000
43.8400 147.0000 1.0000
43.8600 134.0000 1.0000
43.8800 146.0000 1.0000
43.9000 155.0000 1.0000
43.9200 156.0000 1.0000
43.9400 162.0000 1.0000
43.9600 175.0000 1.0000
43.9800 184.0000 1.0000
44.0000 168.0000 1.0000
44.0200 171.0000 1.0000
44.0400 180.0000 1.0000
44.0600 194.0000 1.0000
44.0800 191.0000 1.0000
44.1000 197.0000 1.0000
44.1200 185.0000 1.0000
44.1400 220.0000 1.0000
44.1600 191.0000 1.0000
44.1800 181.0000 1.0000
44.2000 195.0000 1.0000
44.2200 200.0000 1.0000
44.2400 203.0000 1.0000
44.2600 195.0000 1.0000
44.2800 200.0000 1.0000
44.3000 167.0000 1.0000
44.3200 166.0000 1.0000
44.3400 158.0000 1.0000
44.3600 153.0000 1.0000
44.3800 170.0000 1.0000
44.4000 184.0000 1.0000
44.4200 150.0000 1.0000
44.4400 151.0000 1.0000
44.4600 146.0000 1.0000
44.4800 169.0000 1.0000
44.5000 164.0000 1.0000
44.5200 154.0000 1.0000
44.5400 164.0000 1.0000
44.5600 147.0000 1.0000
44.5800 162.0000 1.0000
44.6000 128.0000 1.0000
44.6200 181.0000 1.0000
44.6400 183.0000 1.0000
44.6600 190.0000 1.0000
44.6800 192.0000 1.0000
44.7000 173.0000 1.0000
44.7200 208.0000 1.0000
44.7400 206.0000 1.0000
44.7600 211.0000 1.0000
44.7800 202.0000 1.0000
44.8000 211.0000 1.0000
44.8200 198.0000 1.0000
44.8400 214.0000 1.0000
44.8600 194.0000 1.0000
44.8800 198.0000 1.0000
44.9000 191.0000 1.0000
44.9200 208.0000 1.0000
44.9400 189.0000 1.0000
44.9600 210.0000 1.0000
44.9800 194.0000 1.0000
45.0000 200.0000 1.0000
45.0200 225.0000 1.0000
45.0400 223.0000 1.0000
45.0600 212.0000 1.0000
45.0800 213.0000 1.0000
45.1000 205.0000 1.0000
45.1200 189.0000 1.0000
45.1400 187.0000 1.0000
45.1600 207.0000 1.0000
45.1800 180.0000 1.0000
45.2000 176.0000 1.0000
45.2200 155.0000 1.0000
45.2400 185.0000 1.0000
45.2600 178.0000 1.0000
45.2800 156.0000 1.0000
45.3000 176.0000 1.0000
45.3200 155.0000 1.0000
45.3400 163.0000 1.0000
45.3600 148.0000 1.0000
45.3800 144.0000 1.0000
45.4000 156.0000 1.0000
45.4200 140.0000 1.0000
45.4400 133.0000 1.0000
45.4600 175.0000 1.0000
45.4800 149.0000 1.0000
45.5000 148.0000 1.0000
45.5200 143.0000 1.0000
45.5400 170.0000 1.0000
45.5600 216.0000 1.0000
45.5800 236.0000 1.0000
45.6000 236.0000 1.0000
45.6200 234.0000 1.0000
45.6400 275.0000 1.0000
45.6600 246.0000 1.0000
45.6800 273.0000 1.0000
45.7000 259.0000 1.0000
45.7200 223.0000 1.0000
45.7400 212.0000 1.0000
45.7600 209.0000 1.0000
45.7800 205.0000 1.0000
45.8000 205.0000 1.0000
45.8200 201.0000 1.0000
45.8400 168.0000 1.0000
45.8600 161.0000 1.0000
45.8800 144.0000 1.0000
45.9000 155.0000 1.0000
45.9200 175.0000 1.0000
45.9400 182.0000 1.0000
45.9600 147.0000 1.0000
45.9800 160.0000 1.0000
46.0000 177.0000 1.0000
46.0200 150.0000 1.0000
46.0400 140.0000 1.0000
46.0600 154.0000 1.0000
46.0800 153.0000 1.0000
46.1000 149.0000 1.0000
46.1200 151.0000 1.0000
46.1400 149.0000 1.0000
46.1600 148.0000 1.0000
46.1800 118.0000 1.0000
46.2000 134.0000 1.0000
46.2200 132.0000 1.0000
46.2400 131.0000 1.0000
46.2600 128.0000 1.0000
46.2800 121.0000 1.0000
46.3000 121.0000 1.0000
46.3200 107.0000 1.0000
46.3400 100.0000 1.0000
46.3600 92.0000 1.0000
46.3800 119.0000 1.0000
46.4000 108.0000 1.0000
46.4200 102.0000 1.0000
46.4400 108.0000 1.0000
46.4600 109.0000 1.0000
46.4800 106.0000 1.0000
46.5000 116.0000 1.0000
46.5200 123.0000 1.0000
46.5400 118.0000 1.0000
46.5600 115.0000 1.0000
46.5800 117.0000 1.0000
46.6000 99.0000 1.0000
46.6200 116.0000 1.0000
46.6400 95.0000 1.0000
46.6600 107.0000 1.0000
46.6800 103.0000 1.0000
46.7000 111.0000 1.0000
46.7200 119.0000 1.0000
46.7400 98.0000 1.0000
46.7600 110.0000 1.0000
46.7800 113.0000 1.0000
46.8000 129.0000 1.0000
46.8200 125.0000 1.0000
46.8400 121.0000 1.0000
46.8600 125.0000 1.0000
46.8800 126.0000 1.0000
46.9000 144.0000 1.0000
46.9200 134.0000 1.0000
46.9400 136.0000 1.0000
46.9600 141.0000 1.0000
46.9800 147.0000 1.0000
47.0000 143.0000 1.0000
47.0200 134.0000 1.0000
47.0400 128.0000 1.0000
47.0600 146.0000 1.0000
47.0800 131.0000 1.0000
47.1000 126.0000 1.0000
47.1200 133.0000 1.0000
47.1400 142.0000 1.0000
47.1600 124.0000 1.0000
47.1800 110.0000 1.0000
47.2000 113.0000 1.0000
47.2200 130.0000 1.0000
47.2400 122.0000 1.0000
47.2600 125.0000 1.0000
47.2800 114.0000 1.0000
47.3000 111.0000 1.0000
47.3200 113.0000 1.0000
47.3400 112.0000 1.0000
47.3600 107.0000 1.0000
47.3800 116.0000 1.0000
47.4000 124.0000 1.0000
47.4200 117.0000 1.0000
47.4400 107.0000 1.0000
47.4600 116.0000 1.0000
47.4800 118.0000 1.0000
47.5000 127.0000 1.0000
47.5200 121.0000 1.0000
47.5400 111.0000 1.0000
47.5600 100.0000 1.0000
47.5800 103.0000 1.0000
47.6000 101.0000 1.0000
47.6200 107.0000 1.0000
47.6400 102.0000 1.0000
47.6600 103.0000 1.0000
47.6800 108.0000 1.0000
47.7000 110.0000 1.0000
47.7200 96.0000 1.0000
47.7400 101.0000 1.0000
47.7600 97.0000 1.0000
47.7800 100.0000 1.0000
47.8000 110.0000 1.0000
47.8200 110.0000 1.0000
47.8400 103.0000 1.0000
47.8600 95.0000 1.0000
47.8800 90.0000 1.0000
47.9000 95.0000 1.0000
47.9200 90.0000 1.0000
47.9400 111.0000 1.0000
47.9600 117.0000 1.0000
47.9800 100.0000 1.0000
48.0000 107.0000 1.0000
48.0200 108.0000 1.0000
48.0400 104.0000 1.0000
48.0600 114.0000 1.0000
48.0800 123.0000 1.0000
48.1000 122.0000 1.0000
48.1200 125.0000 1.0000
48.1400 127.0000 1.0000
48.1600 131.0000 1.0000
48.1800 137.0000 1.0000
48.2000 144.0000 1.0000
48.2200 149.0000 1.0000
48.2400 153.0000 1.0000
48.2600 169.0000 1.0000
48.2800 172.0000 1.0000
48.3000 144.0000 1.0000
48.3200 142.0000 1.0000
48.3400 142.0000 1.0000
48.3600 146.0000 1.0000
48.3800 159.0000 1.0000
48.4000 154.0000 1.0000
48.4200 156.0000 1.0000
48.4400 153.0000 1.0000
48.4600 144.0000 1.0000
48.4800 146.0000 1.0000
48.5000 152.0000 1.0000
48.5200 145.0000 1.0000
48.5400 148.0000 1.0000
48.5600 153.0000 1.0000
48.5800 158.0000 1.0000
48.6000 171.0000 1.0000
48.6200 184.0000 1.0000
48.6400 179.0000 1.0000
48.6600 180.0000 1.0000
48.6800 183.0000 1.0000
48.7000 177.0000 1.0000
48.7200 175.0000 1.0000
48.7400 169.0000 1.0000
48.7600 169.0000 1.0000
48.7800 164.0000 1.0000
48.8000 160.0000 1.0000
48.8200 161.0000 1.0000
48.8400 157.0000 1.0000
48.8600 145.0000 1.0000
48.8800 140.0000 1.0000
48.9000 143.0000 1.0000
48.9200 139.0000 1.0000
48.9400 141.0000 1.0000
48.9600 147.0000 1.0000
48.9800 154.0000 1.0000
49.0000 163.0000 1.0000
49.0200 167.0000 1.0000
49.0400 170.0000 1.0000
49.0600 184.0000 1.0000
49.0800 192.0000 1.0000
49.1000 188.0000 1.0000
49.1200 176.0000 1.0000
49.1400 172.0000 1.0000
49.1600 180.0000 1.0000
49.1800 179.0000 1.0000
49.2000 174.0000 1.0000
49.2200 166.0000 1.0000
49.2400 168.0000 1.0000
49.2600 167.0000 1.0000
49.2800 165.0000 1.0000
49.3000 163.0000 1.0000
49.3200 158.0000 1.0000
49.3400 162.0000 1.0000
49.3600 155.0000 1.0000
49.3800 173.0000 1.0000
49.4000 191.0000 1.0000
49.4200 195.0000 1.0000
49.4400 203.0000 1.0000
49.4600 200.0000 1.0000
49.4800 219.0000 1.0000
49.5000 238.0000 1.0000
49.5200 225.0000 1.0000
49.5400 223.0000 1.0000
49.5600 237.0000 1.0000
49.5800 238.0000 1.0000
49.6000 240.0000 1.0000
49.6200 219.0000 1.0000
49.6400 214.0000 1.0000
49.6600 233.0000 1.0000
49.6800 252.0000 1.0000
49.7000 244.0000 1.0000
49.7200 212.0000 1.0000
49.7400 205.0000 1.0000
49.7600 199.0000 1.0000
49.7800 205.0000 1.0000
49.8000 224.0000 1.0000
49.8200 235.0000 1.0000
49.8400 234.0000 1.0000
49.8600 263.0000 1.0000
49.8800 310.0000 1.0000
49.9000 369.0000 1.0000
49.9200 425.0000 1.0000
49.9400 505.0000 1.0000
49.9600 559.0000 1.0000
49.9800 616.0000 1.0000
50.0000 606.0000 1.0000
50.0200 584.0000 1.0000
50.0400 577.0000 1.0000
50.0600 525.0000 1.0000
50.0800 432.0000 1.0000
50.1000 400.0000 1.0000
50.1200 379.0000 1.0000
50.1400 369.0000 1.0000
50.1600 338.0000 1.0000
50.1800 286.0000 1.0000
50.2000 263.0000 1.0000
50.2200 236.0000 1.0000
50.2400 211.0000 1.0000
50.2600 185.0000 1.0000
50.2800 164.0000 1.0000
50.3000 149.0000 1.0000
50.3200 159.0000 1.0000
50.3400 153.0000 1.0000
50.3600 169.0000 1.0000
50.3800 168.0000 1.0000
50.4000 154.0000 1.0000
50.4200 169.0000 1.0000
50.4400 183.0000 1.0000
50.4600 184.0000 1.0000
50.4800 198.0000 1.0000
50.5000 206.0000 1.0000
50.5200 197.0000 1.0000
50.5400 212.0000 1.0000
50.5600 221.0000 1.0000
50.5800 231.0000 1.0000
50.6000 228.0000 1.0000
50.6200 226.0000 1.0000
50.6400 234.0000 1.0000
50.6600 237.0000 1.0000
50.6800 208.0000 1.0000
50.7000 208.0000 1.0000
50.7200 199.0000 1.0000
50.7400 194.0000 1.0000
50.7600 194.0000 1.0000
50.7800 174.0000 1.0000
50.8000 165.0000 1.0000
50.8200 162.0000 1.0000
50.8400 156.0000 1.0000
50.8600 159.0000 1.0000
50.8800 150.0000 1.0000
50.9000 136.0000 1.0000
50.9200 136.0000 1.0000
50.9400 145.0000 1.0000
50.9600 137.0000 1.0000
50.9800 153.0000 1.0000
51.0000 162.0000 1.0000
51.0200 144.0000 1.0000
51.0400 173.0000 1.0000
51.0600 150.0000 1.0000
51.0800 157.0000 1.0000
51.1000 160.0000 1.0000
51.1200 162.0000 1.0000
51.1400 164.0000 1.0000
51.1600 187.0000 1.0000
51.1800 179.0000 1.0000
51.2000 169.0000 1.0000
51.2200 198.0000 1.0000
51.2400 203.0000 1.0000
51.2600 211.0000 1.0000
51.2800 205.0000 1.0000
51.3000 223.0000 1.0000
51.3200 210.0000 1.0000
51.3400 233.0000 1.0000
51.3600 211.0000 1.0000
51.3800 218.0000 1.0000
51.4000 226.0000 1.0000
51.4200 229.0000 1.0000
51.4400 200.0000 1.0000
51.4600 191.0000 1.0000
51.4800 211.0000 1.0000
51.5000 187.0000 1.0000
51.5200 205.0000 1.0000
51.5400 189.0000 1.0000
51.5600 175.0000 1.0000
51.5800 168.0000 1.0000
51.6000 142.0000 1.0000
51.6200 157.0000 1.0000
51.6400 142.0000 1.0000
51.6600 135.0000 1.0000
51.6800 146.0000 1.0000
51.7000 173.0000 1.0000
51.7200 148.0000 1.0000
51.7400 141.0000 1.0000
51.7600 146.0000 1.0000
51.7800 163.0000 1.0000
51.8000 155.0000 1.0000
51.8200 174.0000 1.0000
51.8400 165.0000 1.0000
51.8600 150.0000 1.0000
51.8800 190.0000 1.0000
51.9000 188.0000 1.0000
51.9200 163.0000 1.0000
51.9400 162.0000 1.0000
51.9600 190.0000 1.0000
51.9800 190.0000 1.0000
52.0000 199.0000 1.0000
52.0200 158.0000 1.0000
52.0400 188.0000 1.0000
52.0600 178.0000 1.0000
52.0800 165.0000 1.0000
52.1000 160.0000 1.0000
52.1200 167.0000 1.0000
52.1400 187.0000 1.0000
52.1600 194.0000 1.0000
52.1800 217.0000 1.0000
52.2000 199.0000 1.0000
52.2200 207.0000 1.0000
52.2400 196.0000 1.0000
52.2600 228.0000 1.0000
52.2800 260.0000 1.0000
52.3000 268.0000 1.0000
52.3200 418.0000 1.0000
52.3400 474.0000 1.0000
52.3600 527.0000 1.0000
52.3800 589.0000 1.0000
52.4000 603.0000 1.0000
52.4200 666.0000 1.0000
52.4400 695.0000 1.0000
52.4600 629.0000 1.0000
52.4800 554.0000 1.0000
52.5000 490.0000 1.0000
52.5200 481.0000 1.0000
52.5400 474.0000 1.0000
52.5600 454.0000 1.0000
52.5800 410.0000 1.0000
52.6000 344.0000 1.0000
52.6200 303.0000 1.0000
52.6400 244.0000 1.0000
52.6600 207.0000 1.0000
52.6800 204.0000 1.0000
52.7000 177.0000 1.0000
52.7200 157.0000 1.0000
52.7400 159.0000 1.0000
52.7600 159.0000 1.0000
52.7800 139.0000 1.0000
52.8000 153.0000 1.0000
52.8200 132.0000 1.0000
52.8400 155.0000 1.0000
52.8600 157.0000 1.0000
52.8800 139.0000 1.0000
52.9000 151.0000 1.0000
52.9200 149.0000 1.0000
52.9400 170.0000 1.0000
52.9600 173.0000 1.0000
52.9800 166.0000 1.0000
53.0000 162.0000 1.0000
53.0200 206.0000 1.0000
53.0400 174.0000 1.0000
53.0600 174.0000 1.0000
53.0800 168.0000 1.0000
53.1000 195.0000 1.0000
53.1200 192.0000 1.0000
53.1400 161.0000 1.0000
53.1600 157.0000 1.0000
53.1800 192.0000 1.0000
53.2000 177.0000 1.0000
53.2200 185.0000 1.0000
53.2400 166.0000 1.0000
53.2600 168.0000 1.0000
53.2800 175.0000 1.0000
53.3000 159.0000 1.0000
53.3200 157.0000 1.0000
53.3400 157.0000 1.0000
53.3600 158.0000 1.0000
53.3800 144.0000 1.0000
53.4000 135.0000 1.0000
53.4200 142.0000 1.0000
53.4400 146.0000 1.0000
53.4600 141.0000 1.0000
53.4800 153.0000 1.0000
53.5000 124.0000 1.0000
53.5200 127.0000 1.0000
53.5400 126.0000 1.0000
53.5600 127.0000 1.0000
53.5800 126.0000 1.0000
53.6000 129.0000 1.0000
53.6200 132.0000 1.0000
53.6400 111.0000 1.0000
53.6600 124.0000 1.0000
53.6800 132.0000 1.0000
53.7000 101.0000 1.0000
53.7200 108.0000 1.0000
53.7400 115.0000 1.0000
53.7600 118.0000 1.0000
53.7800 109.0000 1.0000
53.8000 102.0000 1.0000
53.8200 102.0000 1.0000
53.8400 125.0000 1.0000
53.8600 118.0000 1.0000
53.8800 118.0000 1.0000
53.9000 113.0000 1.0000
53.9200 106.0000 1.0000
53.9400 110.0000 1.0000
53.9600 115.0000 1.0000
53.9800 143.0000 1.0000
54.0000 131.0000 1.0000
54.0200 149.0000 1.0000
54.0400 133.0000 1.0000
54.0600 120.0000 1.0000
54.0800 127.0000 1.0000
54.1000 127.0000 1.0000
54.1200 126.0000 1.0000
54.1400 121.0000 1.0000
54.1600 131.0000 1.0000
54.1800 130.0000 1.0000
54.2000 127.0000 1.0000
54.2200 137.0000 1.0000
54.2400 137.0000 1.0000
54.2600 140.0000 1.0000
54.2800 142.0000 1.0000
54.3000 136.0000 1.0000
54.3200 140.0000 1.0000
54.3400 144.0000 1.0000
54.3600 155.0000 1.0000
54.3800 160.0000 1.0000
54.4000 152.0000 1.0000
54.4200 142.0000 1.0000
54.4400 155.0000 1.0000
54.4600 160.0000 1.0000
54.4800 143.0000 1.0000
54.5000 135.0000 1.0000
54.5200 159.0000 1.0000
54.5400 164.0000 1.0000
54.5600 154.0000 1.0000
54.5800 151.0000 1.0000
54.6000 176.0000 1.0000
54.6200 177.0000 1.0000
54.6400 190.0000 1.0000
54.6600 213.0000 1.0000
54.6800 244.0000 1.0000
54.7000 247.0000 1.0000
54.7200 275.0000 1.0000
54.7400 276.0000 1.0000
54.7600 256.0000 1.0000
54.7800 239.0000 1.0000
54.8000 227.0000 1.0000
54.8200 220.0000 1.0000
54.8400 219.0000 1.0000
54.8600 215.0000 1.0000
54.8800 207.0000 1.0000
54.9000 193.0000 1.0000
54.9200 184.0000 1.0000
54.9400 170.0000 1.0000
54.9600 154.0000 1.0000
54.9800 159.0000 1.0000
55.0000 151.0000 1.0000
55.0200 137.0000 1.0000
55.0400 156.0000 1.0000
55.0600 156.0000 1.0000
55.0800 152.0000 1.0000
55.1000 160.0000 1.0000
55.1200 173.0000 1.0000
55.1400 183.0000 1.0000
55.1600 210.0000 1.0000
55.1800 210.0000 1.0000
55.2000 187.0000 1.0000
55.2200 180.0000 1.0000
55.2400 181.0000 1.0000
55.2600 175.0000 1.0000
55.2800 167.0000 1.0000
55.3000 162.0000 1.0000
55.3200 162.0000 1.0000
55.3400 163.0000 1.0000
55.3600 162.0000 1.0000
55.3800 153.0000 1.0000
55.4000 150.0000 1.0000
55.4200 140.0000 1.0000
55.4400 131.0000 1.0000
55.4600 139.0000 1.0000
55.4800 127.0000 1.0000
55.5000 114.0000 1.0000
55.5200 123.0000 1.0000
55.5400 138.0000 1.0000
55.5600 139.0000 1.0000
55.5800 125.0000 1.0000
55.6000 123.0000 1.0000
55.6200 125.0000 1.0000
55.6400 115.0000 1.0000
55.6600 114.0000 1.0000
55.6800 113.0000 1.0000
55.7000 108.0000 1.0000
55.7200 117.0000 1.0000
55.7400 127.0000 1.0000
55.7600 125.0000 1.0000
55.7800 116.0000 1.0000
55.8000 125.0000 1.0000
55.8200 130.0000 1.0000
55.8400 129.0000 1.0000
55.8600 124.0000 1.0000
55.8800 123.0000 1.0000
55.9000 138.0000 1.0000
55.9200 134.0000 1.0000
55.9400 128.0000 1.0000
55.9600 131.0000 1.0000
55.9800 142.0000 1.0000
56.0000 145.0000 1.0000
56.0200 141.0000 1.0000
56.0400 154.0000 1.0000
56.0600 161.0000 1.0000
56.0800 159.0000 1.0000
56.1000 158.0000 1.0000
56.1200 169.0000 1.0000
56.1400 182.0000 1.0000
56.1600 184.0000 1.0000
56.1800 191.0000 1.0000
56.2000 200.0000 1.0000
56.2200 214.0000 1.0000
56.2400 224.0000 1.0000
56.2600 227.0000 1.0000
56.2800 250.0000 1.0000
56.3000 281.0000 1.0000
56.3200 283.0000 1.0000
56.3400 283.0000 1.0000
56.3600 297.0000 1.0000
56.3800 295.0000 1.0000
56.4000 295.0000 1.0000
56.4200 289.0000 1.0000
56.4400 294.0000 1.0000
56.4600 291.0000 1.0000
56.4800 306.0000 1.0000
56.5000 301.0000 1.0000
56.5200 278.0000 1.0000
56.5400 287.0000 1.0000
56.5600 288.0000 1.0000
56.5800 256.0000 1.0000
56.6000 246.0000 1.0000
56.6200 243.0000 1.0000
56.6400 241.0000 1.0000
56.6600 250.0000 1.0000
56.6800 237.0000 1.0000
56.7000 222.0000 1.0000
56.7200 230.0000 1.0000
56.7400 220.0000 1.0000
56.7600 224.0000 1.0000
56.7800 210.0000 1.0000
56.8000 206.0000 1.0000
56.8200 213.0000 1.0000
56.8400 209.0000 1.0000
56.8600 219.0000 1.0000
56.8800 214.0000 1.0000
56.9000 211.0000 1.0000
56.9200 206.0000 1.0000
56.9400 205.0000 1.0000
56.9600 194.0000 1.0000
56.9800 196.0000 1.0000
57.0000 210.0000 1.0000
57.0200 208.0000 1.0000
57.0400 216.0000 1.0000
57.0600 227.0000 1.0000
57.0800 230.0000 1.0000
57.1000 226.0000 1.0000
57.1200 241.0000 1.0000
57.1400 268.0000 1.0000
57.1600 273.0000 1.0000
57.1800 276.0000 1.0000
57.2000 298.0000 1.0000
57.2200 356.0000 1.0000
57.2400 436.0000 1.0000
57.2600 507.0000 1.0000
57.2800 619.0000 1.0000
57.3000 774.0000 1.0000
57.3200 968.0000 1.0000
57.3400 1124.0000 1.0000
57.3600 1203.0000 1.0000
57.3800 1185.0000 1.0000
57.4000 1099.0000 1.0000
57.4200 977.0000 1.0000
57.4400 889.0000 1.0000
57.4600 832.0000 1.0000
57.4800 748.0000 1.0000
57.5000 755.0000 1.0000
57.5200 741.0000 1.0000
57.5400 688.0000 1.0000
57.5600 592.0000 1.0000
57.5800 490.0000 1.0000
57.6000 381.0000 1.0000
57.6200 307.0000 1.0000
57.6400 260.0000 1.0000
57.6600 226.0000 1.0000
57.6800 192.0000 1.0000
57.7000 184.0000 1.0000
57.7200 158.0000 1.0000
57.7400 168.0000 1.0000
57.7600 165.0000 1.0000
57.7800 147.0000 1.0000
57.8000 150.0000 1.0000
57.8200 156.0000 1.0000
57.8400 157.0000 1.0000
57.8600 151.0000 1.0000
57.8800 140.0000 1.0000
57.9000 136.0000 1.0000
57.9200 131.0000 1.0000
57.9400 123.0000 1.0000
57.9600 124.0000 1.0000
57.9800 124.0000 1.0000
58.0000 128.0000 1.0000
58.0200 114.0000 1.0000
58.0400 118.0000 1.0000
58.0600 132.0000 1.0000
58.0800 114.0000 1.0000
58.1000 129.0000 1.0000
58.1200 131.0000 1.0000
58.1400 123.0000 1.0000
58.1600 121.0000 1.0000
58.1800 114.0000 1.0000
58.2000 96.0000 1.0000
58.2200 107.0000 1.0000
58.2400 111.0000 1.0000
58.2600 119.0000 1.0000
58.2800 115.0000 1.0000
58.3000 107.0000 1.0000
58.3200 105.0000 1.0000
58.3400 96.0000 1.0000
58.3600 103.0000 1.0000
58.3800 122.0000 1.0000
58.4000 120.0000 1.0000
58.4200 99.0000 1.0000
58.4400 112.0000 1.0000
58.4600 116.0000 1.0000
58.4800 114.0000 1.0000
58.5000 111.0000 1.0000
58.5200 103.0000 1.0000
58.5400 119.0000 1.0000
58.5600 112.0000 1.0000
58.5800 124.0000 1.0000
58.6000 125.0000 1.0000
58.6200 138.0000 1.0000
58.6400 122.0000 1.0000
58.6600 115.0000 1.0000
58.6800 129.0000 1.0000
58.7000 147.0000 1.0000
58.7200 129.0000 1.0000
58.7400 111.0000 1.0000
58.7600 130.0000 1.0000
58.7800 141.0000 1.0000
58.8000 149.0000 1.0000
58.8200 132.0000 1.0000
58.8400 142.0000 1.0000
58.8600 126.0000 1.0000
58.8800 132.0000 1.0000
58.9000 125.0000 1.0000
58.9200 130.0000 1.0000
58.9400 134.0000 1.0000
58.9600 147.0000 1.0000
58.9800 133.0000 1.0000
59.0000 129.0000 1.0000
59.0200 128.0000 1.0000
59.0400 140.0000 1.0000
59.0600 153.0000 1.0000
59.0800 141.0000 1.0000
59.1000 142.0000 1.0000
59.1200 133.0000 1.0000
59.1400 125.0000 1.0000
59.1600 139.0000 1.0000
59.1800 140.0000 1.0000
59.2000 129.0000 1.0000
59.2200 126.0000 1.0000
59.2400 126.0000 1.0000
59.2600 139.0000 1.0000
59.2800 139.0000 1.0000
59.3000 138.0000 1.0000
59.3200 167.0000 1.0000
59.3400 140.0000 1.0000
59.3600 147.0000 1.0000
59.3800 141.0000 1.0000
59.4000 163.0000 1.0000
59.4200 165.0000 1.0000
59.4400 146.0000 1.0000
59.4600 155.0000 1.0000
59.4800 147.0000 1.0000
59.5000 154.0000 1.0000
59.5200 171.0000 1.0000
59.5400 166.0000 1.0000
59.5600 171.0000 1.0000
59.5800 197.0000 1.0000
59.6000 203.0000 1.0000
59.6200 205.0000 1.0000
59.6400 195.0000 1.0000
59.6600 211.0000 1.0000
59.6800 222.0000 1.0000
59.7000 251.0000 1.0000
59.7200 281.0000 1.0000
59.7400 300.0000 1.0000
59.7600 351.0000 1.0000
59.7800 409.0000 1.0000
59.8000 484.0000 1.0000
59.8200 461.0000 1.0000
59.8400 430.0000 1.0000
59.8600 456.0000 1.0000
59.8800 411.0000 1.0000
59.9000 358.0000 1.0000
59.9200 307.0000 1.0000
59.9400 305.0000 1.0000
59.9600 294.0000 1.0000
59.9800 319.0000 1.0000
60.0000 314.0000 1.0000
60.0200 295.0000 1.0000
60.0400 259.0000 1.0000
60.0600 252.0000 1.0000
60.0800 213.0000 1.0000
60.1000 188.0000 1.0000
60.1200 199.0000 1.0000
60.1400 204.0000 1.0000
60.1600 187.0000 1.0000
60.1800 197.0000 1.0000
60.2000 166.0000 1.0000
60.2200 154.0000 1.0000
60.2400 157.0000 1.0000
60.2600 162.0000 1.0000
60.2800 171.0000 1.0000
60.3000 153.0000 1.0000
60.3200 172.0000 1.0000
60.3400 191.0000 1.0000
60.3600 183.0000 1.0000
60.3800 169.0000 1.0000
60.4000 179.0000 1.0000
60.4200 188.0000 1.0000
60.4400 172.0000 1.0000
60.4600 178.0000 1.0000
60.4800 185.0000 1.0000
60.5000 176.0000 1.0000
60.5200 174.0000 1.0000
60.5400 171.0000 1.0000
60.5600 156.0000 1.0000
60.5800 166.0000 1.0000
60.6000 146.0000 1.0000
60.6200 150.0000 1.0000
60.6400 158.0000 1.0000
60.6600 159.0000 1.0000
60.6800 140.0000 1.0000
60.7000 151.0000 1.0000
60.7200 150.0000 1.0000
60.7400 130.0000 1.0000
60.7600 147.0000 1.0000
60.7800 163.0000 1.0000
60.8000 151.0000 1.0000
60.8200 162.0000 1.0000
60.8400 150.0000 1.0000
60.8600 146.0000 1.0000
60.8800 158.0000 1.0000
60.9000 160.0000 1.0000
60.9200 164.0000 1.0000
60.9400 165.0000 1.0000
60.9600 174.0000 1.0000
60.9800 183.0000 1.0000
61.0000 184.0000 1.0000
61.0200 192.0000 1.0000
61.0400 194.0000 1.0000
61.0600 234.0000 1.0000
61.0800 199.0000 1.0000
61.1000 228.0000 1.0000
61.1200 211.0000 1.0000
61.1400 240.0000 1.0000
61.1600 276.0000 1.0000
61.1800 293.0000 1.0000
61.2000 237.0000 1.0000
61.2200 256.0000 1.0000
61.2400 237.0000 1.0000
61.2600 227.0000 1.0000
61.2800 243.0000 1.0000
61.3000 237.0000 1.0000
61.3200 201.0000 1.0000
61.3400 192.0000 1.0000
61.3600 187.0000 1.0000
61.3800 216.0000 1.0000
61.4000 210.0000 1.0000
61.4200 228.0000 1.0000
61.4400 243.0000 1.0000
61.4600 204.0000 1.0000
61.4800 194.0000 1.0000
61.5000 237.0000 1.0000
61.5200 203.0000 1.0000
61.5400 221.0000 1.0000
61.5600 224.0000 1.0000
61.5800 233.0000 1.0000
61.6000 200.0000 1.0000
61.6200 172.0000 1.0000
61.6400 206.0000 1.0000
61.6600 188.0000 1.0000
61.6800 226.0000 1.0000
61.7000 229.0000 1.0000
61.7200 198.0000 1.0000
61.7400 244.0000 1.0000
61.7600 240.0000 1.0000
61.7800 223.0000 1.0000
61.8000 235.0000 1.0000
61.8200 229.0000 1.0000
61.8400 212.0000 1.0000
61.8600 242.0000 1.0000
61.8800 219.0000 1.0000
61.9000 244.0000 1.0000
61.9200 219.0000 1.0000
61.9400 254.0000 1.0000
61.9600 225.0000 1.0000
61.9800 234.0000 1.0000
62.0000 223.0000 1.0000
62.0200 198.0000 1.0000
62.0400 210.0000 1.0000
62.0600 225.0000 1.0000
62.0800 204.0000 1.0000
62.1000 224.0000 1.0000
62.1200 212.0000 1.0000
62.1400 201.0000 1.0000
62.1600 232.0000 1.0000
62.1800 187.0000 1.0000
62.2000 192.0000 1.0000
62.2200 204.0000 1.0000
62.2400 196.0000 1.0000
62.2600 212.0000 1.0000
62.2800 185.0000 1.0000
62.3000 209.0000 1.0000
62.3200 207.0000 1.0000
62.3400 175.0000 1.0000
62.3600 197.0000 1.0000
62.3800 195.0000 1.0000
62.4000 188.0000 1.0000
62.4200 194.0000 1.0000
62.4400 196.0000 1.0000
62.4600 202.0000 1.0000
62.4800 225.0000 1.0000
62.5000 206.0000 1.0000
62.5200 200.0000 1.0000
62.5400 187.0000 1.0000
62.5600 186.0000 1.0000
62.5800 189.0000 1.0000
62.6000 161.0000 1.0000
62.6200 175.0000 1.0000
62.6400 181.0000 1.0000
62.6600 156.0000 1.0000
62.6800 167.0000 1.0000
62.7000 165.0000 1.0000
62.7200 144.0000 1.0000
62.7400 158.0000 1.0000
62.7600 164.0000 1.0000
62.7800 139.0000 1.0000
62.8000 152.0000 1.0000
62.8200 144.0000 1.0000
62.8400 133.0000 1.0000
62.8600 132.0000 1.0000
62.8800 141.0000 1.0000
62.9000 135.0000 1.0000
62.9200 153.0000 1.0000
62.9400 114.0000 1.0000
62.9600 151.0000 1.0000
62.9800 150.0000 1.0000
63.0000 152.0000 1.0000
63.0200 149.0000 1.0000
63.0400 140.0000 1.0000
63.0600 136.0000 1.0000
63.0800 134.0000 1.0000
63.1000 150.0000 1.0000
63.1200 156.0000 1.0000
63.1400 143.0000 1.0000
63.1600 155.0000 1.0000
63.1800 173.0000 1.0000
63.2000 165.0000 1.0000
63.2200 160.0000 1.0000
63.2400 165.0000 1.0000
63.2600 158.0000 1.0000
63.2800 176.0000 1.0000
63.3000 159.0000 1.0000
63.3200 152.0000 1.0000
63.3400 160.0000 1.0000
63.3600 132.0000 1.0000
63.3800 147.0000 1.0000
63.4000 142.0000 1.0000
63.4200 147.0000 1.0000
63.4400 152.0000 1.0000
63.4600 145.0000 1.0000
63.4800 133.0000 1.0000
63.5000 152.0000 1.0000
63.5200 134.0000 1.0000
63.5400 134.0000 1.0000
63.5600 134.0000 1.0000
63.5800 139.0000 1.0000
63.6000 153.0000 1.0000
63.6200 137.0000 1.0000
63.6400 154.0000 1.0000
63.6600 159.0000 1.0000
63.6800 143.0000 1.0000
63.7000 143.0000 1.0000
63.7200 134.0000 1.0000
63.7400 139.0000 1.0000
63.7600 160.0000 1.0000
63.7800 149.0000 1.0000
63.8000 150.0000 1.0000
63.8200 166.0000 1.0000
63.8400 176.0000 1.0000
63.8600 177.0000 1.0000
63.8800 175.0000 1.0000
63.9000 173.0000 1.0000
63.9200 188.0000 1.0000
63.9400 180.0000 1.0000
63.9600 155.0000 1.0000
63.9800 165.0000 1.0000
64.0000 155.0000 1.0000
64.0200 150.0000 1.0000
64.0400 145.0000 1.0000
64.0600 166.0000 1.0000
64.0800 170.0000 1.0000
64.1000 168.0000 1.0000
64.1200 155.0000 1.0000
64.1400 133.0000 1.0000
64.1600 123.0000 1.0000
64.1800 131.0000 1.0000
64.2000 136.0000 1.0000
64.2200 126.0000 1.0000
64.2400 118.0000 1.0000
64.2600 113.0000 1.0000
64.2800 112.0000 1.0000
64.3000 134.0000 1.0000
64.3200 139.0000 1.0000
64.3400 134.0000 1.0000
64.3600 129.0000 1.0000
64.3800 121.0000 1.0000
64.4000 118.0000 1.0000
64.4200 113.0000 1.0000
64.4400 123.0000 1.0000
64.4600 121.0000 1.0000
64.4800 119.0000 1.0000
64.5000 124.0000 1.0000
64.5200 116.0000 1.0000
64.5400 121.0000 1.0000
64.5600 123.0000 1.0000
64.5800 112.0000 1.0000
64.6000 122.0000 1.0000
64.6200 109.0000 1.0000
64.6400 127.0000 1.0000
64.6600 139.0000 1.0000
64.6800 140.0000 1.0000
64.7000 119.0000 1.0000
64.7200 114.0000 1.0000
64.7400 125.0000 1.0000
64.7600 124.0000 1.0000
64.7800 119.0000 1.0000
64.8000 103.0000 1.0000
64.8200 129.0000 1.0000
64.8400 125.0000 1.0000
64.8600 126.0000 1.0000
64.8800 131.0000 1.0000
64.9000 128.0000 1.0000
64.9200 134.0000 1.0000
64.9400 137.0000 1.0000
64.9600 137.0000 1.0000
64.9800 137.0000 1.0000
65.0000 137.0000 1.0000
*RAS_INT_END
*RAS_DATA_END
