*RAS_DATA_START
*RAS_HEADER_START
*CORR_POS_DB_NAME "Angle Correction ASC6 SC WITH Mono_04082019"
*CORR_POS_GONIO_RADIUS ""
*CORR_POS_NODE_INDEX01 ""
*CORR_POS_NODE_INDEX02 ""
*CORR_POS_NODE_INDEX03 ""
*CORR_POS_NODE_INDEX04 ""
*CORR_POS_NODE_INDEX05 ""
*CORR_POS_NODE_INDEX06 ""
*CORR_POS_NODE_INDEX07 ""
*CORR_POS_NODE_INDEX08 ""
*CORR_POS_NODE_INDEX09 ""
*CORR_POS_NODE_INDEX10 ""
*CORR_POS_NODE_INDEX11 ""
*CORR_POS_NODE_LABEL01 "Si(111)"
*CORR_POS_NODE_LABEL02 "Si(220)"
*CORR_POS_NODE_LABEL03 "Si(311)"
*CORR_POS_NODE_LABEL04 "Si(400)"
*CORR_POS_NODE_LABEL05 "Si(331)"
*CORR_POS_NODE_LABEL06 "Si(422)"
*CORR_POS_NODE_LABEL07 "Si(511)"
*CORR_POS_NODE_LABEL08 "Si(440)"
*CORR_POS_NODE_LABEL09 "Si(531)"
*CORR_POS_NODE_LABEL10 "Si(620)"
*CORR_POS_NODE_LABEL11 "Si(533)"
*CORR_POS_NODE_POS_CALC01 "28.377"
*CORR_POS_NODE_POS_CALC02 "47.2506"
*CORR_POS_NODE_POS_CALC03 "56.0725"
*CORR_POS_NODE_POS_CALC04 "69.0822"
*CORR_POS_NODE_POS_CALC05 "76.3294"
*CORR_POS_NODE_POS_CALC06 "87.9853"
*CORR_POS_NODE_POS_CALC07 "94.9091"
*CORR_POS_NODE_POS_CALC08 "106.668"
*CORR_POS_NODE_POS_CALC09 "114.054"
*CORR_POS_NODE_POS_CALC10 "127.511"
*CORR_POS_NODE_POS_CALC11 "136.864"
*CORR_POS_NODE_POS_MEAS01 "28.5058"
*CORR_POS_NODE_POS_MEAS02 "47.345"
*CORR_POS_NODE_POS_MEAS03 "56.1421"
*CORR_POS_NODE_POS_MEAS04 "69.1304"
*CORR_POS_NODE_POS_MEAS05 "76.366"
*CORR_POS_NODE_POS_MEAS06 "88.0213"
*CORR_POS_NODE_POS_MEAS07 "94.9406"
*CORR_POS_NODE_POS_MEAS08 "106.689"
*CORR_POS_NODE_POS_MEAS09 "114.065"
*CORR_POS_NODE_POS_MEAS10 "127.518"
*CORR_POS_NODE_POS_MEAS11 "136.869"
*CORR_POS_OPT_ATTR "集中法"
*CORR_POS_PARAM_MU ""
*CORR_POS_PARAM_PL ""
*CORR_POS_SEMODEL_TYPE "0"
*CORR_POS_STANDARD_TYPE ""
*CORR_POS_VALUE_ANALYZER "None"
*CORR_POS_VALUE_CMONO "None"
*CORR_POS_VALUE_IMONO "None"
*CORR_POS_VALUE_IS "1.250deg"
*CORR_POS_VALUE_ISL "10.0mm"
*CORR_POS_VALUE_ISOLLER "5.0deg"
*CORR_POS_VALUE_RS1 "1.250deg"
*CORR_POS_VALUE_RS2 "0.3mm"
*CORR_POS_VALUE_RSOLLER "5.0deg"
*CORR_POS_XG_FOCUS_L ""
*CORR_POS_XG_WAVE_TYPE ""
*CORR_POS_XG_WAVE_VALUE ""
*DISP_FMT_X "%.2f"
*DISP_FMT_Y "%.0f"
*DISP_FULLSCALE "6174.0000000000"
*DISP_LINE_COLOR "255.0000000000"
*DISP_LINE_STYLE "0.0000000000"
*DISP_LINE_WIDTH "0.2500000000"
*DISP_NOTE "Collected Data-1"
*DISP_OFFSET_Y "0.0000000000"
*DISP_PEAKSEARCH_UNIT_Y "CPS"
*DISP_RANGE_BOTTOM "0.0000000000"
*DISP_RANGE_LEFT "5.0000000000"
*DISP_RANGE_LOGCUTOFF "0.0100000000"
*DISP_RANGE_RIGHT "65.0000000000"
*DISP_RANGE_TOP "6174.0000000000"
*DISP_SCALE_MODE_Y "0.0000000000"
*DISP_TAB_NAME "Theta/2-Theta"
*DISP_TITLE_Y "Intensity"
*DISP_UNIT_Y "CPS"
*DISP_WINDOW_NAME "MSG_MACROENGINE"
*FILE_COMMENT " "
*FILE_MD5 ""
*FILE_MEMO " "
*FILE_OPERATOR "Administrator"
*FILE_PART_ID "MEAS_PBEA_00223"
*FILE_SAMPLE " "
*FILE_TYPE "RAS_RAW"
*FILE_USERGROUP "System Manager"
*FILE_VERSION "1.0000000000"
*HW_ATTACHMENT_ID "ATT1031"
*HW_ATTACHMENT_NAME "6サンプルチェンジャ|ASC-6"
*HW_COUNTER_ID-0 "CUT0021"
*HW_COUNTER_ID-1 "CUT0020"
*HW_COUNTER_ID-2 "CUT0020"
*HW_COUNTER_ID-3 "CMC0021"
*HW_COUNTER_NAME-0 "SC-70|SC-70"
*HW_COUNTER_NAME-1 "None|None"
*HW_COUNTER_NAME-2 "None|None"
*HW_COUNTER_NAME-3 "検出器モノクロメータ|Detector monochromator"
*HW_COUNTER_SELECT_NAME "SC-70|SC-70"
*HW_ECP_HV "671.5000000000"
*HW_ECP_HV_UNIT "V"
*HW_GONIOMETER_ID "GON0070"
*HW_GONIOMETER_NAME "MiniFlex 300/600|MiniFlex 300/600"
*HW_GONIOMETER_RADIUS-0 "79.0"
*HW_GONIOMETER_RADIUS-1 "91.5"
*HW_GONIOMETER_RADIUS-2 "150.0"
*HW_GONIOMETER_RADIUS-3 "0"
*HW_GONIOMETER_RADIUS-4 "103.4"
*HW_GONIOMETER_RADIUS-5 "150.0"
*HW_GONIOMETER_RADIUS-6 "46.6"
*HW_GONIOMETER_RADIUS-7 "160.0"
*HW_I_OPT_ID-0 "ISL0021"
*HW_I_OPT_ID-1 "ISO0021"
*HW_I_OPT_NAME-0 "発散スリット|Divergence slit"
*HW_I_OPT_NAME-1 "入射平行スリット|Incident parallel slit"
*HW_R_ATTENUATER_AUTOMODE "0"
*HW_R_OPT_ID-0 "RSS0021"
*HW_R_OPT_ID-1 "RSO0021"
*HW_R_OPT_ID-2 "RRS0021"
*HW_R_OPT_NAME-0 "散乱スリット|Scattering slit"
*HW_R_OPT_NAME-1 "受光平行スリット|Receiving soller slit"
*HW_R_OPT_NAME-2 "受光スリット|Receiving slit"
*HW_SAMPLE_HOLDER_ID "SMP0000"
*HW_SAMPLE_HOLDER_NAME "無し|None"
*HW_XG_CURRENT_MAX "15"
*HW_XG_CURRENT_MIN "2"
*HW_XG_CURRENT_RESOLUTION "1"
*HW_XG_CURRENT_UNIT "mA"
*HW_XG_FOCUS "1mm x 10mm"
*HW_XG_FOCUS_TYPE "Normal"
*HW_XG_ID "1060"
*HW_XG_NAME "300W/600W 封入管-B|300W/600W Sealed tube-B"
*HW_XG_TARGET_ATOMIC_NUMBER "29.0000000000"
*HW_XG_TARGET_NAME "Cu"
*HW_XG_TYPE "Hermetic"
*HW_XG_VOLTAGE_MAX "40"
*HW_XG_VOLTAGE_MIN "20"
*HW_XG_VOLTAGE_RESOLUTION "1"
*HW_XG_VOLTAGE_UNIT "kV"
*HW_XG_WATT_MAX "0.600"
*HW_XG_WATT_UNIT "kW"
*HW_XG_WAVE_LENGTH_ALPHA1 "1.540593"
*HW_XG_WAVE_LENGTH_ALPHA2 "1.544414"
*HW_XG_WAVE_LENGTH_BETA "1.392250"
*MEAS_COND_AXIS_NAME-0 "Theta/2-Theta"
*MEAS_COND_AXIS_NAME-1 "Spin"
*MEAS_COND_AXIS_NAME-2 "Change"
*MEAS_COND_AXIS_NAME-3 "Soller(inc.)"
*MEAS_COND_AXIS_NAME-4 "IHS"
*MEAS_COND_AXIS_NAME-5 "DS"
*MEAS_COND_AXIS_NAME-6 "SS"
*MEAS_COND_AXIS_NAME-7 "Soller(rec.)"
*MEAS_COND_AXIS_NAME-8 "RS"
*MEAS_COND_AXIS_NAME-9 "Filter"
*MEAS_COND_AXIS_NAME-10 "Monochromator"
*MEAS_COND_AXIS_NAME-11 "HV"
*MEAS_COND_AXIS_NAME-12 "PHA"
*MEAS_COND_AXIS_NAME_INTERNAL-0 "TwoThetaTheta"
*MEAS_COND_AXIS_NAME_INTERNAL-1 "Spin"
*MEAS_COND_AXIS_NAME_INTERNAL-2 "Change"
*MEAS_COND_AXIS_NAME_INTERNAL-3 "IncidentSollerSlit"
*MEAS_COND_AXIS_NAME_INTERNAL-4 "IncidentAxdSlit"
*MEAS_COND_AXIS_NAME_INTERNAL-5 "IncidentSlitBox"
*MEAS_COND_AXIS_NAME_INTERNAL-6 "ReceivingSlitBox1"
*MEAS_COND_AXIS_NAME_INTERNAL-7 "ReceivingSollerSlit"
*MEAS_COND_AXIS_NAME_INTERNAL-8 "ReceivingSlitBox2"
*MEAS_COND_AXIS_NAME_INTERNAL-9 "Filter"
*MEAS_COND_AXIS_NAME_INTERNAL-10 "CounterMonochromator"
*MEAS_COND_AXIS_NAME_INTERNAL-11 "HV"
*MEAS_COND_AXIS_NAME_INTERNAL-12 "PHA"
*MEAS_COND_AXIS_NAME_MAGICNO-0 "268632064.0000000000"
*MEAS_COND_AXIS_NAME_MAGICNO-1 "16842752.0000000000"
*MEAS_COND_AXIS_NAME_MAGICNO-2 "16842752.0000000000"
*MEAS_COND_AXIS_NAME_MAGICNO-3 "20971521.0000000000"
*MEAS_COND_AXIS_NAME_MAGICNO-4 "22020097.0000000000"
*MEAS_COND_AXIS_NAME_MAGICNO-5 "22020097.0000000000"
*MEAS_COND_AXIS_NAME_MAGICNO-6 "23068673.0000000000"
*MEAS_COND_AXIS_NAME_MAGICNO-7 "20971521.0000000000"
*MEAS_COND_AXIS_NAME_MAGICNO-8 "23068673.0000000000"
*MEAS_COND_AXIS_NAME_MAGICNO-9 "20971521.0000000000"
*MEAS_COND_AXIS_NAME_MAGICNO-10 "20971521.0000000000"
*MEAS_COND_AXIS_NAME_MAGICNO-11 "0.0000000000"
*MEAS_COND_AXIS_NAME_MAGICNO-12 "0.0000000000"
*MEAS_COND_AXIS_OFFSET-0 "0.0000000000"
*MEAS_COND_AXIS_OFFSET-1 "-"
*MEAS_COND_AXIS_OFFSET-2 "-"
*MEAS_COND_AXIS_OFFSET-3 "-"
*MEAS_COND_AXIS_OFFSET-4 "-"
*MEAS_COND_AXIS_OFFSET-5 "-"
*MEAS_COND_AXIS_OFFSET-6 "-"
*MEAS_COND_AXIS_OFFSET-7 "-"
*MEAS_COND_AXIS_OFFSET-8 "-"
*MEAS_COND_AXIS_OFFSET-9 "-"
*MEAS_COND_AXIS_OFFSET-10 "-"
*MEAS_COND_AXIS_OFFSET-11 "-"
*MEAS_COND_AXIS_OFFSET-12 "-"
*MEAS_COND_AXIS_POSITION-0 "10.0000000000"
*MEAS_COND_AXIS_POSITION-1 "0.0000000000"
*MEAS_COND_AXIS_POSITION-2 "1.0000000000"
*MEAS_COND_AXIS_POSITION-3 "5.0deg"
*MEAS_COND_AXIS_POSITION-4 "10.0mm"
*MEAS_COND_AXIS_POSITION-5 "1.250deg"
*MEAS_COND_AXIS_POSITION-6 "1.250deg"
*MEAS_COND_AXIS_POSITION-7 "5.0deg"
*MEAS_COND_AXIS_POSITION-8 "0.3mm"
*MEAS_COND_AXIS_POSITION-9 "None"
*MEAS_COND_AXIS_POSITION-10 "Bent"
*MEAS_COND_AXIS_POSITION-11 "671.5000000000"
*MEAS_COND_AXIS_POSITION-12 "551.2500000000"
*MEAS_COND_AXIS_UNIT-0 "deg"
*MEAS_COND_AXIS_UNIT-1 ""
*MEAS_COND_AXIS_UNIT-2 ""
*MEAS_COND_AXIS_UNIT-3 ""
*MEAS_COND_AXIS_UNIT-4 ""
*MEAS_COND_AXIS_UNIT-5 ""
*MEAS_COND_AXIS_UNIT-6 ""
*MEAS_COND_AXIS_UNIT-7 ""
*MEAS_COND_AXIS_UNIT-8 ""
*MEAS_COND_AXIS_UNIT-9 ""
*MEAS_COND_AXIS_UNIT-10 ""
*MEAS_COND_AXIS_UNIT-11 "V"
*MEAS_COND_AXIS_UNIT-12 "mV"
*MEAS_COND_CORRECTION_SLIT_COUNTERMONO "None"
*MEAS_COND_CORRECTION_SLIT_DS "1.250deg"
*MEAS_COND_CORRECTION_SLIT_FILTER "None"
*MEAS_COND_CORRECTION_SLIT_IHS "10.0mm"
*MEAS_COND_CORRECTION_SLIT_RS "0.3mm"
*MEAS_COND_CORRECTION_SLIT_SOLLER_INC "5.0deg"
*MEAS_COND_CORRECTION_SLIT_SOLLER_REC "5.0deg"
*MEAS_COND_CORRECTION_SLIT_SS "1.250deg"
*MEAS_COND_COUNTER_CNTLOSS_CORR "0.0000000000"
*MEAS_COND_COUNTER_PHABASE "551.2500000000"
*MEAS_COND_COUNTER_PHAWINDOW "926.2500000000"
*MEAS_COND_COUNTER_PHA_UNIT "mV"
*MEAS_COND_COUNTER_TAUDIFF "0.2500000000"
*MEAS_COND_COUNTER_TAUINT "0.7500000000"
*MEAS_COND_IRRADIATION_MODE "OFF"
*MEAS_COND_IRRADIATION_WIDTH ""
*MEAS_COND_OPT_ATTR " "
*MEAS_COND_OPT_NAME ""
*MEAS_COND_UNSYMMETRIC_MODE "OFF"
*MEAS_COND_XG_CURRENT "15.0000000000"
*MEAS_COND_XG_VOLTAGE "40.0000000000"
*MEAS_COND_XG_WAVE_TYPE "Ka"
*MEAS_DATA_COUNT "3001.0000000000"
*MEAS_SCAN_AXIS_X "Theta/2-Theta"
*MEAS_SCAN_AXIS_X_INTERNAL "TwoThetaTheta"
*MEAS_SCAN_END_TIME "07/10/25 19:06:52"
*MEAS_SCAN_MODE "STEP"
*MEAS_SCAN_MONITOR "0"
*MEAS_SCAN_RESOLUTION_X "0.0025"
*MEAS_SCAN_SPEED "2.00"
*MEAS_SCAN_SPEED_UNIT "sec."
*MEAS_SCAN_SPEED_USER "2.00"
*MEAS_SCAN_START "5.0000000000"
*MEAS_SCAN_START_TIME "07/10/25 17:21:42"
*MEAS_SCAN_STEP "0.0200000000"
*MEAS_SCAN_STOP "65.0000000000"
*MEAS_SCAN_UNIT_X "deg"
*MEAS_SCAN_UNIT_Y "counts"
*SLIT_SYSTEM "0"
*RAS_HEADER_END
*RAS_INT_START
5.0000 1090.0000 1.0000
5.0200 1108.0000 1.0000
5.0400 1115.0000 1.0000
5.0600 1015.0000 1.0000
5.0800 1088.0000 1.0000
5.1000 1018.0000 1.0000
5.1200 977.0000 1.0000
5.1400 981.0000 1.0000
5.1600 995.0000 1.0000
5.1800 1002.0000 1.0000
5.2000 1027.0000 1.0000
5.2200 1059.0000 1.0000
5.2400 894.0000 1.0000
5.2600 1026.0000 1.0000
5.2800 1149.0000 1.0000
5.3000 1015.0000 1.0000
5.3200 983.0000 1.0000
5.3400 958.0000 1.0000
5.3600 920.0000 1.0000
5.3800 993.0000 1.0000
5.4000 1075.0000 1.0000
5.4200 923.0000 1.0000
5.4400 855.0000 1.0000
5.4600 934.0000 1.0000
5.4800 1033.0000 1.0000
5.5000 1008.0000 1.0000
5.5200 890.0000 1.0000
5.5400 988.0000 1.0000
5.5600 951.0000 1.0000
5.5800 994.0000 1.0000
5.6000 960.0000 1.0000
5.6200 984.0000 1.0000
5.6400 901.0000 1.0000
5.6600 963.0000 1.0000
5.6800 947.0000 1.0000
5.7000 937.0000 1.0000
5.7200 970.0000 1.0000
5.7400 924.0000 1.0000
5.7600 937.0000 1.0000
5.7800 937.0000 1.0000
5.8000 905.0000 1.0000
5.8200 908.0000 1.0000
5.8400 873.0000 1.0000
5.8600 899.0000 1.0000
5.8800 886.0000 1.0000
5.9000 817.0000 1.0000
5.9200 864.0000 1.0000
5.9400 940.0000 1.0000
5.9600 984.0000 1.0000
5.9800 953.0000 1.0000
6.0000 934.0000 1.0000
6.0200 881.0000 1.0000
6.0400 884.0000 1.0000
6.0600 872.0000 1.0000
6.0800 943.0000 1.0000
6.1000 918.0000 1.0000
6.1200 861.0000 1.0000
6.1400 836.0000 1.0000
6.1600 919.0000 1.0000
6.1800 907.0000 1.0000
6.2000 862.0000 1.0000
6.2200 826.0000 1.0000
6.2400 868.0000 1.0000
6.2600 898.0000 1.0000
6.2800 868.0000 1.0000
6.3000 824.0000 1.0000
6.3200 839.0000 1.0000
6.3400 816.0000 1.0000
6.3600 857.0000 1.0000
6.3800 846.0000 1.0000
6.4000 829.0000 1.0000
6.4200 768.0000 1.0000
6.4400 806.0000 1.0000
6.4600 810.0000 1.0000
6.4800 793.0000 1.0000
6.5000 796.0000 1.0000
6.5200 768.0000 1.0000
6.5400 745.0000 1.0000
6.5600 723.0000 1.0000
6.5800 741.0000 1.0000
6.6000 727.0000 1.0000
6.6200 708.0000 1.0000
6.6400 745.0000 1.0000
6.6600 749.0000 1.0000
6.6800 749.0000 1.0000
6.7000 725.0000 1.0000
6.7200 700.0000 1.0000
6.7400 740.0000 1.0000
6.7600 749.0000 1.0000
6.7800 700.0000 1.0000
6.8000 761.0000 1.0000
6.8200 756.0000 1.0000
6.8400 699.0000 1.0000
6.8600 719.0000 1.0000
6.8800 703.0000 1.0000
6.9000 685.0000 1.0000
6.9200 642.0000 1.0000
6.9400 632.0000 1.0000
6.9600 674.0000 1.0000
6.9800 698.0000 1.0000
7.0000 688.0000 1.0000
7.0200 686.0000 1.0000
7.0400 695.0000 1.0000
7.0600 669.0000 1.0000
7.0800 683.0000 1.0000
7.1000 681.0000 1.0000
7.1200 735.0000 1.0000
7.1400 746.0000 1.0000
7.1600 650.0000 1.0000
7.1800 643.0000 1.0000
7.2000 688.0000 1.0000
7.2200 706.0000 1.0000
7.2400 673.0000 1.0000
7.2600 643.0000 1.0000
7.2800 690.0000 1.0000
7.3000 714.0000 1.0000
7.3200 643.0000 1.0000
7.3400 616.0000 1.0000
7.3600 670.0000 1.0000
7.3800 678.0000 1.0000
7.4000 664.0000 1.0000
7.4200 677.0000 1.0000
7.4400 701.0000 1.0000
7.4600 709.0000 1.0000
7.4800 672.0000 1.0000
7.5000 687.0000 1.0000
7.5200 715.0000 1.0000
7.5400 664.0000 1.0000
7.5600 667.0000 1.0000
7.5800 663.0000 1.0000
7.6000 742.0000 1.0000
7.6200 711.0000 1.0000
7.6400 611.0000 1.0000
7.6600 661.0000 1.0000
7.6800 693.0000 1.0000
7.7000 691.0000 1.0000
7.7200 704.0000 1.0000
7.7400 739.0000 1.0000
7.7600 720.0000 1.0000
7.7800 680.0000 1.0000
7.8000 680.0000 1.0000
7.8200 659.0000 1.0000
7.8400 698.0000 1.0000
7.8600 694.0000 1.0000
7.8800 692.0000 1.0000
7.9000 643.0000 1.0000
7.9200 672.0000 1.0000
7.9400 680.0000 1.0000
7.9600 699.0000 1.0000
7.9800 744.0000 1.0000
8.0000 715.0000 1.0000
8.0200 713.0000 1.0000
8.0400 688.0000 1.0000
8.0600 719.0000 1.0000
8.0800 745.0000 1.0000
8.1000 766.0000 1.0000
8.1200 768.0000 1.0000
8.1400 734.0000 1.0000
8.1600 691.0000 1.0000
8.1800 685.0000 1.0000
8.2000 697.0000 1.0000
8.2200 759.0000 1.0000
8.2400 721.0000 1.0000
8.2600 726.0000 1.0000
8.2800 742.0000 1.0000
8.3000 754.0000 1.0000
8.3200 721.0000 1.0000
8.3400 775.0000 1.0000
8.3600 818.0000 1.0000
8.3800 818.0000 1.0000
8.4000 850.0000 1.0000
8.4200 781.0000 1.0000
8.4400 759.0000 1.0000
8.4600 769.0000 1.0000
8.4800 769.0000 1.0000
8.5000 747.0000 1.0000
8.5200 809.0000 1.0000
8.5400 838.0000 1.0000
8.5600 864.0000 1.0000
8.5800 897.0000 1.0000
8.6000 895.0000 1.0000
8.6200 897.0000 1.0000
8.6400 919.0000 1.0000
8.6600 973.0000 1.0000
8.6800 898.0000 1.0000
8.7000 863.0000 1.0000
8.7200 801.0000 1.0000
8.7400 770.0000 1.0000
8.7600 704.0000 1.0000
8.7800 651.0000 1.0000
8.8000 578.0000 1.0000
8.8200 566.0000 1.0000
8.8400 503.0000 1.0000
8.8600 487.0000 1.0000
8.8800 463.0000 1.0000
8.9000 426.0000 1.0000
8.9200 402.0000 1.0000
8.9400 420.0000 1.0000
8.9600 430.0000 1.0000
8.9800 449.0000 1.0000
9.0000 405.0000 1.0000
9.0200 363.0000 1.0000
9.0400 360.0000 1.0000
9.0600 349.0000 1.0000
9.0800 412.0000 1.0000
9.1000 394.0000 1.0000
9.1200 404.0000 1.0000
9.1400 386.0000 1.0000
9.1600 408.0000 1.0000
9.1800 403.0000 1.0000
9.2000 372.0000 1.0000
9.2200 351.0000 1.0000
9.2400 334.0000 1.0000
9.2600 317.0000 1.0000
9.2800 318.0000 1.0000
9.3000 340.0000 1.0000
9.3200 305.0000 1.0000
9.3400 304.0000 1.0000
9.3600 294.0000 1.0000
9.3800 325.0000 1.0000
9.4000 302.0000 1.0000
9.4200 280.0000 1.0000
9.4400 297.0000 1.0000
9.4600 314.0000 1.0000
9.4800 321.0000 1.0000
9.5000 283.0000 1.0000
9.5200 285.0000 1.0000
9.5400 270.0000 1.0000
9.5600 321.0000 1.0000
9.5800 324.0000 1.0000
9.6000 280.0000 1.0000
9.6200 256.0000 1.0000
9.6400 246.0000 1.0000
9.6600 331.0000 1.0000
9.6800 319.0000 1.0000
9.7000 252.0000 1.0000
9.7200 327.0000 1.0000
9.7400 282.0000 1.0000
9.7600 314.0000 1.0000
9.7800 313.0000 1.0000
9.8000 282.0000 1.0000
9.8200 255.0000 1.0000
9.8400 255.0000 1.0000
9.8600 246.0000 1.0000
9.8800 238.0000 1.0000
9.9000 253.0000 1.0000
9.9200 247.0000 1.0000
9.9400 237.0000 1.0000
9.9600 261.0000 1.0000
9.9800 266.0000 1.0000
10.0000 254.0000 1.0000
10.0200 246.0000 1.0000
10.0400 268.0000 1.0000
10.0600 258.0000 1.0000
10.0800 250.0000 1.0000
10.1000 237.0000 1.0000
10.1200 211.0000 1.0000
10.1400 230.0000 1.0000
10.1600 232.0000 1.0000
10.1800 253.0000 1.0000
10.2000 273.0000 1.0000
10.2200 265.0000 1.0000
10.2400 261.0000 1.0000
10.2600 215.0000 1.0000
10.2800 255.0000 1.0000
10.3000 238.0000 1.0000
10.3200 235.0000 1.0000
10.3400 246.0000 1.0000
10.3600 240.0000 1.0000
10.3800 227.0000 1.0000
10.4000 210.0000 1.0000
10.4200 280.0000 1.0000
10.4400 204.0000 1.0000
10.4600 218.0000 1.0000
10.4800 194.0000 1.0000
10.5000 263.0000 1.0000
10.5200 194.0000 1.0000
10.5400 248.0000 1.0000
10.5600 253.0000 1.0000
10.5800 207.0000 1.0000
10.6000 215.0000 1.0000
10.6200 215.0000 1.0000
10.6400 221.0000 1.0000
10.6600 260.0000 1.0000
10.6800 198.0000 1.0000
10.7000 225.0000 1.0000
10.7200 206.0000 1.0000
10.7400 205.0000 1.0000
10.7600 228.0000 1.0000
10.7800 229.0000 1.0000
10.8000 228.0000 1.0000
10.8200 202.0000 1.0000
10.8400 235.0000 1.0000
10.8600 215.0000 1.0000
10.8800 253.0000 1.0000
10.9000 211.0000 1.0000
10.9200 252.0000 1.0000
10.9400 241.0000 1.0000
10.9600 213.0000 1.0000
10.9800 226.0000 1.0000
11.0000 243.0000 1.0000
11.0200 224.0000 1.0000
11.0400 186.0000 1.0000
11.0600 191.0000 1.0000
11.0800 240.0000 1.0000
11.1000 212.0000 1.0000
11.1200 224.0000 1.0000
11.1400 205.0000 1.0000
11.1600 194.0000 1.0000
11.1800 192.0000 1.0000
11.2000 197.0000 1.0000
11.2200 170.0000 1.0000
11.2400 173.0000 1.0000
11.2600 204.0000 1.0000
11.2800 229.0000 1.0000
11.3000 210.0000 1.0000
11.3200 188.0000 1.0000
11.3400 175.0000 1.0000
11.3600 209.0000 1.0000
11.3800 194.0000 1.0000
11.4000 220.0000 1.0000
11.4200 201.0000 1.0000
11.4400 190.0000 1.0000
11.4600 206.0000 1.0000
11.4800 235.0000 1.0000
11.5000 246.0000 1.0000
11.5200 206.0000 1.0000
11.5400 220.0000 1.0000
11.5600 230.0000 1.0000
11.5800 237.0000 1.0000
11.6000 219.0000 1.0000
11.6200 212.0000 1.0000
11.6400 210.0000 1.0000
11.6600 225.0000 1.0000
11.6800 255.0000 1.0000
11.7000 219.0000 1.0000
11.7200 231.0000 1.0000
11.7400 175.0000 1.0000
11.7600 186.0000 1.0000
11.7800 203.0000 1.0000
11.8000 247.0000 1.0000
11.8200 215.0000 1.0000
11.8400 223.0000 1.0000
11.8600 235.0000 1.0000
11.8800 230.0000 1.0000
11.9000 231.0000 1.0000
11.9200 234.0000 1.0000
11.9400 213.0000 1.0000
11.9600 235.0000 1.0000
11.9800 247.0000 1.0000
12.0000 220.0000 1.0000
12.0200 268.0000 1.0000
12.0400 258.0000 1.0000
12.0600 299.0000 1.0000
12.0800 282.0000 1.0000
12.1000 317.0000 1.0000
12.1200 321.0000 1.0000
12.1400 340.0000 1.0000
12.1600 332.0000 1.0000
12.1800 332.0000 1.0000
12.2000 334.0000 1.0000
12.2200 390.0000 1.0000
12.2400 341.0000 1.0000
12.2600 355.0000 1.0000
12.2800 402.0000 1.0000
12.3000 444.0000 1.0000
12.3200 422.0000 1.0000
12.3400 391.0000 1.0000
12.3600 362.0000 1.0000
12.3800 346.0000 1.0000
12.4000 354.0000 1.0000
12.4200 334.0000 1.0000
12.4400 301.0000 1.0000
12.4600 276.0000 1.0000
12.4800 255.0000 1.0000
12.5000 257.0000 1.0000
12.5200 232.0000 1.0000
12.5400 237.0000 1.0000
12.5600 244.0000 1.0000
12.5800 235.0000 1.0000
12.6000 214.0000 1.0000
12.6200 187.0000 1.0000
12.6400 195.0000 1.0000
12.6600 194.0000 1.0000
12.6800 202.0000 1.0000
12.7000 212.0000 1.0000
12.7200 203.0000 1.0000
12.7400 220.0000 1.0000
12.7600 232.0000 1.0000
12.7800 205.0000 1.0000
12.8000 181.0000 1.0000
12.8200 177.0000 1.0000
12.8400 163.0000 1.0000
12.8600 157.0000 1.0000
12.8800 186.0000 1.0000
12.9000 191.0000 1.0000
12.9200 177.0000 1.0000
12.9400 198.0000 1.0000
12.9600 167.0000 1.0000
12.9800 169.0000 1.0000
13.0000 177.0000 1.0000
13.0200 191.0000 1.0000
13.0400 178.0000 1.0000
13.0600 160.0000 1.0000
13.0800 164.0000 1.0000
13.1000 167.0000 1.0000
13.1200 184.0000 1.0000
13.1400 192.0000 1.0000
13.1600 198.0000 1.0000
13.1800 163.0000 1.0000
13.2000 184.0000 1.0000
13.2200 187.0000 1.0000
13.2400 191.0000 1.0000
13.2600 172.0000 1.0000
13.2800 176.0000 1.0000
13.3000 186.0000 1.0000
13.3200 197.0000 1.0000
13.3400 184.0000 1.0000
13.3600 197.0000 1.0000
13.3800 193.0000 1.0000
13.4000 225.0000 1.0000
13.4200 243.0000 1.0000
13.4400 230.0000 1.0000
13.4600 234.0000 1.0000
13.4800 230.0000 1.0000
13.5000 231.0000 1.0000
13.5200 244.0000 1.0000
13.5400 240.0000 1.0000
13.5600 230.0000 1.0000
13.5800 231.0000 1.0000
13.6000 230.0000 1.0000
13.6200 234.0000 1.0000
13.6400 250.0000 1.0000
13.6600 241.0000 1.0000
13.6800 260.0000 1.0000
13.7000 276.0000 1.0000
13.7200 229.0000 1.0000
13.7400 217.0000 1.0000
13.7600 223.0000 1.0000
13.7800 217.0000 1.0000
13.8000 199.0000 1.0000
13.8200 186.0000 1.0000
13.8400 185.0000 1.0000
13.8600 181.0000 1.0000
13.8800 159.0000 1.0000
13.9000 153.0000 1.0000
13.9200 152.0000 1.0000
13.9400 158.0000 1.0000
13.9600 153.0000 1.0000
13.9800 134.0000 1.0000
14.0000 136.0000 1.0000
14.0200 132.0000 1.0000
14.0400 137.0000 1.0000
14.0600 137.0000 1.0000
14.0800 124.0000 1.0000
14.1000 126.0000 1.0000
14.1200 138.0000 1.0000
14.1400 150.0000 1.0000
14.1600 145.0000 1.0000
14.1800 147.0000 1.0000
14.2000 149.0000 1.0000
14.2200 133.0000 1.0000
14.2400 149.0000 1.0000
14.2600 138.0000 1.0000
14.2800 136.0000 1.0000
14.3000 127.0000 1.0000
14.3200 120.0000 1.0000
14.3400 137.0000 1.0000
14.3600 150.0000 1.0000
14.3800 157.0000 1.0000
14.4000 153.0000 1.0000
14.4200 145.0000 1.0000
14.4400 145.0000 1.0000
14.4600 142.0000 1.0000
14.4800 138.0000 1.0000
14.5000 132.0000 1.0000
14.5200 130.0000 1.0000
14.5400 143.0000 1.0000
14.5600 148.0000 1.0000
14.5800 144.0000 1.0000
14.6000 155.0000 1.0000
14.6200 157.0000 1.0000
14.6400 153.0000 1.0000
14.6600 152.0000 1.0000
14.6800 156.0000 1.0000
14.7000 150.0000 1.0000
14.7200 136.0000 1.0000
14.7400 152.0000 1.0000
14.7600 161.0000 1.0000
14.7800 158.0000 1.0000
14.8000 159.0000 1.0000
14.8200 159.0000 1.0000
14.8400 155.0000 1.0000
14.8600 151.0000 1.0000
14.8800 159.0000 1.0000
14.9000 166.0000 1.0000
14.9200 172.0000 1.0000
14.9400 165.0000 1.0000
14.9600 149.0000 1.0000
14.9800 147.0000 1.0000
15.0000 154.0000 1.0000
15.0200 156.0000 1.0000
15.0400 158.0000 1.0000
15.0600 147.0000 1.0000
15.0800 132.0000 1.0000
15.1000 133.0000 1.0000
15.1200 132.0000 1.0000
15.1400 129.0000 1.0000
15.1600 121.0000 1.0000
15.1800 115.0000 1.0000
15.2000 119.0000 1.0000
15.2200 125.0000 1.0000
15.2400 138.0000 1.0000
15.2600 144.0000 1.0000
15.2800 140.0000 1.0000
15.3000 138.0000 1.0000
15.3200 128.0000 1.0000
15.3400 127.0000 1.0000
15.3600 127.0000 1.0000
15.3800 122.0000 1.0000
15.4000 140.0000 1.0000
15.4200 124.0000 1.0000
15.4400 116.0000 1.0000
15.4600 136.0000 1.0000
15.4800 125.0000 1.0000
15.5000 127.0000 1.0000
15.5200 141.0000 1.0000
15.5400 141.0000 1.0000
15.5600 143.0000 1.0000
15.5800 147.0000 1.0000
15.6000 139.0000 1.0000
15.6200 134.0000 1.0000
15.6400 142.0000 1.0000
15.6600 142.0000 1.0000
15.6800 142.0000 1.0000
15.7000 146.0000 1.0000
15.7200 145.0000 1.0000
15.7400 138.0000 1.0000
15.7600 125.0000 1.0000
15.7800 129.0000 1.0000
15.8000 130.0000 1.0000
15.8200 137.0000 1.0000
15.8400 137.0000 1.0000
15.8600 136.0000 1.0000
15.8800 121.0000 1.0000
15.9000 126.0000 1.0000
15.9200 124.0000 1.0000
15.9400 116.0000 1.0000
15.9600 129.0000 1.0000
15.9800 122.0000 1.0000
16.0000 122.0000 1.0000
16.0200 127.0000 1.0000
16.0400 126.0000 1.0000
16.0600 142.0000 1.0000
16.0800 122.0000 1.0000
16.1000 127.0000 1.0000
16.1200 150.0000 1.0000
16.1400 142.0000 1.0000
16.1600 130.0000 1.0000
16.1800 131.0000 1.0000
16.2000 128.0000 1.0000
16.2200 121.0000 1.0000
16.2400 140.0000 1.0000
16.2600 136.0000 1.0000
16.2800 140.0000 1.0000
16.3000 146.0000 1.0000
16.3200 139.0000 1.0000
16.3400 140.0000 1.0000
16.3600 125.0000 1.0000
16.3800 120.0000 1.0000
16.4000 118.0000 1.0000
16.4200 119.0000 1.0000
16.4400 121.0000 1.0000
16.4600 134.0000 1.0000
16.4800 133.0000 1.0000
16.5000 116.0000 1.0000
16.5200 122.0000 1.0000
16.5400 117.0000 1.0000
16.5600 128.0000 1.0000
16.5800 141.0000 1.0000
16.6000 130.0000 1.0000
16.6200 123.0000 1.0000
16.6400 137.0000 1.0000
16.6600 141.0000 1.0000
16.6800 129.0000 1.0000
16.7000 129.0000 1.0000
16.7200 129.0000 1.0000
16.7400 135.0000 1.0000
16.7600 133.0000 1.0000
16.7800 143.0000 1.0000
16.8000 152.0000 1.0000
16.8200 158.0000 1.0000
16.8400 127.0000 1.0000
16.8600 128.0000 1.0000
16.8800 131.0000 1.0000
16.9000 118.0000 1.0000
16.9200 130.0000 1.0000
16.9400 134.0000 1.0000
16.9600 136.0000 1.0000
16.9800 142.0000 1.0000
17.0000 129.0000 1.0000
17.0200 120.0000 1.0000
17.0400 137.0000 1.0000
17.0600 157.0000 1.0000
17.0800 143.0000 1.0000
17.1000 145.0000 1.0000
17.1200 154.0000 1.0000
17.1400 159.0000 1.0000
17.1600 156.0000 1.0000
17.1800 149.0000 1.0000
17.2000 150.0000 1.0000
17.2200 151.0000 1.0000
17.2400 149.0000 1.0000
17.2600 160.0000 1.0000
17.2800 163.0000 1.0000
17.3000 177.0000 1.0000
17.3200 177.0000 1.0000
17.3400 158.0000 1.0000
17.3600 165.0000 1.0000
17.3800 169.0000 1.0000
17.4000 167.0000 1.0000
17.4200 179.0000 1.0000
17.4400 188.0000 1.0000
17.4600 208.0000 1.0000
17.4800 203.0000 1.0000
17.5000 216.0000 1.0000
17.5200 202.0000 1.0000
17.5400 204.0000 1.0000
17.5600 192.0000 1.0000
17.5800 208.0000 1.0000
17.6000 229.0000 1.0000
17.6200 203.0000 1.0000
17.6400 198.0000 1.0000
17.6600 196.0000 1.0000
17.6800 200.0000 1.0000
17.7000 202.0000 1.0000
17.7200 200.0000 1.0000
17.7400 177.0000 1.0000
17.7600 187.0000 1.0000
17.7800 179.0000 1.0000
17.8000 174.0000 1.0000
17.8200 169.0000 1.0000
17.8400 152.0000 1.0000
17.8600 169.0000 1.0000
17.8800 165.0000 1.0000
17.9000 171.0000 1.0000
17.9200 160.0000 1.0000
17.9400 148.0000 1.0000
17.9600 129.0000 1.0000
17.9800 146.0000 1.0000
18.0000 152.0000 1.0000
18.0200 149.0000 1.0000
18.0400 155.0000 1.0000
18.0600 144.0000 1.0000
18.0800 141.0000 1.0000
18.1000 146.0000 1.0000
18.1200 153.0000 1.0000
18.1400 139.0000 1.0000
18.1600 128.0000 1.0000
18.1800 151.0000 1.0000
18.2000 144.0000 1.0000
18.2200 162.0000 1.0000
18.2400 168.0000 1.0000
18.2600 146.0000 1.0000
18.2800 142.0000 1.0000
18.3000 135.0000 1.0000
18.3200 144.0000 1.0000
18.3400 143.0000 1.0000
18.3600 151.0000 1.0000
18.3800 148.0000 1.0000
18.4000 159.0000 1.0000
18.4200 129.0000 1.0000
18.4400 136.0000 1.0000
18.4600 130.0000 1.0000
18.4800 157.0000 1.0000
18.5000 157.0000 1.0000
18.5200 154.0000 1.0000
18.5400 178.0000 1.0000
18.5600 200.0000 1.0000
18.5800 146.0000 1.0000
18.6000 169.0000 1.0000
18.6200 157.0000 1.0000
18.6400 177.0000 1.0000
18.6600 168.0000 1.0000
18.6800 182.0000 1.0000
18.7000 181.0000 1.0000
18.7200 174.0000 1.0000
18.7400 183.0000 1.0000
18.7600 181.0000 1.0000
18.7800 173.0000 1.0000
18.8000 199.0000 1.0000
18.8200 156.0000 1.0000
18.8400 141.0000 1.0000
18.8600 176.0000 1.0000
18.8800 183.0000 1.0000
18.9000 170.0000 1.0000
18.9200 164.0000 1.0000
18.9400 155.0000 1.0000
18.9600 163.0000 1.0000
18.9800 172.0000 1.0000
19.0000 174.0000 1.0000
19.0200 183.0000 1.0000
19.0400 177.0000 1.0000
19.0600 192.0000 1.0000
19.0800 179.0000 1.0000
19.1000 195.0000 1.0000
19.1200 209.0000 1.0000
19.1400 187.0000 1.0000
19.1600 220.0000 1.0000
19.1800 207.0000 1.0000
19.2000 196.0000 1.0000
19.2200 206.0000 1.0000
19.2400 207.0000 1.0000
19.2600 212.0000 1.0000
19.2800 195.0000 1.0000
19.3000 222.0000 1.0000
19.3200 209.0000 1.0000
19.3400 211.0000 1.0000
19.3600 221.0000 1.0000
19.3800 229.0000 1.0000
19.4000 220.0000 1.0000
19.4200 257.0000 1.0000
19.4400 299.0000 1.0000
19.4600 301.0000 1.0000
19.4800 319.0000 1.0000
19.5000 350.0000 1.0000
19.5200 367.0000 1.0000
19.5400 422.0000 1.0000
19.5600 426.0000 1.0000
19.5800 454.0000 1.0000
19.6000 465.0000 1.0000
19.6200 485.0000 1.0000
19.6400 502.0000 1.0000
19.6600 455.0000 1.0000
19.6800 442.0000 1.0000
19.7000 458.0000 1.0000
19.7200 433.0000 1.0000
19.7400 428.0000 1.0000
19.7600 436.0000 1.0000
19.7800 400.0000 1.0000
19.8000 378.0000 1.0000
19.8200 351.0000 1.0000
19.8400 353.0000 1.0000
19.8600 311.0000 1.0000
19.8800 336.0000 1.0000
19.9000 317.0000 1.0000
19.9200 311.0000 1.0000
19.9400 298.0000 1.0000
19.9600 315.0000 1.0000
19.9800 280.0000 1.0000
20.0000 289.0000 1.0000
20.0200 252.0000 1.0000
20.0400 272.0000 1.0000
20.0600 227.0000 1.0000
20.0800 273.0000 1.0000
20.1000 247.0000 1.0000
20.1200 274.0000 1.0000
20.1400 250.0000 1.0000
20.1600 270.0000 1.0000
20.1800 283.0000 1.0000
20.2000 307.0000 1.0000
20.2200 282.0000 1.0000
20.2400 271.0000 1.0000
20.2600 296.0000 1.0000
20.2800 281.0000 1.0000
20.3000 309.0000 1.0000
20.3200 336.0000 1.0000
20.3400 341.0000 1.0000
20.3600 341.0000 1.0000
20.3800 343.0000 1.0000
20.4000 321.0000 1.0000
20.4200 398.0000 1.0000
20.4400 402.0000 1.0000
20.4600 406.0000 1.0000
20.4800 483.0000 1.0000
20.5000 520.0000 1.0000
20.5200 600.0000 1.0000
20.5400 695.0000 1.0000
20.5600 836.0000 1.0000
20.5800 996.0000 1.0000
20.6000 1189.0000 1.0000
20.6200 1441.0000 1.0000
20.6400 1586.0000 1.0000
20.6600 1918.0000 1.0000
20.6800 1986.0000 1.0000
20.7000 2046.0000 1.0000
20.7200 2076.0000 1.0000
20.7400 1851.0000 1.0000
20.7600 1640.0000 1.0000
20.7800 1318.0000 1.0000
20.8000 992.0000 1.0000
20.8200 765.0000 1.0000
20.8400 569.0000 1.0000
20.8600 514.0000 1.0000
20.8800 426.0000 1.0000
20.9000 389.0000 1.0000
20.9200 356.0000 1.0000
20.9400 322.0000 1.0000
20.9600 308.0000 1.0000
20.9800 290.0000 1.0000
21.0000 322.0000 1.0000
21.0200 284.0000 1.0000
21.0400 237.0000 1.0000
21.0600 256.0000 1.0000
21.0800 237.0000 1.0000
21.1000 248.0000 1.0000
21.1200 246.0000 1.0000
21.1400 224.0000 1.0000
21.1600 230.0000 1.0000
21.1800 246.0000 1.0000
21.2000 239.0000 1.0000
21.2200 240.0000 1.0000
21.2400 232.0000 1.0000
21.2600 213.0000 1.0000
21.2800 220.0000 1.0000
21.3000 218.0000 1.0000
21.3200 229.0000 1.0000
21.3400 205.0000 1.0000
21.3600 229.0000 1.0000
21.3800 228.0000 1.0000
21.4000 193.0000 1.0000
21.4200 220.0000 1.0000
21.4400 206.0000 1.0000
21.4600 208.0000 1.0000
21.4800 216.0000 1.0000
21.5000 213.0000 1.0000
21.5200 214.0000 1.0000
21.5400 216.0000 1.0000
21.5600 215.0000 1.0000
21.5800 240.0000 1.0000
21.6000 239.0000 1.0000
21.6200 244.0000 1.0000
21.6400 273.0000 1.0000
21.6600 270.0000 1.0000
21.6800 308.0000 1.0000
21.7000 339.0000 1.0000
21.7200 352.0000 1.0000
21.7400 394.0000 1.0000
21.7600 434.0000 1.0000
21.7800 470.0000 1.0000
21.8000 518.0000 1.0000
21.8200 566.0000 1.0000
21.8400 567.0000 1.0000
21.8600 586.0000 1.0000
21.8800 513.0000 1.0000
21.9000 473.0000 1.0000
21.9200 403.0000 1.0000
21.9400 400.0000 1.0000
21.9600 349.0000 1.0000
21.9800 308.0000 1.0000
22.0000 264.0000 1.0000
22.0200 236.0000 1.0000
22.0400 210.0000 1.0000
22.0600 186.0000 1.0000
22.0800 203.0000 1.0000
22.1000 217.0000 1.0000
22.1200 206.0000 1.0000
22.1400 188.0000 1.0000
22.1600 197.0000 1.0000
22.1800 189.0000 1.0000
22.2000 179.0000 1.0000
22.2200 197.0000 1.0000
22.2400 192.0000 1.0000
22.2600 187.0000 1.0000
22.2800 196.0000 1.0000
22.3000 188.0000 1.0000
22.3200 209.0000 1.0000
22.3400 163.0000 1.0000
22.3600 187.0000 1.0000
22.3800 208.0000 1.0000
22.4000 223.0000 1.0000
22.4200 197.0000 1.0000
22.4400 209.0000 1.0000
22.4600 203.0000 1.0000
22.4800 228.0000 1.0000
22.5000 247.0000 1.0000
22.5200 240.0000 1.0000
22.5400 223.0000 1.0000
22.5600 219.0000 1.0000
22.5800 247.0000 1.0000
22.6000 208.0000 1.0000
22.6200 210.0000 1.0000
22.6400 226.0000 1.0000
22.6600 259.0000 1.0000
22.6800 248.0000 1.0000
22.7000 217.0000 1.0000
22.7200 240.0000 1.0000
22.7400 242.0000 1.0000
22.7600 249.0000 1.0000
22.7800 264.0000 1.0000
22.8000 270.0000 1.0000
22.8200 263.0000 1.0000
22.8400 252.0000 1.0000
22.8600 245.0000 1.0000
22.8800 249.0000 1.0000
22.9000 250.0000 1.0000
22.9200 257.0000 1.0000
22.9400 246.0000 1.0000
22.9600 218.0000 1.0000
22.9800 220.0000 1.0000
23.0000 205.0000 1.0000
23.0200 213.0000 1.0000
23.0400 223.0000 1.0000
23.0600 188.0000 1.0000
23.0800 200.0000 1.0000
23.1000 206.0000 1.0000
23.1200 208.0000 1.0000
23.1400 209.0000 1.0000
23.1600 238.0000 1.0000
23.1800 226.0000 1.0000
23.2000 260.0000 1.0000
23.2200 284.0000 1.0000
23.2400 271.0000 1.0000
23.2600 305.0000 1.0000
23.2800 336.0000 1.0000
23.3000 356.0000 1.0000
23.3200 384.0000 1.0000
23.3400 425.0000 1.0000
23.3600 452.0000 1.0000
23.3800 448.0000 1.0000
23.4000 508.0000 1.0000
23.4200 500.0000 1.0000
23.4400 510.0000 1.0000
23.4600 505.0000 1.0000
23.4800 494.0000 1.0000
23.5000 465.0000 1.0000
23.5200 452.0000 1.0000
23.5400 417.0000 1.0000
23.5600 378.0000 1.0000
23.5800 358.0000 1.0000
23.6000 334.0000 1.0000
23.6200 309.0000 1.0000
23.6400 306.0000 1.0000
23.6600 301.0000 1.0000
23.6800 284.0000 1.0000
23.7000 273.0000 1.0000
23.7200 279.0000 1.0000
23.7400 267.0000 1.0000
23.7600 249.0000 1.0000
23.7800 250.0000 1.0000
23.8000 254.0000 1.0000
23.8200 255.0000 1.0000
23.8400 276.0000 1.0000
23.8600 258.0000 1.0000
23.8800 289.0000 1.0000
23.9000 317.0000 1.0000
23.9200 297.0000 1.0000
23.9400 321.0000 1.0000
23.9600 344.0000 1.0000
23.9800 380.0000 1.0000
24.0000 375.0000 1.0000
24.0200 404.0000 1.0000
24.0400 426.0000 1.0000
24.0600 420.0000 1.0000
24.0800 427.0000 1.0000
24.1000 402.0000 1.0000
24.1200 424.0000 1.0000
24.1400 436.0000 1.0000
24.1600 395.0000 1.0000
24.1800 395.0000 1.0000
24.2000 390.0000 1.0000
24.2200 363.0000 1.0000
24.2400 357.0000 1.0000
24.2600 370.0000 1.0000
24.2800 361.0000 1.0000
24.3000 331.0000 1.0000
24.3200 330.0000 1.0000
24.3400 324.0000 1.0000
24.3600 321.0000 1.0000
24.3800 309.0000 1.0000
24.4000 293.0000 1.0000
24.4200 275.0000 1.0000
24.4400 258.0000 1.0000
24.4600 252.0000 1.0000
24.4800 255.0000 1.0000
24.5000 241.0000 1.0000
24.5200 226.0000 1.0000
24.5400 244.0000 1.0000
24.5600 242.0000 1.0000
24.5800 239.0000 1.0000
24.6000 233.0000 1.0000
24.6200 220.0000 1.0000
24.6400 215.0000 1.0000
24.6600 214.0000 1.0000
24.6800 230.0000 1.0000
24.7000 210.0000 1.0000
24.7200 208.0000 1.0000
24.7400 240.0000 1.0000
24.7600 242.0000 1.0000
24.7800 231.0000 1.0000
24.8000 257.0000 1.0000
24.8200 249.0000 1.0000
24.8400 231.0000 1.0000
24.8600 239.0000 1.0000
24.8800 293.0000 1.0000
24.9000 270.0000 1.0000
24.9200 301.0000 1.0000
24.9400 299.0000 1.0000
24.9600 310.0000 1.0000
24.9800 315.0000 1.0000
25.0000 331.0000 1.0000
25.0200 361.0000 1.0000
25.0400 349.0000 1.0000
25.0600 382.0000 1.0000
25.0800 409.0000 1.0000
25.1000 387.0000 1.0000
25.1200 411.0000 1.0000
25.1400 410.0000 1.0000
25.1600 415.0000 1.0000
25.1800 436.0000 1.0000
25.2000 475.0000 1.0000
25.2200 483.0000 1.0000
25.2400 545.0000 1.0000
25.2600 575.0000 1.0000
25.2800 668.0000 1.0000
25.3000 764.0000 1.0000
25.3200 849.0000 1.0000
25.3400 980.0000 1.0000
25.3600 1149.0000 1.0000
25.3800 1217.0000 1.0000
25.4000 1308.0000 1.0000
25.4200 1371.0000 1.0000
25.4400 1300.0000 1.0000
25.4600 1248.0000 1.0000
25.4800 1128.0000 1.0000
25.5000 947.0000 1.0000
25.5200 810.0000 1.0000
25.5400 653.0000 1.0000
25.5600 540.0000 1.0000
25.5800 532.0000 1.0000
25.6000 496.0000 1.0000
25.6200 409.0000 1.0000
25.6400 355.0000 1.0000
25.6600 377.0000 1.0000
25.6800 395.0000 1.0000
25.7000 351.0000 1.0000
25.7200 319.0000 1.0000
25.7400 316.0000 1.0000
25.7600 316.0000 1.0000
25.7800 315.0000 1.0000
25.8000 314.0000 1.0000
25.8200 324.0000 1.0000
25.8400 346.0000 1.0000
25.8600 339.0000 1.0000
25.8800 323.0000 1.0000
25.9000 348.0000 1.0000
25.9200 376.0000 1.0000
25.9400 375.0000 1.0000
25.9600 394.0000 1.0000
25.9800 421.0000 1.0000
26.0000 464.0000 1.0000
26.0200 487.0000 1.0000
26.0400 490.0000 1.0000
26.0600 517.0000 1.0000
26.0800 553.0000 1.0000
26.1000 609.0000 1.0000
26.1200 656.0000 1.0000
26.1400 729.0000 1.0000
26.1600 797.0000 1.0000
26.1800 891.0000 1.0000
26.2000 991.0000 1.0000
26.2200 1128.0000 1.0000
26.2400 1318.0000 1.0000
26.2600 1557.0000 1.0000
26.2800 1831.0000 1.0000
26.3000 2197.0000 1.0000
26.3200 2620.0000 1.0000
26.3400 3289.0000 1.0000
26.3600 4213.0000 1.0000
26.3800 5191.0000 1.0000
26.4000 6364.0000 1.0000
26.4200 7708.0000 1.0000
26.4400 8870.0000 1.0000
26.4600 9802.0000 1.0000
26.4800 10290.0000 1.0000
26.5000 10128.0000 1.0000
26.5200 9285.0000 1.0000
26.5400 7928.0000 1.0000
26.5600 6320.0000 1.0000
26.5800 4842.0000 1.0000
26.6000 3623.0000 1.0000
26.6200 2639.0000 1.0000
26.6400 1831.0000 1.0000
26.6600 1368.0000 1.0000
26.6800 1143.0000 1.0000
26.7000 982.0000 1.0000
26.7200 914.0000 1.0000
26.7400 853.0000 1.0000
26.7600 804.0000 1.0000
26.7800 759.0000 1.0000
26.8000 719.0000 1.0000
26.8200 688.0000 1.0000
26.8400 665.0000 1.0000
26.8600 605.0000 1.0000
26.8800 573.0000 1.0000
26.9000 600.0000 1.0000
26.9200 595.0000 1.0000
26.9400 531.0000 1.0000
26.9600 500.0000 1.0000
26.9800 499.0000 1.0000
27.0000 480.0000 1.0000
27.0200 459.0000 1.0000
27.0400 435.0000 1.0000
27.0600 436.0000 1.0000
27.0800 423.0000 1.0000
27.1000 401.0000 1.0000
27.1200 403.0000 1.0000
27.1400 398.0000 1.0000
27.1600 407.0000 1.0000
27.1800 420.0000 1.0000
27.2000 437.0000 1.0000
27.2200 465.0000 1.0000
27.2400 502.0000 1.0000
27.2600 524.0000 1.0000
27.2800 557.0000 1.0000
27.3000 603.0000 1.0000
27.3200 631.0000 1.0000
27.3400 647.0000 1.0000
27.3600 658.0000 1.0000
27.3800 687.0000 1.0000
27.4000 719.0000 1.0000
27.4200 734.0000 1.0000
27.4400 733.0000 1.0000
27.4600 730.0000 1.0000
27.4800 769.0000 1.0000
27.5000 818.0000 1.0000
27.5200 842.0000 1.0000
27.5400 902.0000 1.0000
27.5600 968.0000 1.0000
27.5800 1050.0000 1.0000
27.6000 1095.0000 1.0000
27.6200 1068.0000 1.0000
27.6400 1089.0000 1.0000
27.6600 1165.0000 1.0000
27.6800 1208.0000 1.0000
27.7000 1252.0000 1.0000
27.7200 1259.0000 1.0000
27.7400 1235.0000 1.0000
27.7600 1277.0000 1.0000
27.7800 1280.0000 1.0000
27.8000 1254.0000 1.0000
27.8200 1235.0000 1.0000
27.8400 1232.0000 1.0000
27.8600 1194.0000 1.0000
27.8800 1102.0000 1.0000
27.9000 1018.0000 1.0000
27.9200 923.0000 1.0000
27.9400 792.0000 1.0000
27.9600 673.0000 1.0000
27.9800 617.0000 1.0000
28.0000 573.0000 1.0000
28.0200 527.0000 1.0000
28.0400 497.0000 1.0000
28.0600 461.0000 1.0000
28.0800 441.0000 1.0000
28.1000 425.0000 1.0000
28.1200 402.0000 1.0000
28.1400 373.0000 1.0000
28.1600 359.0000 1.0000
28.1800 346.0000 1.0000
28.2000 324.0000 1.0000
28.2200 329.0000 1.0000
28.2400 350.0000 1.0000
28.2600 324.0000 1.0000
28.2800 314.0000 1.0000
28.3000 325.0000 1.0000
28.3200 279.0000 1.0000
28.3400 262.0000 1.0000
28.3600 252.0000 1.0000
28.3800 254.0000 1.0000
28.4000 254.0000 1.0000
28.4200 244.0000 1.0000
28.4400 217.0000 1.0000
28.4600 207.0000 1.0000
28.4800 208.0000 1.0000
28.5000 184.0000 1.0000
28.5200 181.0000 1.0000
28.5400 184.0000 1.0000
28.5600 185.0000 1.0000
28.5800 188.0000 1.0000
28.6000 185.0000 1.0000
28.6200 199.0000 1.0000
28.6400 214.0000 1.0000
28.6600 209.0000 1.0000
28.6800 202.0000 1.0000
28.7000 214.0000 1.0000
28.7200 224.0000 1.0000
28.7400 215.0000 1.0000
28.7600 211.0000 1.0000
28.7800 221.0000 1.0000
28.8000 216.0000 1.0000
28.8200 206.0000 1.0000
28.8400 216.0000 1.0000
28.8600 211.0000 1.0000
28.8800 223.0000 1.0000
28.9000 238.0000 1.0000
28.9200 230.0000 1.0000
28.9400 228.0000 1.0000
28.9600 225.0000 1.0000
28.9800 228.0000 1.0000
29.0000 233.0000 1.0000
29.0200 235.0000 1.0000
29.0400 246.0000 1.0000
29.0600 249.0000 1.0000
29.0800 243.0000 1.0000
29.1000 250.0000 1.0000
29.1200 249.0000 1.0000
29.1400 253.0000 1.0000
29.1600 259.0000 1.0000
29.1800 284.0000 1.0000
29.2000 316.0000 1.0000
29.2200 316.0000 1.0000
29.2400 325.0000 1.0000
29.2600 350.0000 1.0000
29.2800 360.0000 1.0000
29.3000 371.0000 1.0000
29.3200 382.0000 1.0000
29.3400 375.0000 1.0000
29.3600 371.0000 1.0000
29.3800 373.0000 1.0000
29.4000 396.0000 1.0000
29.4200 389.0000 1.0000
29.4400 385.0000 1.0000
29.4600 401.0000 1.0000
29.4800 425.0000 1.0000
29.5000 434.0000 1.0000
29.5200 445.0000 1.0000
29.5400 468.0000 1.0000
29.5600 489.0000 1.0000
29.5800 511.0000 1.0000
29.6000 526.0000 1.0000
29.6200 518.0000 1.0000
29.6400 473.0000 1.0000
29.6600 475.0000 1.0000
29.6800 488.0000 1.0000
29.7000 502.0000 1.0000
29.7200 449.0000 1.0000
29.7400 433.0000 1.0000
29.7600 428.0000 1.0000
29.7800 407.0000 1.0000
29.8000 378.0000 1.0000
29.8200 369.0000 1.0000
29.8400 360.0000 1.0000
29.8600 347.0000 1.0000
29.8800 345.0000 1.0000
29.9000 327.0000 1.0000
29.9200 345.0000 1.0000
29.9400 352.0000 1.0000
29.9600 350.0000 1.0000
29.9800 369.0000 1.0000
30.0000 359.0000 1.0000
30.0200 368.0000 1.0000
30.0400 371.0000 1.0000
30.0600 379.0000 1.0000
30.0800 393.0000 1.0000
30.1000 396.0000 1.0000
30.1200 410.0000 1.0000
30.1400 396.0000 1.0000
30.1600 433.0000 1.0000
30.1800 432.0000 1.0000
30.2000 407.0000 1.0000
30.2200 395.0000 1.0000
30.2400 396.0000 1.0000
30.2600 433.0000 1.0000
30.2800 449.0000 1.0000
30.3000 406.0000 1.0000
30.3200 401.0000 1.0000
30.3400 387.0000 1.0000
30.3600 395.0000 1.0000
30.3800 377.0000 1.0000
30.4000 340.0000 1.0000
30.4200 328.0000 1.0000
30.4400 329.0000 1.0000
30.4600 323.0000 1.0000
30.4800 304.0000 1.0000
30.5000 304.0000 1.0000
30.5200 289.0000 1.0000
30.5400 311.0000 1.0000
30.5600 341.0000 1.0000
30.5800 368.0000 1.0000
30.6000 350.0000 1.0000
30.6200 348.0000 1.0000
30.6400 371.0000 1.0000
30.6600 367.0000 1.0000
30.6800 339.0000 1.0000
30.7000 335.0000 1.0000
30.7200 349.0000 1.0000
30.7400 331.0000 1.0000
30.7600 282.0000 1.0000
30.7800 299.0000 1.0000
30.8000 275.0000 1.0000
30.8200 250.0000 1.0000
30.8400 259.0000 1.0000
30.8600 246.0000 1.0000
30.8800 245.0000 1.0000
30.9000 222.0000 1.0000
30.9200 210.0000 1.0000
30.9400 217.0000 1.0000
30.9600 199.0000 1.0000
30.9800 210.0000 1.0000
31.0000 201.0000 1.0000
31.0200 199.0000 1.0000
31.0400 210.0000 1.0000
31.0600 216.0000 1.0000
31.0800 240.0000 1.0000
31.1000 252.0000 1.0000
31.1200 216.0000 1.0000
31.1400 232.0000 1.0000
31.1600 236.0000 1.0000
31.1800 215.0000 1.0000
31.2000 222.0000 1.0000
31.2200 245.0000 1.0000
31.2400 235.0000 1.0000
31.2600 225.0000 1.0000
31.2800 214.0000 1.0000
31.3000 228.0000 1.0000
31.3200 227.0000 1.0000
31.3400 239.0000 1.0000
31.3600 243.0000 1.0000
31.3800 237.0000 1.0000
31.4000 234.0000 1.0000
31.4200 222.0000 1.0000
31.4400 210.0000 1.0000
31.4600 199.0000 1.0000
31.4800 193.0000 1.0000
31.5000 196.0000 1.0000
31.5200 183.0000 1.0000
31.5400 178.0000 1.0000
31.5600 203.0000 1.0000
31.5800 192.0000 1.0000
31.6000 177.0000 1.0000
31.6200 202.0000 1.0000
31.6400 197.0000 1.0000
31.6600 176.0000 1.0000
31.6800 178.0000 1.0000
31.7000 174.0000 1.0000
31.7200 162.0000 1.0000
31.7400 168.0000 1.0000
31.7600 161.0000 1.0000
31.7800 168.0000 1.0000
31.8000 172.0000 1.0000
31.8200 167.0000 1.0000
31.8400 173.0000 1.0000
31.8600 169.0000 1.0000
31.8800 134.0000 1.0000
31.9000 179.0000 1.0000
31.9200 150.0000 1.0000
31.9400 151.0000 1.0000
31.9600 166.0000 1.0000
31.9800 149.0000 1.0000
32.0000 133.0000 1.0000
32.0200 160.0000 1.0000
32.0400 154.0000 1.0000
32.0600 159.0000 1.0000
32.0800 151.0000 1.0000
32.1000 146.0000 1.0000
32.1200 168.0000 1.0000
32.1400 142.0000 1.0000
32.1600 156.0000 1.0000
32.1800 163.0000 1.0000
32.2000 160.0000 1.0000
32.2200 148.0000 1.0000
32.2400 151.0000 1.0000
32.2600 170.0000 1.0000
32.2800 146.0000 1.0000
32.3000 159.0000 1.0000
32.3200 157.0000 1.0000
32.3400 147.0000 1.0000
32.3600 138.0000 1.0000
32.3800 156.0000 1.0000
32.4000 150.0000 1.0000
32.4200 138.0000 1.0000
32.4400 138.0000 1.0000
32.4600 149.0000 1.0000
32.4800 167.0000 1.0000
32.5000 164.0000 1.0000
32.5200 164.0000 1.0000
32.5400 155.0000 1.0000
32.5600 138.0000 1.0000
32.5800 163.0000 1.0000
32.6000 142.0000 1.0000
32.6200 121.0000 1.0000
32.6400 122.0000 1.0000
32.6600 126.0000 1.0000
32.6800 136.0000 1.0000
32.7000 138.0000 1.0000
32.7200 141.0000 1.0000
32.7400 139.0000 1.0000
32.7600 132.0000 1.0000
32.7800 124.0000 1.0000
32.8000 116.0000 1.0000
32.8200 117.0000 1.0000
32.8400 118.0000 1.0000
32.8600 122.0000 1.0000
32.8800 127.0000 1.0000
32.9000 138.0000 1.0000
32.9200 143.0000 1.0000
32.9400 148.0000 1.0000
32.9600 113.0000 1.0000
32.9800 151.0000 1.0000
33.0000 131.0000 1.0000
33.0200 120.0000 1.0000
33.0400 141.0000 1.0000
33.0600 128.0000 1.0000
33.0800 129.0000 1.0000
33.1000 130.0000 1.0000
33.1200 141.0000 1.0000
33.1400 144.0000 1.0000
33.1600 145.0000 1.0000
33.1800 123.0000 1.0000
33.2000 131.0000 1.0000
33.2200 130.0000 1.0000
33.2400 145.0000 1.0000
33.2600 127.0000 1.0000
33.2800 155.0000 1.0000
33.3000 121.0000 1.0000
33.3200 151.0000 1.0000
33.3400 147.0000 1.0000
33.3600 147.0000 1.0000
33.3800 150.0000 1.0000
33.4000 157.0000 1.0000
33.4200 151.0000 1.0000
33.4400 147.0000 1.0000
33.4600 172.0000 1.0000
33.4800 173.0000 1.0000
33.5000 172.0000 1.0000
33.5200 150.0000 1.0000
33.5400 183.0000 1.0000
33.5600 190.0000 1.0000
33.5800 197.0000 1.0000
33.6000 189.0000 1.0000
33.6200 184.0000 1.0000
33.6400 186.0000 1.0000
33.6600 185.0000 1.0000
33.6800 176.0000 1.0000
33.7000 177.0000 1.0000
33.7200 195.0000 1.0000
33.7400 154.0000 1.0000
33.7600 173.0000 1.0000
33.7800 165.0000 1.0000
33.8000 158.0000 1.0000
33.8200 179.0000 1.0000
33.8400 169.0000 1.0000
33.8600 152.0000 1.0000
33.8800 189.0000 1.0000
33.9000 161.0000 1.0000
33.9200 186.0000 1.0000
33.9400 157.0000 1.0000
33.9600 151.0000 1.0000
33.9800 150.0000 1.0000
34.0000 161.0000 1.0000
34.0200 165.0000 1.0000
34.0400 185.0000 1.0000
34.0600 161.0000 1.0000
34.0800 193.0000 1.0000
34.1000 173.0000 1.0000
34.1200 187.0000 1.0000
34.1400 190.0000 1.0000
34.1600 225.0000 1.0000
34.1800 185.0000 1.0000
34.2000 239.0000 1.0000
34.2200 225.0000 1.0000
34.2400 233.0000 1.0000
34.2600 252.0000 1.0000
34.2800 261.0000 1.0000
34.3000 296.0000 1.0000
34.3200 265.0000 1.0000
34.3400 268.0000 1.0000
34.3600 303.0000 1.0000
34.3800 316.0000 1.0000
34.4000 299.0000 1.0000
34.4200 310.0000 1.0000
34.4400 353.0000 1.0000
34.4600 329.0000 1.0000
34.4800 383.0000 1.0000
34.5000 371.0000 1.0000
34.5200 406.0000 1.0000
34.5400 403.0000 1.0000
34.5600 434.0000 1.0000
34.5800 370.0000 1.0000
34.6000 507.0000 1.0000
34.6200 475.0000 1.0000
34.6400 473.0000 1.0000
34.6600 524.0000 1.0000
34.6800 508.0000 1.0000
34.7000 534.0000 1.0000
34.7200 545.0000 1.0000
34.7400 607.0000 1.0000
34.7600 605.0000 1.0000
34.7800 670.0000 1.0000
34.8000 670.0000 1.0000
34.8200 696.0000 1.0000
34.8400 781.0000 1.0000
34.8600 929.0000 1.0000
34.8800 1008.0000 1.0000
34.9000 1105.0000 1.0000
34.9200 1309.0000 1.0000
34.9400 1543.0000 1.0000
34.9600 1713.0000 1.0000
34.9800 1890.0000 1.0000
35.0000 1899.0000 1.0000
35.0200 1860.0000 1.0000
35.0400 1790.0000 1.0000
35.0600 1578.0000 1.0000
35.0800 1316.0000 1.0000
35.1000 1123.0000 1.0000
35.1200 1018.0000 1.0000
35.1400 842.0000 1.0000
35.1600 707.0000 1.0000
35.1800 552.0000 1.0000
35.2000 532.0000 1.0000
35.2200 445.0000 1.0000
35.2400 505.0000 1.0000
35.2600 452.0000 1.0000
35.2800 468.0000 1.0000
35.3000 423.0000 1.0000
35.3200 447.0000 1.0000
35.3400 427.0000 1.0000
35.3600 448.0000 1.0000
35.3800 429.0000 1.0000
35.4000 455.0000 1.0000
35.4200 472.0000 1.0000
35.4400 462.0000 1.0000
35.4600 460.0000 1.0000
35.4800 409.0000 1.0000
35.5000 398.0000 1.0000
35.5200 411.0000 1.0000
35.5400 383.0000 1.0000
35.5600 373.0000 1.0000
35.5800 387.0000 1.0000
35.6000 324.0000 1.0000
35.6200 319.0000 1.0000
35.6400 330.0000 1.0000
35.6600 343.0000 1.0000
35.6800 294.0000 1.0000
35.7000 292.0000 1.0000
35.7200 293.0000 1.0000
35.7400 295.0000 1.0000
35.7600 293.0000 1.0000
35.7800 243.0000 1.0000
35.8000 251.0000 1.0000
35.8200 268.0000 1.0000
35.8400 244.0000 1.0000
35.8600 227.0000 1.0000
35.8800 248.0000 1.0000
35.9000 245.0000 1.0000
35.9200 240.0000 1.0000
35.9400 264.0000 1.0000
35.9600 260.0000 1.0000
35.9800 287.0000 1.0000
36.0000 265.0000 1.0000
36.0200 266.0000 1.0000
36.0400 239.0000 1.0000
36.0600 254.0000 1.0000
36.0800 243.0000 1.0000
36.1000 293.0000 1.0000
36.1200 291.0000 1.0000
36.1400 285.0000 1.0000
36.1600 325.0000 1.0000
36.1800 317.0000 1.0000
36.2000 320.0000 1.0000
36.2200 349.0000 1.0000
36.2400 383.0000 1.0000
36.2600 405.0000 1.0000
36.2800 524.0000 1.0000
36.3000 628.0000 1.0000
36.3200 681.0000 1.0000
36.3400 754.0000 1.0000
36.3600 836.0000 1.0000
36.3800 848.0000 1.0000
36.4000 887.0000 1.0000
36.4200 856.0000 1.0000
36.4400 849.0000 1.0000
36.4600 764.0000 1.0000
36.4800 698.0000 1.0000
36.5000 607.0000 1.0000
36.5200 554.0000 1.0000
36.5400 477.0000 1.0000
36.5600 427.0000 1.0000
36.5800 348.0000 1.0000
36.6000 305.0000 1.0000
36.6200 307.0000 1.0000
36.6400 285.0000 1.0000
36.6600 269.0000 1.0000
36.6800 254.0000 1.0000
36.7000 235.0000 1.0000
36.7200 266.0000 1.0000
36.7400 237.0000 1.0000
36.7600 241.0000 1.0000
36.7800 222.0000 1.0000
36.8000 242.0000 1.0000
36.8200 246.0000 1.0000
36.8400 253.0000 1.0000
36.8600 251.0000 1.0000
36.8800 249.0000 1.0000
36.9000 229.0000 1.0000
36.9200 232.0000 1.0000
36.9400 258.0000 1.0000
36.9600 233.0000 1.0000
36.9800 242.0000 1.0000
37.0000 256.0000 1.0000
37.0200 231.0000 1.0000
37.0400 215.0000 1.0000
37.0600 234.0000 1.0000
37.0800 221.0000 1.0000
37.1000 236.0000 1.0000
37.1200 222.0000 1.0000
37.1400 238.0000 1.0000
37.1600 232.0000 1.0000
37.1800 212.0000 1.0000
37.2000 221.0000 1.0000
37.2200 269.0000 1.0000
37.2400 240.0000 1.0000
37.2600 232.0000 1.0000
37.2800 245.0000 1.0000
37.3000 253.0000 1.0000
37.3200 268.0000 1.0000
37.3400 256.0000 1.0000
37.3600 265.0000 1.0000
37.3800 265.0000 1.0000
37.4000 294.0000 1.0000
37.4200 315.0000 1.0000
37.4400 302.0000 1.0000
37.4600 363.0000 1.0000
37.4800 368.0000 1.0000
37.5000 420.0000 1.0000
37.5200 501.0000 1.0000
37.5400 570.0000 1.0000
37.5600 669.0000 1.0000
37.5800 755.0000 1.0000
37.6000 785.0000 1.0000
37.6200 814.0000 1.0000
37.6400 856.0000 1.0000
37.6600 780.0000 1.0000
37.6800 683.0000 1.0000
37.7000 649.0000 1.0000
37.7200 567.0000 1.0000
37.7400 492.0000 1.0000
37.7600 411.0000 1.0000
37.7800 346.0000 1.0000
37.8000 279.0000 1.0000
37.8200 224.0000 1.0000
37.8400 190.0000 1.0000
37.8600 203.0000 1.0000
37.8800 202.0000 1.0000
37.9000 182.0000 1.0000
37.9200 171.0000 1.0000
37.9400 181.0000 1.0000
37.9600 184.0000 1.0000
37.9800 179.0000 1.0000
38.0000 172.0000 1.0000
38.0200 153.0000 1.0000
38.0400 161.0000 1.0000
38.0600 168.0000 1.0000
38.0800 160.0000 1.0000
38.1000 152.0000 1.0000
38.1200 158.0000 1.0000
38.1400 150.0000 1.0000
38.1600 156.0000 1.0000
38.1800 130.0000 1.0000
38.2000 112.0000 1.0000
38.2200 133.0000 1.0000
38.2400 142.0000 1.0000
38.2600 153.0000 1.0000
38.2800 138.0000 1.0000
38.3000 127.0000 1.0000
38.3200 118.0000 1.0000
38.3400 131.0000 1.0000
38.3600 131.0000 1.0000
38.3800 138.0000 1.0000
38.4000 125.0000 1.0000
38.4200 109.0000 1.0000
38.4400 133.0000 1.0000
38.4600 132.0000 1.0000
38.4800 139.0000 1.0000
38.5000 132.0000 1.0000
38.5200 127.0000 1.0000
38.5400 139.0000 1.0000
38.5600 145.0000 1.0000
38.5800 146.0000 1.0000
38.6000 145.0000 1.0000
38.6200 143.0000 1.0000
38.6400 133.0000 1.0000
38.6600 136.0000 1.0000
38.6800 146.0000 1.0000
38.7000 143.0000 1.0000
38.7200 140.0000 1.0000
38.7400 154.0000 1.0000
38.7600 167.0000 1.0000
38.7800 171.0000 1.0000
38.8000 153.0000 1.0000
38.8200 143.0000 1.0000
38.8400 163.0000 1.0000
38.8600 164.0000 1.0000
38.8800 151.0000 1.0000
38.9000 151.0000 1.0000
38.9200 160.0000 1.0000
38.9400 148.0000 1.0000
38.9600 156.0000 1.0000
38.9800 172.0000 1.0000
39.0000 183.0000 1.0000
39.0200 186.0000 1.0000
39.0400 164.0000 1.0000
39.0600 180.0000 1.0000
39.0800 195.0000 1.0000
39.1000 211.0000 1.0000
39.1200 227.0000 1.0000
39.1400 247.0000 1.0000
39.1600 273.0000 1.0000
39.1800 306.0000 1.0000
39.2000 348.0000 1.0000
39.2200 434.0000 1.0000
39.2400 531.0000 1.0000
39.2600 638.0000 1.0000
39.2800 692.0000 1.0000
39.3000 764.0000 1.0000
39.3200 771.0000 1.0000
39.3400 714.0000 1.0000
39.3600 665.0000 1.0000
39.3800 626.0000 1.0000
39.4000 568.0000 1.0000
39.4200 517.0000 1.0000
39.4400 459.0000 1.0000
39.4600 388.0000 1.0000
39.4800 318.0000 1.0000
39.5000 272.0000 1.0000
39.5200 230.0000 1.0000
39.5400 204.0000 1.0000
39.5600 192.0000 1.0000
39.5800 185.0000 1.0000
39.6000 184.0000 1.0000
39.6200 164.0000 1.0000
39.6400 163.0000 1.0000
39.6600 181.0000 1.0000
39.6800 176.0000 1.0000
39.7000 172.0000 1.0000
39.7200 173.0000 1.0000
39.7400 165.0000 1.0000
39.7600 156.0000 1.0000
39.7800 162.0000 1.0000
39.8000 166.0000 1.0000
39.8200 169.0000 1.0000
39.8400 164.0000 1.0000
39.8600 164.0000 1.0000
39.8800 182.0000 1.0000
39.9000 190.0000 1.0000
39.9200 181.0000 1.0000
39.9400 200.0000 1.0000
39.9600 211.0000 1.0000
39.9800 207.0000 1.0000
40.0000 231.0000 1.0000
40.0200 243.0000 1.0000
40.0400 277.0000 1.0000
40.0600 343.0000 1.0000
40.0800 371.0000 1.0000
40.1000 383.0000 1.0000
40.1200 420.0000 1.0000
40.1400 437.0000 1.0000
40.1600 430.0000 1.0000
40.1800 416.0000 1.0000
40.2000 405.0000 1.0000
40.2200 389.0000 1.0000
40.2400 346.0000 1.0000
40.2600 305.0000 1.0000
40.2800 293.0000 1.0000
40.3000 259.0000 1.0000
40.3200 225.0000 1.0000
40.3400 216.0000 1.0000
40.3600 194.0000 1.0000
40.3800 193.0000 1.0000
40.4000 199.0000 1.0000
40.4200 196.0000 1.0000
40.4400 190.0000 1.0000
40.4600 184.0000 1.0000
40.4800 179.0000 1.0000
40.5000 176.0000 1.0000
40.5200 173.0000 1.0000
40.5400 169.0000 1.0000
40.5600 182.0000 1.0000
40.5800 179.0000 1.0000
40.6000 171.0000 1.0000
40.6200 175.0000 1.0000
40.6400 169.0000 1.0000
40.6600 162.0000 1.0000
40.6800 174.0000 1.0000
40.7000 176.0000 1.0000
40.7200 160.0000 1.0000
40.7400 170.0000 1.0000
40.7600 176.0000 1.0000
40.7800 173.0000 1.0000
40.8000 176.0000 1.0000
40.8200 171.0000 1.0000
40.8400 178.0000 1.0000
40.8600 177.0000 1.0000
40.8800 172.0000 1.0000
40.9000 163.0000 1.0000
40.9200 158.0000 1.0000
40.9400 169.0000 1.0000
40.9600 168.0000 1.0000
40.9800 165.0000 1.0000
41.0000 162.0000 1.0000
41.0200 161.0000 1.0000
41.0400 172.0000 1.0000
41.0600 172.0000 1.0000
41.0800 154.0000 1.0000
41.1000 165.0000 1.0000
41.1200 180.0000 1.0000
41.1400 169.0000 1.0000
41.1600 156.0000 1.0000
41.1800 152.0000 1.0000
41.2000 163.0000 1.0000
41.2200 158.0000 1.0000
41.2400 141.0000 1.0000
41.2600 144.0000 1.0000
41.2800 146.0000 1.0000
41.3000 147.0000 1.0000
41.3200 148.0000 1.0000
41.3400 150.0000 1.0000
41.3600 172.0000 1.0000
41.3800 181.0000 1.0000
41.4000 178.0000 1.0000
41.4200 176.0000 1.0000
41.4400 195.0000 1.0000
41.4600 184.0000 1.0000
41.4800 192.0000 1.0000
41.5000 194.0000 1.0000
41.5200 206.0000 1.0000
41.5400 233.0000 1.0000
41.5600 221.0000 1.0000
41.5800 198.0000 1.0000
41.6000 208.0000 1.0000
41.6200 214.0000 1.0000
41.6400 202.0000 1.0000
41.6600 221.0000 1.0000
41.6800 219.0000 1.0000
41.7000 208.0000 1.0000
41.7200 208.0000 1.0000
41.7400 226.0000 1.0000
41.7600 235.0000 1.0000
41.7800 220.0000 1.0000
41.8000 199.0000 1.0000
41.8200 199.0000 1.0000
41.8400 210.0000 1.0000
41.8600 217.0000 1.0000
41.8800 219.0000 1.0000
41.9000 223.0000 1.0000
41.9200 246.0000 1.0000
41.9400 253.0000 1.0000
41.9600 231.0000 1.0000
41.9800 245.0000 1.0000
42.0000 265.0000 1.0000
42.0200 293.0000 1.0000
42.0400 295.0000 1.0000
42.0600 297.0000 1.0000
42.0800 320.0000 1.0000
42.1000 331.0000 1.0000
42.1200 328.0000 1.0000
42.1400 356.0000 1.0000
42.1600 409.0000 1.0000
42.1800 438.0000 1.0000
42.2000 480.0000 1.0000
42.2200 518.0000 1.0000
42.2400 572.0000 1.0000
42.2600 650.0000 1.0000
42.2800 671.0000 1.0000
42.3000 687.0000 1.0000
42.3200 695.0000 1.0000
42.3400 636.0000 1.0000
42.3600 580.0000 1.0000
42.3800 544.0000 1.0000
42.4000 524.0000 1.0000
42.4200 465.0000 1.0000
42.4400 436.0000 1.0000
42.4600 362.0000 1.0000
42.4800 322.0000 1.0000
42.5000 276.0000 1.0000
42.5200 277.0000 1.0000
42.5400 259.0000 1.0000
42.5600 244.0000 1.0000
42.5800 218.0000 1.0000
42.6000 218.0000 1.0000
42.6200 214.0000 1.0000
42.6400 233.0000 1.0000
42.6600 216.0000 1.0000
42.6800 226.0000 1.0000
42.7000 226.0000 1.0000
42.7200 210.0000 1.0000
42.7400 203.0000 1.0000
42.7600 216.0000 1.0000
42.7800 219.0000 1.0000
42.8000 216.0000 1.0000
42.8200 208.0000 1.0000
42.8400 223.0000 1.0000
42.8600 226.0000 1.0000
42.8800 236.0000 1.0000
42.9000 226.0000 1.0000
42.9200 251.0000 1.0000
42.9400 258.0000 1.0000
42.9600 276.0000 1.0000
42.9800 313.0000 1.0000
43.0000 326.0000 1.0000
43.0200 373.0000 1.0000
43.0400 426.0000 1.0000
43.0600 485.0000 1.0000
43.0800 636.0000 1.0000
43.1000 778.0000 1.0000
43.1200 929.0000 1.0000
43.1400 1184.0000 1.0000
43.1600 1398.0000 1.0000
43.1800 1524.0000 1.0000
43.2000 1604.0000 1.0000
43.2200 1675.0000 1.0000
43.2400 1593.0000 1.0000
43.2600 1435.0000 1.0000
43.2800 1277.0000 1.0000
43.3000 1172.0000 1.0000
43.3200 968.0000 1.0000
43.3400 857.0000 1.0000
43.3600 727.0000 1.0000
43.3800 630.0000 1.0000
43.4000 493.0000 1.0000
43.4200 363.0000 1.0000
43.4400 290.0000 1.0000
43.4600 250.0000 1.0000
43.4800 233.0000 1.0000
43.5000 223.0000 1.0000
43.5200 202.0000 1.0000
43.5400 186.0000 1.0000
43.5600 194.0000 1.0000
43.5800 142.0000 1.0000
43.6000 177.0000 1.0000
43.6200 178.0000 1.0000
43.6400 171.0000 1.0000
43.6600 161.0000 1.0000
43.6800 162.0000 1.0000
43.7000 146.0000 1.0000
43.7200 162.0000 1.0000
43.7400 155.0000 1.0000
43.7600 150.0000 1.0000
43.7800 157.0000 1.0000
43.8000 135.0000 1.0000
43.8200 151.0000 1.0000
43.8400 158.0000 1.0000
43.8600 142.0000 1.0000
43.8800 143.0000 1.0000
43.9000 168.0000 1.0000
43.9200 157.0000 1.0000
43.9400 141.0000 1.0000
43.9600 142.0000 1.0000
43.9800 147.0000 1.0000
44.0000 159.0000 1.0000
44.0200 152.0000 1.0000
44.0400 150.0000 1.0000
44.0600 166.0000 1.0000
44.0800 163.0000 1.0000
44.1000 154.0000 1.0000
44.1200 168.0000 1.0000
44.1400 173.0000 1.0000
44.1600 156.0000 1.0000
44.1800 166.0000 1.0000
44.2000 151.0000 1.0000
44.2200 156.0000 1.0000
44.2400 151.0000 1.0000
44.2600 145.0000 1.0000
44.2800 144.0000 1.0000
44.3000 148.0000 1.0000
44.3200 140.0000 1.0000
44.3400 161.0000 1.0000
44.3600 152.0000 1.0000
44.3800 133.0000 1.0000
44.4000 145.0000 1.0000
44.4200 141.0000 1.0000
44.4400 145.0000 1.0000
44.4600 140.0000 1.0000
44.4800 143.0000 1.0000
44.5000 143.0000 1.0000
44.5200 140.0000 1.0000
44.5400 158.0000 1.0000
44.5600 181.0000 1.0000
44.5800 147.0000 1.0000
44.6000 149.0000 1.0000
44.6200 161.0000 1.0000
44.6400 185.0000 1.0000
44.6600 192.0000 1.0000
44.6800 191.0000 1.0000
44.7000 174.0000 1.0000
44.7200 171.0000 1.0000
44.7400 186.0000 1.0000
44.7600 195.0000 1.0000
44.7800 204.0000 1.0000
44.8000 169.0000 1.0000
44.8200 174.0000 1.0000
44.8400 179.0000 1.0000
44.8600 185.0000 1.0000
44.8800 181.0000 1.0000
44.9000 178.0000 1.0000
44.9200 175.0000 1.0000
44.9400 176.0000 1.0000
44.9600 179.0000 1.0000
44.9800 197.0000 1.0000
45.0000 201.0000 1.0000
45.0200 194.0000 1.0000
45.0400 180.0000 1.0000
45.0600 228.0000 1.0000
45.0800 170.0000 1.0000
45.1000 186.0000 1.0000
45.1200 192.0000 1.0000
45.1400 199.0000 1.0000
45.1600 198.0000 1.0000
45.1800 195.0000 1.0000
45.2000 169.0000 1.0000
45.2200 193.0000 1.0000
45.2400 198.0000 1.0000
45.2600 199.0000 1.0000
45.2800 188.0000 1.0000
45.3000 208.0000 1.0000
45.3200 208.0000 1.0000
45.3400 190.0000 1.0000
45.3600 205.0000 1.0000
45.3800 226.0000 1.0000
45.4000 200.0000 1.0000
45.4200 203.0000 1.0000
45.4400 227.0000 1.0000
45.4600 229.0000 1.0000
45.4800 233.0000 1.0000
45.5000 241.0000 1.0000
45.5200 275.0000 1.0000
45.5400 305.0000 1.0000
45.5600 326.0000 1.0000
45.5800 383.0000 1.0000
45.6000 380.0000 1.0000
45.6200 404.0000 1.0000
45.6400 435.0000 1.0000
45.6600 443.0000 1.0000
45.6800 400.0000 1.0000
45.7000 414.0000 1.0000
45.7200 396.0000 1.0000
45.7400 347.0000 1.0000
45.7600 273.0000 1.0000
45.7800 303.0000 1.0000
45.8000 291.0000 1.0000
45.8200 253.0000 1.0000
45.8400 204.0000 1.0000
45.8600 203.0000 1.0000
45.8800 207.0000 1.0000
45.9000 199.0000 1.0000
45.9200 155.0000 1.0000
45.9400 165.0000 1.0000
45.9600 181.0000 1.0000
45.9800 178.0000 1.0000
46.0000 187.0000 1.0000
46.0200 184.0000 1.0000
46.0400 154.0000 1.0000
46.0600 155.0000 1.0000
46.0800 158.0000 1.0000
46.1000 155.0000 1.0000
46.1200 171.0000 1.0000
46.1400 152.0000 1.0000
46.1600 132.0000 1.0000
46.1800 134.0000 1.0000
46.2000 138.0000 1.0000
46.2200 135.0000 1.0000
46.2400 146.0000 1.0000
46.2600 132.0000 1.0000
46.2800 117.0000 1.0000
46.3000 140.0000 1.0000
46.3200 117.0000 1.0000
46.3400 131.0000 1.0000
46.3600 142.0000 1.0000
46.3800 136.0000 1.0000
46.4000 135.0000 1.0000
46.4200 116.0000 1.0000
46.4400 115.0000 1.0000
46.4600 117.0000 1.0000
46.4800 119.0000 1.0000
46.5000 106.0000 1.0000
46.5200 115.0000 1.0000
46.5400 130.0000 1.0000
46.5600 131.0000 1.0000
46.5800 111.0000 1.0000
46.6000 121.0000 1.0000
46.6200 133.0000 1.0000
46.6400 112.0000 1.0000
46.6600 123.0000 1.0000
46.6800 115.0000 1.0000
46.7000 113.0000 1.0000
46.7200 122.0000 1.0000
46.7400 130.0000 1.0000
46.7600 118.0000 1.0000
46.7800 111.0000 1.0000
46.8000 114.0000 1.0000
46.8200 123.0000 1.0000
46.8400 116.0000 1.0000
46.8600 125.0000 1.0000
46.8800 139.0000 1.0000
46.9000 118.0000 1.0000
46.9200 139.0000 1.0000
46.9400 143.0000 1.0000
46.9600 128.0000 1.0000
46.9800 135.0000 1.0000
47.0000 125.0000 1.0000
47.0200 147.0000 1.0000
47.0400 142.0000 1.0000
47.0600 122.0000 1.0000
47.0800 126.0000 1.0000
47.1000 125.0000 1.0000
47.1200 117.0000 1.0000
47.1400 118.0000 1.0000
47.1600 115.0000 1.0000
47.1800 129.0000 1.0000
47.2000 117.0000 1.0000
47.2200 117.0000 1.0000
47.2400 116.0000 1.0000
47.2600 127.0000 1.0000
47.2800 134.0000 1.0000
47.3000 116.0000 1.0000
47.3200 117.0000 1.0000
47.3400 112.0000 1.0000
47.3600 120.0000 1.0000
47.3800 107.0000 1.0000
47.4000 101.0000 1.0000
47.4200 116.0000 1.0000
47.4400 106.0000 1.0000
47.4600 103.0000 1.0000
47.4800 113.0000 1.0000
47.5000 120.0000 1.0000
47.5200 125.0000 1.0000
47.5400 124.0000 1.0000
47.5600 117.0000 1.0000
47.5800 113.0000 1.0000
47.6000 108.0000 1.0000
47.6200 115.0000 1.0000
47.6400 119.0000 1.0000
47.6600 111.0000 1.0000
47.6800 108.0000 1.0000
47.7000 121.0000 1.0000
47.7200 124.0000 1.0000
47.7400 118.0000 1.0000
47.7600 125.0000 1.0000
47.7800 127.0000 1.0000
47.8000 117.0000 1.0000
47.8200 125.0000 1.0000
47.8400 120.0000 1.0000
47.8600 116.0000 1.0000
47.8800 122.0000 1.0000
47.9000 121.0000 1.0000
47.9200 118.0000 1.0000
47.9400 123.0000 1.0000
47.9600 127.0000 1.0000
47.9800 135.0000 1.0000
48.0000 135.0000 1.0000
48.0200 136.0000 1.0000
48.0400 136.0000 1.0000
48.0600 130.0000 1.0000
48.0800 132.0000 1.0000
48.1000 135.0000 1.0000
48.1200 133.0000 1.0000
48.1400 139.0000 1.0000
48.1600 146.0000 1.0000
48.1800 148.0000 1.0000
48.2000 132.0000 1.0000
48.2200 141.0000 1.0000
48.2400 147.0000 1.0000
48.2600 134.0000 1.0000
48.2800 127.0000 1.0000
48.3000 128.0000 1.0000
48.3200 139.0000 1.0000
48.3400 135.0000 1.0000
48.3600 131.0000 1.0000
48.3800 148.0000 1.0000
48.4000 135.0000 1.0000
48.4200 108.0000 1.0000
48.4400 115.0000 1.0000
48.4600 132.0000 1.0000
48.4800 127.0000 1.0000
48.5000 123.0000 1.0000
48.5200 130.0000 1.0000
48.5400 123.0000 1.0000
48.5600 116.0000 1.0000
48.5800 122.0000 1.0000
48.6000 122.0000 1.0000
48.6200 117.0000 1.0000
48.6400 118.0000 1.0000
48.6600 123.0000 1.0000
48.6800 115.0000 1.0000
48.7000 114.0000 1.0000
48.7200 123.0000 1.0000
48.7400 128.0000 1.0000
48.7600 135.0000 1.0000
48.7800 135.0000 1.0000
48.8000 122.0000 1.0000
48.8200 122.0000 1.0000
48.8400 129.0000 1.0000
48.8600 115.0000 1.0000
48.8800 119.0000 1.0000
48.9000 127.0000 1.0000
48.9200 123.0000 1.0000
48.9400 131.0000 1.0000
48.9600 141.0000 1.0000
48.9800 147.0000 1.0000
49.0000 151.0000 1.0000
49.0200 163.0000 1.0000
49.0400 164.0000 1.0000
49.0600 165.0000 1.0000
49.0800 164.0000 1.0000
49.1000 158.0000 1.0000
49.1200 172.0000 1.0000
49.1400 169.0000 1.0000
49.1600 166.0000 1.0000
49.1800 191.0000 1.0000
49.2000 186.0000 1.0000
49.2200 162.0000 1.0000
49.2400 149.0000 1.0000
49.2600 151.0000 1.0000
49.2800 146.0000 1.0000
49.3000 147.0000 1.0000
49.3200 155.0000 1.0000
49.3400 155.0000 1.0000
49.3600 166.0000 1.0000
49.3800 178.0000 1.0000
49.4000 179.0000 1.0000
49.4200 166.0000 1.0000
49.4400 170.0000 1.0000
49.4600 176.0000 1.0000
49.4800 170.0000 1.0000
49.5000 183.0000 1.0000
49.5200 181.0000 1.0000
49.5400 184.0000 1.0000
49.5600 208.0000 1.0000
49.5800 225.0000 1.0000
49.6000 216.0000 1.0000
49.6200 238.0000 1.0000
49.6400 228.0000 1.0000
49.6600 229.0000 1.0000
49.6800 239.0000 1.0000
49.7000 257.0000 1.0000
49.7200 239.0000 1.0000
49.7400 246.0000 1.0000
49.7600 276.0000 1.0000
49.7800 311.0000 1.0000
49.8000 326.0000 1.0000
49.8200 355.0000 1.0000
49.8400 401.0000 1.0000
49.8600 463.0000 1.0000
49.8800 526.0000 1.0000
49.9000 653.0000 1.0000
49.9200 812.0000 1.0000
49.9400 943.0000 1.0000
49.9600 1077.0000 1.0000
49.9800 1151.0000 1.0000
50.0000 1190.0000 1.0000
50.0200 1154.0000 1.0000
50.0400 1118.0000 1.0000
50.0600 981.0000 1.0000
50.0800 896.0000 1.0000
50.1000 823.0000 1.0000
50.1200 739.0000 1.0000
50.1400 671.0000 1.0000
50.1600 616.0000 1.0000
50.1800 542.0000 1.0000
50.2000 428.0000 1.0000
50.2200 344.0000 1.0000
50.2400 304.0000 1.0000
50.2600 247.0000 1.0000
50.2800 203.0000 1.0000
50.3000 186.0000 1.0000
50.3200 185.0000 1.0000
50.3400 207.0000 1.0000
50.3600 205.0000 1.0000
50.3800 187.0000 1.0000
50.4000 184.0000 1.0000
50.4200 188.0000 1.0000
50.4400 198.0000 1.0000
50.4600 220.0000 1.0000
50.4800 202.0000 1.0000
50.5000 186.0000 1.0000
50.5200 213.0000 1.0000
50.5400 206.0000 1.0000
50.5600 191.0000 1.0000
50.5800 197.0000 1.0000
50.6000 207.0000 1.0000
50.6200 187.0000 1.0000
50.6400 203.0000 1.0000
50.6600 198.0000 1.0000
50.6800 185.0000 1.0000
50.7000 179.0000 1.0000
50.7200 178.0000 1.0000
50.7400 193.0000 1.0000
50.7600 157.0000 1.0000
50.7800 152.0000 1.0000
50.8000 157.0000 1.0000
50.8200 148.0000 1.0000
50.8400 143.0000 1.0000
50.8600 136.0000 1.0000
50.8800 153.0000 1.0000
50.9000 132.0000 1.0000
50.9200 133.0000 1.0000
50.9400 150.0000 1.0000
50.9600 143.0000 1.0000
50.9800 153.0000 1.0000
51.0000 167.0000 1.0000
51.0200 162.0000 1.0000
51.0400 176.0000 1.0000
51.0600 157.0000 1.0000
51.0800 160.0000 1.0000
51.1000 168.0000 1.0000
51.1200 177.0000 1.0000
51.1400 175.0000 1.0000
51.1600 152.0000 1.0000
51.1800 163.0000 1.0000
51.2000 186.0000 1.0000
51.2200 165.0000 1.0000
51.2400 148.0000 1.0000
51.2600 138.0000 1.0000
51.2800 147.0000 1.0000
51.3000 162.0000 1.0000
51.3200 146.0000 1.0000
51.3400 160.0000 1.0000
51.3600 152.0000 1.0000
51.3800 166.0000 1.0000
51.4000 166.0000 1.0000
51.4200 154.0000 1.0000
51.4400 152.0000 1.0000
51.4600 135.0000 1.0000
51.4800 137.0000 1.0000
51.5000 144.0000 1.0000
51.5200 144.0000 1.0000
51.5400 142.0000 1.0000
51.5600 128.0000 1.0000
51.5800 119.0000 1.0000
51.6000 134.0000 1.0000
51.6200 120.0000 1.0000
51.6400 117.0000 1.0000
51.6600 124.0000 1.0000
51.6800 131.0000 1.0000
51.7000 143.0000 1.0000
51.7200 108.0000 1.0000
51.7400 150.0000 1.0000
51.7600 118.0000 1.0000
51.7800 117.0000 1.0000
51.8000 148.0000 1.0000
51.8200 137.0000 1.0000
51.8400 114.0000 1.0000
51.8600 142.0000 1.0000
51.8800 125.0000 1.0000
51.9000 119.0000 1.0000
51.9200 170.0000 1.0000
51.9400 147.0000 1.0000
51.9600 147.0000 1.0000
51.9800 160.0000 1.0000
52.0000 162.0000 1.0000
52.0200 171.0000 1.0000
52.0400 154.0000 1.0000
52.0600 174.0000 1.0000
52.0800 173.0000 1.0000
52.1000 178.0000 1.0000
52.1200 205.0000 1.0000
52.1400 191.0000 1.0000
52.1600 192.0000 1.0000
52.1800 189.0000 1.0000
52.2000 196.0000 1.0000
52.2200 203.0000 1.0000
52.2400 227.0000 1.0000
52.2600 266.0000 1.0000
52.2800 299.0000 1.0000
52.3000 365.0000 1.0000
52.3200 466.0000 1.0000
52.3400 499.0000 1.0000
52.3600 636.0000 1.0000
52.3800 679.0000 1.0000
52.4000 750.0000 1.0000
52.4200 734.0000 1.0000
52.4400 691.0000 1.0000
52.4600 717.0000 1.0000
52.4800 684.0000 1.0000
52.5000 616.0000 1.0000
52.5200 544.0000 1.0000
52.5400 535.0000 1.0000
52.5600 460.0000 1.0000
52.5800 458.0000 1.0000
52.6000 421.0000 1.0000
52.6200 354.0000 1.0000
52.6400 308.0000 1.0000
52.6600 255.0000 1.0000
52.6800 213.0000 1.0000
52.7000 176.0000 1.0000
52.7200 180.0000 1.0000
52.7400 149.0000 1.0000
52.7600 176.0000 1.0000
52.7800 164.0000 1.0000
52.8000 149.0000 1.0000
52.8200 160.0000 1.0000
52.8400 144.0000 1.0000
52.8600 166.0000 1.0000
52.8800 160.0000 1.0000
52.9000 160.0000 1.0000
52.9200 162.0000 1.0000
52.9400 162.0000 1.0000
52.9600 174.0000 1.0000
52.9800 165.0000 1.0000
53.0000 159.0000 1.0000
53.0200 163.0000 1.0000
53.0400 151.0000 1.0000
53.0600 170.0000 1.0000
53.0800 176.0000 1.0000
53.1000 173.0000 1.0000
53.1200 168.0000 1.0000
53.1400 150.0000 1.0000
53.1600 149.0000 1.0000
53.1800 159.0000 1.0000
53.2000 165.0000 1.0000
53.2200 162.0000 1.0000
53.2400 156.0000 1.0000
53.2600 158.0000 1.0000
53.2800 143.0000 1.0000
53.3000 159.0000 1.0000
53.3200 151.0000 1.0000
53.3400 159.0000 1.0000
53.3600 140.0000 1.0000
53.3800 143.0000 1.0000
53.4000 144.0000 1.0000
53.4200 147.0000 1.0000
53.4400 146.0000 1.0000
53.4600 137.0000 1.0000
53.4800 133.0000 1.0000
53.5000 141.0000 1.0000
53.5200 137.0000 1.0000
53.5400 136.0000 1.0000
53.5600 143.0000 1.0000
53.5800 118.0000 1.0000
53.6000 145.0000 1.0000
53.6200 135.0000 1.0000
53.6400 145.0000 1.0000
53.6600 154.0000 1.0000
53.6800 140.0000 1.0000
53.7000 135.0000 1.0000
53.7200 150.0000 1.0000
53.7400 142.0000 1.0000
53.7600 137.0000 1.0000
53.7800 153.0000 1.0000
53.8000 173.0000 1.0000
53.8200 158.0000 1.0000
53.8400 146.0000 1.0000
53.8600 158.0000 1.0000
53.8800 158.0000 1.0000
53.9000 147.0000 1.0000
53.9200 149.0000 1.0000
53.9400 148.0000 1.0000
53.9600 140.0000 1.0000
53.9800 154.0000 1.0000
54.0000 158.0000 1.0000
54.0200 151.0000 1.0000
54.0400 129.0000 1.0000
54.0600 135.0000 1.0000
54.0800 163.0000 1.0000
54.1000 147.0000 1.0000
54.1200 150.0000 1.0000
54.1400 151.0000 1.0000
54.1600 151.0000 1.0000
54.1800 148.0000 1.0000
54.2000 155.0000 1.0000
54.2200 164.0000 1.0000
54.2400 154.0000 1.0000
54.2600 166.0000 1.0000
54.2800 158.0000 1.0000
54.3000 162.0000 1.0000
54.3200 155.0000 1.0000
54.3400 153.0000 1.0000
54.3600 155.0000 1.0000
54.3800 177.0000 1.0000
54.4000 152.0000 1.0000
54.4200 178.0000 1.0000
54.4400 160.0000 1.0000
54.4600 153.0000 1.0000
54.4800 186.0000 1.0000
54.5000 192.0000 1.0000
54.5200 185.0000 1.0000
54.5400 174.0000 1.0000
54.5600 179.0000 1.0000
54.5800 214.0000 1.0000
54.6000 248.0000 1.0000
54.6200 269.0000 1.0000
54.6400 315.0000 1.0000
54.6600 343.0000 1.0000
54.6800 399.0000 1.0000
54.7000 433.0000 1.0000
54.7200 458.0000 1.0000
54.7400 463.0000 1.0000
54.7600 449.0000 1.0000
54.7800 435.0000 1.0000
54.8000 402.0000 1.0000
54.8200 366.0000 1.0000
54.8400 346.0000 1.0000
54.8600 316.0000 1.0000
54.8800 308.0000 1.0000
54.9000 297.0000 1.0000
54.9200 284.0000 1.0000
54.9400 264.0000 1.0000
54.9600 278.0000 1.0000
54.9800 237.0000 1.0000
55.0000 220.0000 1.0000
55.0200 209.0000 1.0000
55.0400 205.0000 1.0000
55.0600 236.0000 1.0000
55.0800 230.0000 1.0000
55.1000 250.0000 1.0000
55.1200 266.0000 1.0000
55.1400 268.0000 1.0000
55.1600 287.0000 1.0000
55.1800 315.0000 1.0000
55.2000 297.0000 1.0000
55.2200 267.0000 1.0000
55.2400 256.0000 1.0000
55.2600 242.0000 1.0000
55.2800 240.0000 1.0000
55.3000 242.0000 1.0000
55.3200 240.0000 1.0000
55.3400 238.0000 1.0000
55.3600 220.0000 1.0000
55.3800 213.0000 1.0000
55.4000 192.0000 1.0000
55.4200 184.0000 1.0000
55.4400 168.0000 1.0000
55.4600 154.0000 1.0000
55.4800 166.0000 1.0000
55.5000 169.0000 1.0000
55.5200 157.0000 1.0000
55.5400 158.0000 1.0000
55.5600 174.0000 1.0000
55.5800 169.0000 1.0000
55.6000 159.0000 1.0000
55.6200 161.0000 1.0000
55.6400 157.0000 1.0000
55.6600 154.0000 1.0000
55.6800 157.0000 1.0000
55.7000 149.0000 1.0000
55.7200 145.0000 1.0000
55.7400 146.0000 1.0000
55.7600 147.0000 1.0000
55.7800 152.0000 1.0000
55.8000 145.0000 1.0000
55.8200 137.0000 1.0000
55.8400 142.0000 1.0000
55.8600 154.0000 1.0000
55.8800 157.0000 1.0000
55.9000 147.0000 1.0000
55.9200 150.0000 1.0000
55.9400 155.0000 1.0000
55.9600 158.0000 1.0000
55.9800 158.0000 1.0000
56.0000 160.0000 1.0000
56.0200 171.0000 1.0000
56.0400 176.0000 1.0000
56.0600 176.0000 1.0000
56.0800 164.0000 1.0000
56.1000 169.0000 1.0000
56.1200 171.0000 1.0000
56.1400 172.0000 1.0000
56.1600 172.0000 1.0000
56.1800 164.0000 1.0000
56.2000 175.0000 1.0000
56.2200 188.0000 1.0000
56.2400 192.0000 1.0000
56.2600 189.0000 1.0000
56.2800 204.0000 1.0000
56.3000 210.0000 1.0000
56.3200 179.0000 1.0000
56.3400 189.0000 1.0000
56.3600 206.0000 1.0000
56.3800 194.0000 1.0000
56.4000 190.0000 1.0000
56.4200 211.0000 1.0000
56.4400 222.0000 1.0000
56.4600 208.0000 1.0000
56.4800 202.0000 1.0000
56.5000 200.0000 1.0000
56.5200 194.0000 1.0000
56.5400 191.0000 1.0000
56.5600 203.0000 1.0000
56.5800 200.0000 1.0000
56.6000 180.0000 1.0000
56.6200 169.0000 1.0000
56.6400 170.0000 1.0000
56.6600 186.0000 1.0000
56.6800 187.0000 1.0000
56.7000 184.0000 1.0000
56.7200 184.0000 1.0000
56.7400 173.0000 1.0000
56.7600 158.0000 1.0000
56.7800 155.0000 1.0000
56.8000 162.0000 1.0000
56.8200 168.0000 1.0000
56.8400 168.0000 1.0000
56.8600 169.0000 1.0000
56.8800 166.0000 1.0000
56.9000 160.0000 1.0000
56.9200 171.0000 1.0000
56.9400 196.0000 1.0000
56.9600 181.0000 1.0000
56.9800 179.0000 1.0000
57.0000 198.0000 1.0000
57.0200 200.0000 1.0000
57.0400 204.0000 1.0000
57.0600 209.0000 1.0000
57.0800 232.0000 1.0000
57.1000 242.0000 1.0000
57.1200 244.0000 1.0000
57.1400 259.0000 1.0000
57.1600 284.0000 1.0000
57.1800 305.0000 1.0000
57.2000 371.0000 1.0000
57.2200 443.0000 1.0000
57.2400 515.0000 1.0000
57.2600 642.0000 1.0000
57.2800 799.0000 1.0000
57.3000 1005.0000 1.0000
57.3200 1171.0000 1.0000
57.3400 1278.0000 1.0000
57.3600 1360.0000 1.0000
57.3800 1375.0000 1.0000
57.4000 1279.0000 1.0000
57.4200 1182.0000 1.0000
57.4400 1056.0000 1.0000
57.4600 967.0000 1.0000
57.4800 878.0000 1.0000
57.5000 840.0000 1.0000
57.5200 809.0000 1.0000
57.5400 806.0000 1.0000
57.5600 664.0000 1.0000
57.5800 564.0000 1.0000
57.6000 480.0000 1.0000
57.6200 391.0000 1.0000
57.6400 303.0000 1.0000
57.6600 279.0000 1.0000
57.6800 242.0000 1.0000
57.7000 199.0000 1.0000
57.7200 204.0000 1.0000
57.7400 190.0000 1.0000
57.7600 169.0000 1.0000
57.7800 199.0000 1.0000
57.8000 166.0000 1.0000
57.8200 149.0000 1.0000
57.8400 164.0000 1.0000
57.8600 155.0000 1.0000
57.8800 135.0000 1.0000
57.9000 147.0000 1.0000
57.9200 143.0000 1.0000
57.9400 146.0000 1.0000
57.9600 146.0000 1.0000
57.9800 151.0000 1.0000
58.0000 133.0000 1.0000
58.0200 133.0000 1.0000
58.0400 143.0000 1.0000
58.0600 146.0000 1.0000
58.0800 139.0000 1.0000
58.1000 121.0000 1.0000
58.1200 117.0000 1.0000
58.1400 132.0000 1.0000
58.1600 141.0000 1.0000
58.1800 126.0000 1.0000
58.2000 122.0000 1.0000
58.2200 118.0000 1.0000
58.2400 141.0000 1.0000
58.2600 119.0000 1.0000
58.2800 110.0000 1.0000
58.3000 118.0000 1.0000
58.3200 115.0000 1.0000
58.3400 120.0000 1.0000
58.3600 122.0000 1.0000
58.3800 129.0000 1.0000
58.4000 121.0000 1.0000
58.4200 137.0000 1.0000
58.4400 117.0000 1.0000
58.4600 112.0000 1.0000
58.4800 127.0000 1.0000
58.5000 128.0000 1.0000
58.5200 123.0000 1.0000
58.5400 151.0000 1.0000
58.5600 130.0000 1.0000
58.5800 134.0000 1.0000
58.6000 136.0000 1.0000
58.6200 142.0000 1.0000
58.6400 128.0000 1.0000
58.6600 149.0000 1.0000
58.6800 155.0000 1.0000
58.7000 116.0000 1.0000
58.7200 135.0000 1.0000
58.7400 148.0000 1.0000
58.7600 151.0000 1.0000
58.7800 122.0000 1.0000
58.8000 125.0000 1.0000
58.8200 118.0000 1.0000
58.8400 123.0000 1.0000
58.8600 147.0000 1.0000
58.8800 129.0000 1.0000
58.9000 138.0000 1.0000
58.9200 127.0000 1.0000
58.9400 133.0000 1.0000
58.9600 129.0000 1.0000
58.9800 141.0000 1.0000
59.0000 133.0000 1.0000
59.0200 142.0000 1.0000
59.0400 139.0000 1.0000
59.0600 131.0000 1.0000
59.0800 139.0000 1.0000
59.1000 142.0000 1.0000
59.1200 133.0000 1.0000
59.1400 140.0000 1.0000
59.1600 142.0000 1.0000
59.1800 156.0000 1.0000
59.2000 143.0000 1.0000
59.2200 142.0000 1.0000
59.2400 139.0000 1.0000
59.2600 151.0000 1.0000
59.2800 144.0000 1.0000
59.3000 155.0000 1.0000
59.3200 172.0000 1.0000
59.3400 171.0000 1.0000
59.3600 163.0000 1.0000
59.3800 159.0000 1.0000
59.4000 185.0000 1.0000
59.4200 165.0000 1.0000
59.4400 185.0000 1.0000
59.4600 194.0000 1.0000
59.4800 194.0000 1.0000
59.5000 189.0000 1.0000
59.5200 223.0000 1.0000
59.5400 224.0000 1.0000
59.5600 223.0000 1.0000
59.5800 254.0000 1.0000
59.6000 272.0000 1.0000
59.6200 282.0000 1.0000
59.6400 302.0000 1.0000
59.6600 341.0000 1.0000
59.6800 376.0000 1.0000
59.7000 461.0000 1.0000
59.7200 468.0000 1.0000
59.7400 566.0000 1.0000
59.7600 629.0000 1.0000
59.7800 735.0000 1.0000
59.8000 792.0000 1.0000
59.8200 857.0000 1.0000
59.8400 811.0000 1.0000
59.8600 798.0000 1.0000
59.8800 739.0000 1.0000
59.9000 621.0000 1.0000
59.9200 630.0000 1.0000
59.9400 577.0000 1.0000
59.9600 556.0000 1.0000
59.9800 551.0000 1.0000
60.0000 530.0000 1.0000
60.0200 435.0000 1.0000
60.0400 419.0000 1.0000
60.0600 322.0000 1.0000
60.0800 304.0000 1.0000
60.1000 284.0000 1.0000
60.1200 260.0000 1.0000
60.1400 227.0000 1.0000
60.1600 195.0000 1.0000
60.1800 190.0000 1.0000
60.2000 209.0000 1.0000
60.2200 185.0000 1.0000
60.2400 177.0000 1.0000
60.2600 178.0000 1.0000
60.2800 205.0000 1.0000
60.3000 162.0000 1.0000
60.3200 182.0000 1.0000
60.3400 183.0000 1.0000
60.3600 194.0000 1.0000
60.3800 187.0000 1.0000
60.4000 157.0000 1.0000
60.4200 183.0000 1.0000
60.4400 191.0000 1.0000
60.4600 163.0000 1.0000
60.4800 188.0000 1.0000
60.5000 179.0000 1.0000
60.5200 149.0000 1.0000
60.5400 168.0000 1.0000
60.5600 159.0000 1.0000
60.5800 159.0000 1.0000
60.6000 157.0000 1.0000
60.6200 162.0000 1.0000
60.6400 149.0000 1.0000
60.6600 137.0000 1.0000
60.6800 131.0000 1.0000
60.7000 143.0000 1.0000
60.7200 154.0000 1.0000
60.7400 170.0000 1.0000
60.7600 181.0000 1.0000
60.7800 172.0000 1.0000
60.8000 148.0000 1.0000
60.8200 180.0000 1.0000
60.8400 160.0000 1.0000
60.8600 182.0000 1.0000
60.8800 153.0000 1.0000
60.9000 172.0000 1.0000
60.9200 172.0000 1.0000
60.9400 198.0000 1.0000
60.9600 218.0000 1.0000
60.9800 205.0000 1.0000
61.0000 208.0000 1.0000
61.0200 210.0000 1.0000
61.0400 221.0000 1.0000
61.0600 226.0000 1.0000
61.0800 230.0000 1.0000
61.1000 247.0000 1.0000
61.1200 228.0000 1.0000
61.1400 263.0000 1.0000
61.1600 295.0000 1.0000
61.1800 255.0000 1.0000
61.2000 288.0000 1.0000
61.2200 263.0000 1.0000
61.2400 276.0000 1.0000
61.2600 265.0000 1.0000
61.2800 244.0000 1.0000
61.3000 212.0000 1.0000
61.3200 231.0000 1.0000
61.3400 242.0000 1.0000
61.3600 249.0000 1.0000
61.3800 238.0000 1.0000
61.4000 235.0000 1.0000
61.4200 219.0000 1.0000
61.4400 233.0000 1.0000
61.4600 234.0000 1.0000
61.4800 252.0000 1.0000
61.5000 224.0000 1.0000
61.5200 220.0000 1.0000
61.5400 240.0000 1.0000
61.5600 238.0000 1.0000
61.5800 255.0000 1.0000
61.6000 261.0000 1.0000
61.6200 243.0000 1.0000
61.6400 239.0000 1.0000
61.6600 229.0000 1.0000
61.6800 240.0000 1.0000
61.7000 276.0000 1.0000
61.7200 271.0000 1.0000
61.7400 252.0000 1.0000
61.7600 238.0000 1.0000
61.7800 288.0000 1.0000
61.8000 252.0000 1.0000
61.8200 246.0000 1.0000
61.8400 264.0000 1.0000
61.8600 247.0000 1.0000
61.8800 254.0000 1.0000
61.9000 240.0000 1.0000
61.9200 249.0000 1.0000
61.9400 220.0000 1.0000
61.9600 240.0000 1.0000
61.9800 235.0000 1.0000
62.0000 211.0000 1.0000
62.0200 215.0000 1.0000
62.0400 203.0000 1.0000
62.0600 235.0000 1.0000
62.0800 229.0000 1.0000
62.1000 211.0000 1.0000
62.1200 216.0000 1.0000
62.1400 210.0000 1.0000
62.1600 180.0000 1.0000
62.1800 190.0000 1.0000
62.2000 192.0000 1.0000
62.2200 188.0000 1.0000
62.2400 165.0000 1.0000
62.2600 184.0000 1.0000
62.2800 186.0000 1.0000
62.3000 181.0000 1.0000
62.3200 188.0000 1.0000
62.3400 173.0000 1.0000
62.3600 157.0000 1.0000
62.3800 188.0000 1.0000
62.4000 182.0000 1.0000
62.4200 168.0000 1.0000
62.4400 177.0000 1.0000
62.4600 145.0000 1.0000
62.4800 154.0000 1.0000
62.5000 178.0000 1.0000
62.5200 163.0000 1.0000
62.5400 144.0000 1.0000
62.5600 152.0000 1.0000
62.5800 147.0000 1.0000
62.6000 159.0000 1.0000
62.6200 145.0000 1.0000
62.6400 144.0000 1.0000
62.6600 153.0000 1.0000
62.6800 166.0000 1.0000
62.7000 144.0000 1.0000
62.7200 150.0000 1.0000
62.7400 141.0000 1.0000
62.7600 142.0000 1.0000
62.7800 141.0000 1.0000
62.8000 136.0000 1.0000
62.8200 126.0000 1.0000
62.8400 124.0000 1.0000
62.8600 140.0000 1.0000
62.8800 136.0000 1.0000
62.9000 124.0000 1.0000
62.9200 125.0000 1.0000
62.9400 132.0000 1.0000
62.9600 109.0000 1.0000
62.9800 130.0000 1.0000
63.0000 129.0000 1.0000
63.0200 121.0000 1.0000
63.0400 124.0000 1.0000
63.0600 122.0000 1.0000
63.0800 141.0000 1.0000
63.1000 137.0000 1.0000
63.1200 110.0000 1.0000
63.1400 119.0000 1.0000
63.1600 141.0000 1.0000
63.1800 130.0000 1.0000
63.2000 130.0000 1.0000
63.2200 138.0000 1.0000
63.2400 151.0000 1.0000
63.2600 137.0000 1.0000
63.2800 150.0000 1.0000
63.3000 161.0000 1.0000
63.3200 133.0000 1.0000
63.3400 135.0000 1.0000
63.3600 120.0000 1.0000
63.3800 145.0000 1.0000
63.4000 146.0000 1.0000
63.4200 132.0000 1.0000
63.4400 137.0000 1.0000
63.4600 153.0000 1.0000
63.4800 138.0000 1.0000
63.5000 144.0000 1.0000
63.5200 138.0000 1.0000
63.5400 147.0000 1.0000
63.5600 141.0000 1.0000
63.5800 150.0000 1.0000
63.6000 152.0000 1.0000
63.6200 145.0000 1.0000
63.6400 150.0000 1.0000
63.6600 154.0000 1.0000
63.6800 136.0000 1.0000
63.7000 147.0000 1.0000
63.7200 145.0000 1.0000
63.7400 153.0000 1.0000
63.7600 164.0000 1.0000
63.7800 181.0000 1.0000
63.8000 209.0000 1.0000
63.8200 191.0000 1.0000
63.8400 215.0000 1.0000
63.8600 250.0000 1.0000
63.8800 265.0000 1.0000
63.9000 251.0000 1.0000
63.9200 248.0000 1.0000
63.9400 225.0000 1.0000
63.9600 229.0000 1.0000
63.9800 214.0000 1.0000
64.0000 207.0000 1.0000
64.0200 199.0000 1.0000
64.0400 195.0000 1.0000
64.0600 189.0000 1.0000
64.0800 195.0000 1.0000
64.1000 166.0000 1.0000
64.1200 158.0000 1.0000
64.1400 170.0000 1.0000
64.1600 146.0000 1.0000
64.1800 132.0000 1.0000
64.2000 128.0000 1.0000
64.2200 132.0000 1.0000
64.2400 129.0000 1.0000
64.2600 134.0000 1.0000
64.2800 118.0000 1.0000
64.3000 125.0000 1.0000
64.3200 133.0000 1.0000
64.3400 118.0000 1.0000
64.3600 119.0000 1.0000
64.3800 119.0000 1.0000
64.4000 127.0000 1.0000
64.4200 112.0000 1.0000
64.4400 118.0000 1.0000
64.4600 120.0000 1.0000
64.4800 115.0000 1.0000
64.5000 113.0000 1.0000
64.5200 111.0000 1.0000
64.5400 107.0000 1.0000
64.5600 107.0000 1.0000
64.5800 120.0000 1.0000
64.6000 115.0000 1.0000
64.6200 125.0000 1.0000
64.6400 121.0000 1.0000
64.6600 125.0000 1.0000
64.6800 123.0000 1.0000
64.7000 117.0000 1.0000
64.7200 114.0000 1.0000
64.7400 123.0000 1.0000
64.7600 135.0000 1.0000
64.7800 130.0000 1.0000
64.8000 144.0000 1.0000
64.8200 129.0000 1.0000
64.8400 123.0000 1.0000
64.8600 127.0000 1.0000
64.8800 130.0000 1.0000
64.9000 122.0000 1.0000
64.9200 142.0000 1.0000
64.9400 131.0000 1.0000
64.9600 124.0000 1.0000
64.9800 124.0000 1.0000
65.0000 124.0000 1.0000
*RAS_INT_END
*RAS_DATA_END
