*RAS_DATA_START
*RAS_HEADER_START
*CORR_POS_DB_NAME "Angle Correction ASC6 SC WITH Mono_04082019"
*CORR_POS_GONIO_RADIUS ""
*CORR_POS_NODE_INDEX01 ""
*CORR_POS_NODE_INDEX02 ""
*CORR_POS_NODE_INDEX03 ""
*CORR_POS_NODE_INDEX04 ""
*CORR_POS_NODE_INDEX05 ""
*CORR_POS_NODE_INDEX06 ""
*CORR_POS_NODE_INDEX07 ""
*CORR_POS_NODE_INDEX08 ""
*CORR_POS_NODE_INDEX09 ""
*CORR_POS_NODE_INDEX10 ""
*CORR_POS_NODE_INDEX11 ""
*CORR_POS_NODE_LABEL01 "Si(111)"
*CORR_POS_NODE_LABEL02 "Si(220)"
*CORR_POS_NODE_LABEL03 "Si(311)"
*CORR_POS_NODE_LABEL04 "Si(400)"
*CORR_POS_NODE_LABEL05 "Si(331)"
*CORR_POS_NODE_LABEL06 "Si(422)"
*CORR_POS_NODE_LABEL07 "Si(511)"
*CORR_POS_NODE_LABEL08 "Si(440)"
*CORR_POS_NODE_LABEL09 "Si(531)"
*CORR_POS_NODE_LABEL10 "Si(620)"
*CORR_POS_NODE_LABEL11 "Si(533)"
*CORR_POS_NODE_POS_CALC01 "28.377"
*CORR_POS_NODE_POS_CALC02 "47.2506"
*CORR_POS_NODE_POS_CALC03 "56.0725"
*CORR_POS_NODE_POS_CALC04 "69.0822"
*CORR_POS_NODE_POS_CALC05 "76.3294"
*CORR_POS_NODE_POS_CALC06 "87.9853"
*CORR_POS_NODE_POS_CALC07 "94.9091"
*CORR_POS_NODE_POS_CALC08 "106.668"
*CORR_POS_NODE_POS_CALC09 "114.054"
*CORR_POS_NODE_POS_CALC10 "127.511"
*CORR_POS_NODE_POS_CALC11 "136.864"
*CORR_POS_NODE_POS_MEAS01 "28.5058"
*CORR_POS_NODE_POS_MEAS02 "47.345"
*CORR_POS_NODE_POS_MEAS03 "56.1421"
*CORR_POS_NODE_POS_MEAS04 "69.1304"
*CORR_POS_NODE_POS_MEAS05 "76.366"
*CORR_POS_NODE_POS_MEAS06 "88.0213"
*CORR_POS_NODE_POS_MEAS07 "94.9406"
*CORR_POS_NODE_POS_MEAS08 "106.689"
*CORR_POS_NODE_POS_MEAS09 "114.065"
*CORR_POS_NODE_POS_MEAS10 "127.518"
*CORR_POS_NODE_POS_MEAS11 "136.869"
*CORR_POS_OPT_ATTR "集中法"
*CORR_POS_PARAM_MU ""
*CORR_POS_PARAM_PL ""
*CORR_POS_SEMODEL_TYPE "0"
*CORR_POS_STANDARD_TYPE ""
*CORR_POS_VALUE_ANALYZER "None"
*CORR_POS_VALUE_CMONO "None"
*CORR_POS_VALUE_IMONO "None"
*CORR_POS_VALUE_IS "1.250deg"
*CORR_POS_VALUE_ISL "10.0mm"
*CORR_POS_VALUE_ISOLLER "5.0deg"
*CORR_POS_VALUE_RS1 "1.250deg"
*CORR_POS_VALUE_RS2 "0.3mm"
*CORR_POS_VALUE_RSOLLER "5.0deg"
*CORR_POS_XG_FOCUS_L ""
*CORR_POS_XG_WAVE_TYPE ""
*CORR_POS_XG_WAVE_VALUE ""
*DISP_FMT_X "%.2f"
*DISP_FMT_Y "%.0f"
*DISP_FULLSCALE "5896.8000000000"
*DISP_LINE_COLOR "255.0000000000"
*DISP_LINE_STYLE "0.0000000000"
*DISP_LINE_WIDTH "0.2500000000"
*DISP_NOTE "Collected Data-32"
*DISP_OFFSET_Y "0.0000000000"
*DISP_PEAKSEARCH_UNIT_Y "CPS"
*DISP_RANGE_BOTTOM "0.0000000000"
*DISP_RANGE_LEFT "5.0000000000"
*DISP_RANGE_LOGCUTOFF "0.0100000000"
*DISP_RANGE_RIGHT "65.0000000000"
*DISP_RANGE_TOP "5896.8000000000"
*DISP_SCALE_MODE_Y "0.0000000000"
*DISP_TAB_NAME "Theta/2-Theta"
*DISP_TITLE_Y "Intensity"
*DISP_UNIT_Y "CPS"
*DISP_WINDOW_NAME "MSG_MACROENGINE"
*FILE_COMMENT " "
*FILE_MD5 ""
*FILE_MEMO " "
*FILE_OPERATOR "Administrator"
*FILE_PART_ID "MEAS_PBEA_00223"
*FILE_SAMPLE " "
*FILE_TYPE "RAS_RAW"
*FILE_USERGROUP "System Manager"
*FILE_VERSION "1.0000000000"
*HW_ATTACHMENT_ID "ATT1031"
*HW_ATTACHMENT_NAME "6サンプルチェンジャ|ASC-6"
*HW_COUNTER_ID-0 "CUT0021"
*HW_COUNTER_ID-1 "CUT0020"
*HW_COUNTER_ID-2 "CUT0020"
*HW_COUNTER_ID-3 "CMC0021"
*HW_COUNTER_NAME-0 "SC-70|SC-70"
*HW_COUNTER_NAME-1 "None|None"
*HW_COUNTER_NAME-2 "None|None"
*HW_COUNTER_NAME-3 "検出器モノクロメータ|Detector monochromator"
*HW_COUNTER_SELECT_NAME "SC-70|SC-70"
*HW_ECP_HV "671.5000000000"
*HW_ECP_HV_UNIT "V"
*HW_GONIOMETER_ID "GON0070"
*HW_GONIOMETER_NAME "MiniFlex 300/600|MiniFlex 300/600"
*HW_GONIOMETER_RADIUS-0 "79.0"
*HW_GONIOMETER_RADIUS-1 "91.5"
*HW_GONIOMETER_RADIUS-2 "150.0"
*HW_GONIOMETER_RADIUS-3 "0"
*HW_GONIOMETER_RADIUS-4 "103.4"
*HW_GONIOMETER_RADIUS-5 "150.0"
*HW_GONIOMETER_RADIUS-6 "46.6"
*HW_GONIOMETER_RADIUS-7 "160.0"
*HW_I_OPT_ID-0 "ISL0021"
*HW_I_OPT_ID-1 "ISO0021"
*HW_I_OPT_NAME-0 "発散スリット|Divergence slit"
*HW_I_OPT_NAME-1 "入射平行スリット|Incident parallel slit"
*HW_R_ATTENUATER_AUTOMODE "0"
*HW_R_OPT_ID-0 "RSS0021"
*HW_R_OPT_ID-1 "RSO0021"
*HW_R_OPT_ID-2 "RRS0021"
*HW_R_OPT_NAME-0 "散乱スリット|Scattering slit"
*HW_R_OPT_NAME-1 "受光平行スリット|Receiving soller slit"
*HW_R_OPT_NAME-2 "受光スリット|Receiving slit"
*HW_SAMPLE_HOLDER_ID "SMP0000"
*HW_SAMPLE_HOLDER_NAME "無し|None"
*HW_XG_CURRENT_MAX "15"
*HW_XG_CURRENT_MIN "2"
*HW_XG_CURRENT_RESOLUTION "1"
*HW_XG_CURRENT_UNIT "mA"
*HW_XG_FOCUS "1mm x 10mm"
*HW_XG_FOCUS_TYPE "Normal"
*HW_XG_ID "1060"
*HW_XG_NAME "300W/600W 封入管-B|300W/600W Sealed tube-B"
*HW_XG_TARGET_ATOMIC_NUMBER "29.0000000000"
*HW_XG_TARGET_NAME "Cu"
*HW_XG_TYPE "Hermetic"
*HW_XG_VOLTAGE_MAX "40"
*HW_XG_VOLTAGE_MIN "20"
*HW_XG_VOLTAGE_RESOLUTION "1"
*HW_XG_VOLTAGE_UNIT "kV"
*HW_XG_WATT_MAX "0.600"
*HW_XG_WATT_UNIT "kW"
*HW_XG_WAVE_LENGTH_ALPHA1 "1.540593"
*HW_XG_WAVE_LENGTH_ALPHA2 "1.544414"
*HW_XG_WAVE_LENGTH_BETA "1.392250"
*MEAS_COND_AXIS_NAME-0 "Theta/2-Theta"
*MEAS_COND_AXIS_NAME-1 "Spin"
*MEAS_COND_AXIS_NAME-2 "Change"
*MEAS_COND_AXIS_NAME-3 "Soller(inc.)"
*MEAS_COND_AXIS_NAME-4 "IHS"
*MEAS_COND_AXIS_NAME-5 "DS"
*MEAS_COND_AXIS_NAME-6 "SS"
*MEAS_COND_AXIS_NAME-7 "Soller(rec.)"
*MEAS_COND_AXIS_NAME-8 "RS"
*MEAS_COND_AXIS_NAME-9 "Filter"
*MEAS_COND_AXIS_NAME-10 "Monochromator"
*MEAS_COND_AXIS_NAME-11 "HV"
*MEAS_COND_AXIS_NAME-12 "PHA"
*MEAS_COND_AXIS_NAME_INTERNAL-0 "TwoThetaTheta"
*MEAS_COND_AXIS_NAME_INTERNAL-1 "Spin"
*MEAS_COND_AXIS_NAME_INTERNAL-2 "Change"
*MEAS_COND_AXIS_NAME_INTERNAL-3 "IncidentSollerSlit"
*MEAS_COND_AXIS_NAME_INTERNAL-4 "IncidentAxdSlit"
*MEAS_COND_AXIS_NAME_INTERNAL-5 "IncidentSlitBox"
*MEAS_COND_AXIS_NAME_INTERNAL-6 "ReceivingSlitBox1"
*MEAS_COND_AXIS_NAME_INTERNAL-7 "ReceivingSollerSlit"
*MEAS_COND_AXIS_NAME_INTERNAL-8 "ReceivingSlitBox2"
*MEAS_COND_AXIS_NAME_INTERNAL-9 "Filter"
*MEAS_COND_AXIS_NAME_INTERNAL-10 "CounterMonochromator"
*MEAS_COND_AXIS_NAME_INTERNAL-11 "HV"
*MEAS_COND_AXIS_NAME_INTERNAL-12 "PHA"
*MEAS_COND_AXIS_NAME_MAGICNO-0 "268632064.0000000000"
*MEAS_COND_AXIS_NAME_MAGICNO-1 "16842752.0000000000"
*MEAS_COND_AXIS_NAME_MAGICNO-2 "16842752.0000000000"
*MEAS_COND_AXIS_NAME_MAGICNO-3 "20971521.0000000000"
*MEAS_COND_AXIS_NAME_MAGICNO-4 "22020097.0000000000"
*MEAS_COND_AXIS_NAME_MAGICNO-5 "22020097.0000000000"
*MEAS_COND_AXIS_NAME_MAGICNO-6 "23068673.0000000000"
*MEAS_COND_AXIS_NAME_MAGICNO-7 "20971521.0000000000"
*MEAS_COND_AXIS_NAME_MAGICNO-8 "23068673.0000000000"
*MEAS_COND_AXIS_NAME_MAGICNO-9 "20971521.0000000000"
*MEAS_COND_AXIS_NAME_MAGICNO-10 "20971521.0000000000"
*MEAS_COND_AXIS_NAME_MAGICNO-11 "0.0000000000"
*MEAS_COND_AXIS_NAME_MAGICNO-12 "0.0000000000"
*MEAS_COND_AXIS_OFFSET-0 "0.0000000000"
*MEAS_COND_AXIS_OFFSET-1 "-"
*MEAS_COND_AXIS_OFFSET-2 "-"
*MEAS_COND_AXIS_OFFSET-3 "-"
*MEAS_COND_AXIS_OFFSET-4 "-"
*MEAS_COND_AXIS_OFFSET-5 "-"
*MEAS_COND_AXIS_OFFSET-6 "-"
*MEAS_COND_AXIS_OFFSET-7 "-"
*MEAS_COND_AXIS_OFFSET-8 "-"
*MEAS_COND_AXIS_OFFSET-9 "-"
*MEAS_COND_AXIS_OFFSET-10 "-"
*MEAS_COND_AXIS_OFFSET-11 "-"
*MEAS_COND_AXIS_OFFSET-12 "-"
*MEAS_COND_AXIS_POSITION-0 "65.0000000000"
*MEAS_COND_AXIS_POSITION-1 "0.0000000000"
*MEAS_COND_AXIS_POSITION-2 "6.0000000000"
*MEAS_COND_AXIS_POSITION-3 "5.0deg"
*MEAS_COND_AXIS_POSITION-4 "10.0mm"
*MEAS_COND_AXIS_POSITION-5 "1.250deg"
*MEAS_COND_AXIS_POSITION-6 "1.250deg"
*MEAS_COND_AXIS_POSITION-7 "5.0deg"
*MEAS_COND_AXIS_POSITION-8 "0.3mm"
*MEAS_COND_AXIS_POSITION-9 "None"
*MEAS_COND_AXIS_POSITION-10 "Bent"
*MEAS_COND_AXIS_POSITION-11 "671.5000000000"
*MEAS_COND_AXIS_POSITION-12 "551.2500000000"
*MEAS_COND_AXIS_UNIT-0 "deg"
*MEAS_COND_AXIS_UNIT-1 ""
*MEAS_COND_AXIS_UNIT-2 ""
*MEAS_COND_AXIS_UNIT-3 ""
*MEAS_COND_AXIS_UNIT-4 ""
*MEAS_COND_AXIS_UNIT-5 ""
*MEAS_COND_AXIS_UNIT-6 ""
*MEAS_COND_AXIS_UNIT-7 ""
*MEAS_COND_AXIS_UNIT-8 ""
*MEAS_COND_AXIS_UNIT-9 ""
*MEAS_COND_AXIS_UNIT-10 ""
*MEAS_COND_AXIS_UNIT-11 "V"
*MEAS_COND_AXIS_UNIT-12 "mV"
*MEAS_COND_CORRECTION_SLIT_COUNTERMONO "None"
*MEAS_COND_CORRECTION_SLIT_DS "1.250deg"
*MEAS_COND_CORRECTION_SLIT_FILTER "None"
*MEAS_COND_CORRECTION_SLIT_IHS "10.0mm"
*MEAS_COND_CORRECTION_SLIT_RS "0.3mm"
*MEAS_COND_CORRECTION_SLIT_SOLLER_INC "5.0deg"
*MEAS_COND_CORRECTION_SLIT_SOLLER_REC "5.0deg"
*MEAS_COND_CORRECTION_SLIT_SS "1.250deg"
*MEAS_COND_COUNTER_CNTLOSS_CORR "0.0000000000"
*MEAS_COND_COUNTER_PHABASE "551.2500000000"
*MEAS_COND_COUNTER_PHAWINDOW "926.2500000000"
*MEAS_COND_COUNTER_PHA_UNIT "mV"
*MEAS_COND_COUNTER_TAUDIFF "0.2500000000"
*MEAS_COND_COUNTER_TAUINT "0.7500000000"
*MEAS_COND_IRRADIATION_MODE "OFF"
*MEAS_COND_IRRADIATION_WIDTH ""
*MEAS_COND_OPT_ATTR " "
*MEAS_COND_OPT_NAME ""
*MEAS_COND_UNSYMMETRIC_MODE "OFF"
*MEAS_COND_XG_CURRENT "15.0000000000"
*MEAS_COND_XG_VOLTAGE "40.0000000000"
*MEAS_COND_XG_WAVE_TYPE "Ka"
*MEAS_DATA_COUNT "3001.0000000000"
*MEAS_SCAN_AXIS_X "Theta/2-Theta"
*MEAS_SCAN_AXIS_X_INTERNAL "TwoThetaTheta"
*MEAS_SCAN_END_TIME "05/09/25 05:03:57"
*MEAS_SCAN_MODE "STEP"
*MEAS_SCAN_MONITOR "0"
*MEAS_SCAN_RESOLUTION_X "0.0025"
*MEAS_SCAN_SPEED "2.00"
*MEAS_SCAN_SPEED_UNIT "sec."
*MEAS_SCAN_SPEED_USER "2.00"
*MEAS_SCAN_START "5.0000000000"
*MEAS_SCAN_START_TIME "05/09/25 03:18:41"
*MEAS_SCAN_STEP "0.0200000000"
*MEAS_SCAN_STOP "65.0000000000"
*MEAS_SCAN_UNIT_X "deg"
*MEAS_SCAN_UNIT_Y "counts"
*SLIT_SYSTEM "0"
*RAS_HEADER_END
*RAS_INT_START
5.0000 1113.0000 1.0000
5.0200 1146.0000 1.0000
5.0400 1048.0000 1.0000
5.0600 996.0000 1.0000
5.0800 1007.0000 1.0000
5.1000 926.0000 1.0000
5.1200 919.0000 1.0000
5.1400 1010.0000 1.0000
5.1600 1035.0000 1.0000
5.1800 977.0000 1.0000
5.2000 1052.0000 1.0000
5.2200 984.0000 1.0000
5.2400 887.0000 1.0000
5.2600 937.0000 1.0000
5.2800 898.0000 1.0000
5.3000 913.0000 1.0000
5.3200 853.0000 1.0000
5.3400 958.0000 1.0000
5.3600 979.0000 1.0000
5.3800 996.0000 1.0000
5.4000 923.0000 1.0000
5.4200 965.0000 1.0000
5.4400 903.0000 1.0000
5.4600 999.0000 1.0000
5.4800 920.0000 1.0000
5.5000 835.0000 1.0000
5.5200 951.0000 1.0000
5.5400 951.0000 1.0000
5.5600 877.0000 1.0000
5.5800 927.0000 1.0000
5.6000 960.0000 1.0000
5.6200 871.0000 1.0000
5.6400 907.0000 1.0000
5.6600 904.0000 1.0000
5.6800 868.0000 1.0000
5.7000 868.0000 1.0000
5.7200 947.0000 1.0000
5.7400 924.0000 1.0000
5.7600 875.0000 1.0000
5.7800 924.0000 1.0000
5.8000 882.0000 1.0000
5.8200 844.0000 1.0000
5.8400 950.0000 1.0000
5.8600 902.0000 1.0000
5.8800 848.0000 1.0000
5.9000 883.0000 1.0000
5.9200 833.0000 1.0000
5.9400 858.0000 1.0000
5.9600 909.0000 1.0000
5.9800 934.0000 1.0000
6.0000 884.0000 1.0000
6.0200 841.0000 1.0000
6.0400 860.0000 1.0000
6.0600 912.0000 1.0000
6.0800 854.0000 1.0000
6.1000 854.0000 1.0000
6.1200 836.0000 1.0000
6.1400 818.0000 1.0000
6.1600 834.0000 1.0000
6.1800 759.0000 1.0000
6.2000 747.0000 1.0000
6.2200 754.0000 1.0000
6.2400 745.0000 1.0000
6.2600 767.0000 1.0000
6.2800 726.0000 1.0000
6.3000 726.0000 1.0000
6.3200 736.0000 1.0000
6.3400 792.0000 1.0000
6.3600 769.0000 1.0000
6.3800 708.0000 1.0000
6.4000 753.0000 1.0000
6.4200 756.0000 1.0000
6.4400 763.0000 1.0000
6.4600 772.0000 1.0000
6.4800 790.0000 1.0000
6.5000 796.0000 1.0000
6.5200 685.0000 1.0000
6.5400 691.0000 1.0000
6.5600 717.0000 1.0000
6.5800 704.0000 1.0000
6.6000 727.0000 1.0000
6.6200 703.0000 1.0000
6.6400 717.0000 1.0000
6.6600 715.0000 1.0000
6.6800 671.0000 1.0000
6.7000 683.0000 1.0000
6.7200 656.0000 1.0000
6.7400 679.0000 1.0000
6.7600 724.0000 1.0000
6.7800 741.0000 1.0000
6.8000 703.0000 1.0000
6.8200 660.0000 1.0000
6.8400 661.0000 1.0000
6.8600 675.0000 1.0000
6.8800 660.0000 1.0000
6.9000 614.0000 1.0000
6.9200 667.0000 1.0000
6.9400 659.0000 1.0000
6.9600 623.0000 1.0000
6.9800 640.0000 1.0000
7.0000 638.0000 1.0000
7.0200 633.0000 1.0000
7.0400 642.0000 1.0000
7.0600 648.0000 1.0000
7.0800 638.0000 1.0000
7.1000 658.0000 1.0000
7.1200 627.0000 1.0000
7.1400 615.0000 1.0000
7.1600 634.0000 1.0000
7.1800 645.0000 1.0000
7.2000 620.0000 1.0000
7.2200 629.0000 1.0000
7.2400 648.0000 1.0000
7.2600 636.0000 1.0000
7.2800 639.0000 1.0000
7.3000 635.0000 1.0000
7.3200 635.0000 1.0000
7.3400 613.0000 1.0000
7.3600 614.0000 1.0000
7.3800 585.0000 1.0000
7.4000 548.0000 1.0000
7.4200 569.0000 1.0000
7.4400 640.0000 1.0000
7.4600 626.0000 1.0000
7.4800 582.0000 1.0000
7.5000 536.0000 1.0000
7.5200 584.0000 1.0000
7.5400 637.0000 1.0000
7.5600 642.0000 1.0000
7.5800 628.0000 1.0000
7.6000 592.0000 1.0000
7.6200 601.0000 1.0000
7.6400 628.0000 1.0000
7.6600 649.0000 1.0000
7.6800 657.0000 1.0000
7.7000 638.0000 1.0000
7.7200 603.0000 1.0000
7.7400 565.0000 1.0000
7.7600 628.0000 1.0000
7.7800 644.0000 1.0000
7.8000 606.0000 1.0000
7.8200 597.0000 1.0000
7.8400 591.0000 1.0000
7.8600 630.0000 1.0000
7.8800 657.0000 1.0000
7.9000 679.0000 1.0000
7.9200 694.0000 1.0000
7.9400 642.0000 1.0000
7.9600 648.0000 1.0000
7.9800 660.0000 1.0000
8.0000 621.0000 1.0000
8.0200 631.0000 1.0000
8.0400 674.0000 1.0000
8.0600 721.0000 1.0000
8.0800 698.0000 1.0000
8.1000 667.0000 1.0000
8.1200 693.0000 1.0000
8.1400 689.0000 1.0000
8.1600 666.0000 1.0000
8.1800 694.0000 1.0000
8.2000 713.0000 1.0000
8.2200 741.0000 1.0000
8.2400 705.0000 1.0000
8.2600 647.0000 1.0000
8.2800 688.0000 1.0000
8.3000 723.0000 1.0000
8.3200 687.0000 1.0000
8.3400 699.0000 1.0000
8.3600 724.0000 1.0000
8.3800 716.0000 1.0000
8.4000 703.0000 1.0000
8.4200 715.0000 1.0000
8.4400 737.0000 1.0000
8.4600 744.0000 1.0000
8.4800 762.0000 1.0000
8.5000 802.0000 1.0000
8.5200 779.0000 1.0000
8.5400 726.0000 1.0000
8.5600 757.0000 1.0000
8.5800 753.0000 1.0000
8.6000 804.0000 1.0000
8.6200 854.0000 1.0000
8.6400 826.0000 1.0000
8.6600 850.0000 1.0000
8.6800 852.0000 1.0000
8.7000 780.0000 1.0000
8.7200 808.0000 1.0000
8.7400 733.0000 1.0000
8.7600 640.0000 1.0000
8.7800 568.0000 1.0000
8.8000 524.0000 1.0000
8.8200 472.0000 1.0000
8.8400 454.0000 1.0000
8.8600 451.0000 1.0000
8.8800 402.0000 1.0000
8.9000 401.0000 1.0000
8.9200 394.0000 1.0000
8.9400 408.0000 1.0000
8.9600 467.0000 1.0000
8.9800 408.0000 1.0000
9.0000 438.0000 1.0000
9.0200 396.0000 1.0000
9.0400 405.0000 1.0000
9.0600 419.0000 1.0000
9.0800 416.0000 1.0000
9.1000 400.0000 1.0000
9.1200 426.0000 1.0000
9.1400 399.0000 1.0000
9.1600 373.0000 1.0000
9.1800 385.0000 1.0000
9.2000 372.0000 1.0000
9.2200 361.0000 1.0000
9.2400 316.0000 1.0000
9.2600 339.0000 1.0000
9.2800 312.0000 1.0000
9.3000 305.0000 1.0000
9.3200 299.0000 1.0000
9.3400 284.0000 1.0000
9.3600 292.0000 1.0000
9.3800 303.0000 1.0000
9.4000 272.0000 1.0000
9.4200 296.0000 1.0000
9.4400 273.0000 1.0000
9.4600 300.0000 1.0000
9.4800 290.0000 1.0000
9.5000 293.0000 1.0000
9.5200 318.0000 1.0000
9.5400 313.0000 1.0000
9.5600 297.0000 1.0000
9.5800 283.0000 1.0000
9.6000 251.0000 1.0000
9.6200 311.0000 1.0000
9.6400 293.0000 1.0000
9.6600 267.0000 1.0000
9.6800 284.0000 1.0000
9.7000 276.0000 1.0000
9.7200 296.0000 1.0000
9.7400 253.0000 1.0000
9.7600 285.0000 1.0000
9.7800 260.0000 1.0000
9.8000 257.0000 1.0000
9.8200 270.0000 1.0000
9.8400 218.0000 1.0000
9.8600 245.0000 1.0000
9.8800 269.0000 1.0000
9.9000 278.0000 1.0000
9.9200 268.0000 1.0000
9.9400 263.0000 1.0000
9.9600 238.0000 1.0000
9.9800 228.0000 1.0000
10.0000 247.0000 1.0000
10.0200 237.0000 1.0000
10.0400 229.0000 1.0000
10.0600 219.0000 1.0000
10.0800 213.0000 1.0000
10.1000 231.0000 1.0000
10.1200 244.0000 1.0000
10.1400 254.0000 1.0000
10.1600 228.0000 1.0000
10.1800 248.0000 1.0000
10.2000 240.0000 1.0000
10.2200 249.0000 1.0000
10.2400 241.0000 1.0000
10.2600 188.0000 1.0000
10.2800 255.0000 1.0000
10.3000 281.0000 1.0000
10.3200 199.0000 1.0000
10.3400 231.0000 1.0000
10.3600 222.0000 1.0000
10.3800 209.0000 1.0000
10.4000 210.0000 1.0000
10.4200 224.0000 1.0000
10.4400 197.0000 1.0000
10.4600 250.0000 1.0000
10.4800 216.0000 1.0000
10.5000 217.0000 1.0000
10.5200 235.0000 1.0000
10.5400 239.0000 1.0000
10.5600 237.0000 1.0000
10.5800 240.0000 1.0000
10.6000 189.0000 1.0000
10.6200 222.0000 1.0000
10.6400 218.0000 1.0000
10.6600 223.0000 1.0000
10.6800 236.0000 1.0000
10.7000 213.0000 1.0000
10.7200 211.0000 1.0000
10.7400 214.0000 1.0000
10.7600 233.0000 1.0000
10.7800 222.0000 1.0000
10.8000 223.0000 1.0000
10.8200 219.0000 1.0000
10.8400 247.0000 1.0000
10.8600 243.0000 1.0000
10.8800 210.0000 1.0000
10.9000 226.0000 1.0000
10.9200 199.0000 1.0000
10.9400 217.0000 1.0000
10.9600 184.0000 1.0000
10.9800 194.0000 1.0000
11.0000 245.0000 1.0000
11.0200 241.0000 1.0000
11.0400 208.0000 1.0000
11.0600 230.0000 1.0000
11.0800 238.0000 1.0000
11.1000 234.0000 1.0000
11.1200 183.0000 1.0000
11.1400 233.0000 1.0000
11.1600 235.0000 1.0000
11.1800 246.0000 1.0000
11.2000 225.0000 1.0000
11.2200 232.0000 1.0000
11.2400 216.0000 1.0000
11.2600 234.0000 1.0000
11.2800 255.0000 1.0000
11.3000 237.0000 1.0000
11.3200 271.0000 1.0000
11.3400 264.0000 1.0000
11.3600 291.0000 1.0000
11.3800 309.0000 1.0000
11.4000 346.0000 1.0000
11.4200 308.0000 1.0000
11.4400 329.0000 1.0000
11.4600 338.0000 1.0000
11.4800 355.0000 1.0000
11.5000 335.0000 1.0000
11.5200 326.0000 1.0000
11.5400 269.0000 1.0000
11.5600 210.0000 1.0000
11.5800 244.0000 1.0000
11.6000 205.0000 1.0000
11.6200 198.0000 1.0000
11.6400 199.0000 1.0000
11.6600 202.0000 1.0000
11.6800 203.0000 1.0000
11.7000 200.0000 1.0000
11.7200 209.0000 1.0000
11.7400 205.0000 1.0000
11.7600 184.0000 1.0000
11.7800 203.0000 1.0000
11.8000 204.0000 1.0000
11.8200 204.0000 1.0000
11.8400 218.0000 1.0000
11.8600 216.0000 1.0000
11.8800 192.0000 1.0000
11.9000 212.0000 1.0000
11.9200 235.0000 1.0000
11.9400 233.0000 1.0000
11.9600 228.0000 1.0000
11.9800 233.0000 1.0000
12.0000 254.0000 1.0000
12.0200 221.0000 1.0000
12.0400 283.0000 1.0000
12.0600 237.0000 1.0000
12.0800 231.0000 1.0000
12.1000 274.0000 1.0000
12.1200 256.0000 1.0000
12.1400 248.0000 1.0000
12.1600 254.0000 1.0000
12.1800 263.0000 1.0000
12.2000 274.0000 1.0000
12.2200 283.0000 1.0000
12.2400 281.0000 1.0000
12.2600 276.0000 1.0000
12.2800 306.0000 1.0000
12.3000 301.0000 1.0000
12.3200 302.0000 1.0000
12.3400 324.0000 1.0000
12.3600 319.0000 1.0000
12.3800 290.0000 1.0000
12.4000 294.0000 1.0000
12.4200 248.0000 1.0000
12.4400 239.0000 1.0000
12.4600 270.0000 1.0000
12.4800 241.0000 1.0000
12.5000 211.0000 1.0000
12.5200 212.0000 1.0000
12.5400 207.0000 1.0000
12.5600 179.0000 1.0000
12.5800 187.0000 1.0000
12.6000 171.0000 1.0000
12.6200 197.0000 1.0000
12.6400 210.0000 1.0000
12.6600 180.0000 1.0000
12.6800 177.0000 1.0000
12.7000 187.0000 1.0000
12.7200 201.0000 1.0000
12.7400 197.0000 1.0000
12.7600 230.0000 1.0000
12.7800 198.0000 1.0000
12.8000 206.0000 1.0000
12.8200 193.0000 1.0000
12.8400 175.0000 1.0000
12.8600 175.0000 1.0000
12.8800 176.0000 1.0000
12.9000 170.0000 1.0000
12.9200 165.0000 1.0000
12.9400 173.0000 1.0000
12.9600 172.0000 1.0000
12.9800 170.0000 1.0000
13.0000 157.0000 1.0000
13.0200 142.0000 1.0000
13.0400 155.0000 1.0000
13.0600 159.0000 1.0000
13.0800 152.0000 1.0000
13.1000 169.0000 1.0000
13.1200 171.0000 1.0000
13.1400 181.0000 1.0000
13.1600 176.0000 1.0000
13.1800 169.0000 1.0000
13.2000 176.0000 1.0000
13.2200 159.0000 1.0000
13.2400 157.0000 1.0000
13.2600 169.0000 1.0000
13.2800 169.0000 1.0000
13.3000 162.0000 1.0000
13.3200 174.0000 1.0000
13.3400 192.0000 1.0000
13.3600 189.0000 1.0000
13.3800 183.0000 1.0000
13.4000 211.0000 1.0000
13.4200 222.0000 1.0000
13.4400 200.0000 1.0000
13.4600 204.0000 1.0000
13.4800 214.0000 1.0000
13.5000 211.0000 1.0000
13.5200 203.0000 1.0000
13.5400 221.0000 1.0000
13.5600 211.0000 1.0000
13.5800 223.0000 1.0000
13.6000 226.0000 1.0000
13.6200 249.0000 1.0000
13.6400 268.0000 1.0000
13.6600 279.0000 1.0000
13.6800 271.0000 1.0000
13.7000 292.0000 1.0000
13.7200 301.0000 1.0000
13.7400 272.0000 1.0000
13.7600 238.0000 1.0000
13.7800 210.0000 1.0000
13.8000 193.0000 1.0000
13.8200 180.0000 1.0000
13.8400 170.0000 1.0000
13.8600 173.0000 1.0000
13.8800 173.0000 1.0000
13.9000 170.0000 1.0000
13.9200 155.0000 1.0000
13.9400 176.0000 1.0000
13.9600 174.0000 1.0000
13.9800 161.0000 1.0000
14.0000 154.0000 1.0000
14.0200 156.0000 1.0000
14.0400 151.0000 1.0000
14.0600 160.0000 1.0000
14.0800 166.0000 1.0000
14.1000 170.0000 1.0000
14.1200 174.0000 1.0000
14.1400 159.0000 1.0000
14.1600 136.0000 1.0000
14.1800 147.0000 1.0000
14.2000 157.0000 1.0000
14.2200 151.0000 1.0000
14.2400 159.0000 1.0000
14.2600 176.0000 1.0000
14.2800 149.0000 1.0000
14.3000 157.0000 1.0000
14.3200 178.0000 1.0000
14.3400 174.0000 1.0000
14.3600 169.0000 1.0000
14.3800 177.0000 1.0000
14.4000 179.0000 1.0000
14.4200 192.0000 1.0000
14.4400 197.0000 1.0000
14.4600 180.0000 1.0000
14.4800 182.0000 1.0000
14.5000 196.0000 1.0000
14.5200 200.0000 1.0000
14.5400 191.0000 1.0000
14.5600 186.0000 1.0000
14.5800 182.0000 1.0000
14.6000 182.0000 1.0000
14.6200 182.0000 1.0000
14.6400 176.0000 1.0000
14.6600 158.0000 1.0000
14.6800 156.0000 1.0000
14.7000 157.0000 1.0000
14.7200 168.0000 1.0000
14.7400 185.0000 1.0000
14.7600 189.0000 1.0000
14.7800 176.0000 1.0000
14.8000 164.0000 1.0000
14.8200 160.0000 1.0000
14.8400 172.0000 1.0000
14.8600 186.0000 1.0000
14.8800 181.0000 1.0000
14.9000 171.0000 1.0000
14.9200 164.0000 1.0000
14.9400 159.0000 1.0000
14.9600 163.0000 1.0000
14.9800 160.0000 1.0000
15.0000 156.0000 1.0000
15.0200 132.0000 1.0000
15.0400 132.0000 1.0000
15.0600 153.0000 1.0000
15.0800 147.0000 1.0000
15.1000 140.0000 1.0000
15.1200 141.0000 1.0000
15.1400 146.0000 1.0000
15.1600 130.0000 1.0000
15.1800 117.0000 1.0000
15.2000 127.0000 1.0000
15.2200 135.0000 1.0000
15.2400 130.0000 1.0000
15.2600 140.0000 1.0000
15.2800 136.0000 1.0000
15.3000 131.0000 1.0000
15.3200 148.0000 1.0000
15.3400 142.0000 1.0000
15.3600 137.0000 1.0000
15.3800 140.0000 1.0000
15.4000 130.0000 1.0000
15.4200 132.0000 1.0000
15.4400 133.0000 1.0000
15.4600 125.0000 1.0000
15.4800 137.0000 1.0000
15.5000 137.0000 1.0000
15.5200 141.0000 1.0000
15.5400 142.0000 1.0000
15.5600 140.0000 1.0000
15.5800 144.0000 1.0000
15.6000 148.0000 1.0000
15.6200 161.0000 1.0000
15.6400 147.0000 1.0000
15.6600 138.0000 1.0000
15.6800 149.0000 1.0000
15.7000 156.0000 1.0000
15.7200 147.0000 1.0000
15.7400 138.0000 1.0000
15.7600 127.0000 1.0000
15.7800 123.0000 1.0000
15.8000 129.0000 1.0000
15.8200 134.0000 1.0000
15.8400 127.0000 1.0000
15.8600 126.0000 1.0000
15.8800 136.0000 1.0000
15.9000 117.0000 1.0000
15.9200 114.0000 1.0000
15.9400 134.0000 1.0000
15.9600 134.0000 1.0000
15.9800 130.0000 1.0000
16.0000 131.0000 1.0000
16.0200 116.0000 1.0000
16.0400 114.0000 1.0000
16.0600 129.0000 1.0000
16.0800 139.0000 1.0000
16.1000 129.0000 1.0000
16.1200 131.0000 1.0000
16.1400 142.0000 1.0000
16.1600 125.0000 1.0000
16.1800 126.0000 1.0000
16.2000 139.0000 1.0000
16.2200 126.0000 1.0000
16.2400 130.0000 1.0000
16.2600 143.0000 1.0000
16.2800 132.0000 1.0000
16.3000 125.0000 1.0000
16.3200 125.0000 1.0000
16.3400 133.0000 1.0000
16.3600 134.0000 1.0000
16.3800 125.0000 1.0000
16.4000 130.0000 1.0000
16.4200 139.0000 1.0000
16.4400 142.0000 1.0000
16.4600 121.0000 1.0000
16.4800 113.0000 1.0000
16.5000 128.0000 1.0000
16.5200 143.0000 1.0000
16.5400 146.0000 1.0000
16.5600 133.0000 1.0000
16.5800 141.0000 1.0000
16.6000 129.0000 1.0000
16.6200 116.0000 1.0000
16.6400 125.0000 1.0000
16.6600 132.0000 1.0000
16.6800 136.0000 1.0000
16.7000 142.0000 1.0000
16.7200 142.0000 1.0000
16.7400 141.0000 1.0000
16.7600 136.0000 1.0000
16.7800 121.0000 1.0000
16.8000 130.0000 1.0000
16.8200 130.0000 1.0000
16.8400 136.0000 1.0000
16.8600 139.0000 1.0000
16.8800 133.0000 1.0000
16.9000 137.0000 1.0000
16.9200 125.0000 1.0000
16.9400 124.0000 1.0000
16.9600 117.0000 1.0000
16.9800 143.0000 1.0000
17.0000 151.0000 1.0000
17.0200 144.0000 1.0000
17.0400 126.0000 1.0000
17.0600 139.0000 1.0000
17.0800 156.0000 1.0000
17.1000 145.0000 1.0000
17.1200 150.0000 1.0000
17.1400 140.0000 1.0000
17.1600 139.0000 1.0000
17.1800 154.0000 1.0000
17.2000 150.0000 1.0000
17.2200 155.0000 1.0000
17.2400 158.0000 1.0000
17.2600 148.0000 1.0000
17.2800 146.0000 1.0000
17.3000 158.0000 1.0000
17.3200 158.0000 1.0000
17.3400 173.0000 1.0000
17.3600 184.0000 1.0000
17.3800 164.0000 1.0000
17.4000 163.0000 1.0000
17.4200 186.0000 1.0000
17.4400 177.0000 1.0000
17.4600 175.0000 1.0000
17.4800 181.0000 1.0000
17.5000 190.0000 1.0000
17.5200 201.0000 1.0000
17.5400 206.0000 1.0000
17.5600 187.0000 1.0000
17.5800 213.0000 1.0000
17.6000 208.0000 1.0000
17.6200 215.0000 1.0000
17.6400 192.0000 1.0000
17.6600 198.0000 1.0000
17.6800 188.0000 1.0000
17.7000 190.0000 1.0000
17.7200 165.0000 1.0000
17.7400 171.0000 1.0000
17.7600 176.0000 1.0000
17.7800 171.0000 1.0000
17.8000 148.0000 1.0000
17.8200 166.0000 1.0000
17.8400 165.0000 1.0000
17.8600 153.0000 1.0000
17.8800 148.0000 1.0000
17.9000 146.0000 1.0000
17.9200 150.0000 1.0000
17.9400 157.0000 1.0000
17.9600 136.0000 1.0000
17.9800 146.0000 1.0000
18.0000 157.0000 1.0000
18.0200 155.0000 1.0000
18.0400 139.0000 1.0000
18.0600 139.0000 1.0000
18.0800 144.0000 1.0000
18.1000 144.0000 1.0000
18.1200 135.0000 1.0000
18.1400 133.0000 1.0000
18.1600 141.0000 1.0000
18.1800 158.0000 1.0000
18.2000 152.0000 1.0000
18.2200 135.0000 1.0000
18.2400 142.0000 1.0000
18.2600 148.0000 1.0000
18.2800 136.0000 1.0000
18.3000 132.0000 1.0000
18.3200 139.0000 1.0000
18.3400 130.0000 1.0000
18.3600 136.0000 1.0000
18.3800 142.0000 1.0000
18.4000 141.0000 1.0000
18.4200 146.0000 1.0000
18.4400 151.0000 1.0000
18.4600 160.0000 1.0000
18.4800 147.0000 1.0000
18.5000 129.0000 1.0000
18.5200 145.0000 1.0000
18.5400 138.0000 1.0000
18.5600 158.0000 1.0000
18.5800 141.0000 1.0000
18.6000 159.0000 1.0000
18.6200 167.0000 1.0000
18.6400 163.0000 1.0000
18.6600 155.0000 1.0000
18.6800 158.0000 1.0000
18.7000 150.0000 1.0000
18.7200 173.0000 1.0000
18.7400 168.0000 1.0000
18.7600 167.0000 1.0000
18.7800 187.0000 1.0000
18.8000 192.0000 1.0000
18.8200 148.0000 1.0000
18.8400 166.0000 1.0000
18.8600 152.0000 1.0000
18.8800 149.0000 1.0000
18.9000 179.0000 1.0000
18.9200 169.0000 1.0000
18.9400 169.0000 1.0000
18.9600 171.0000 1.0000
18.9800 180.0000 1.0000
19.0000 176.0000 1.0000
19.0200 153.0000 1.0000
19.0400 171.0000 1.0000
19.0600 175.0000 1.0000
19.0800 175.0000 1.0000
19.1000 182.0000 1.0000
19.1200 201.0000 1.0000
19.1400 199.0000 1.0000
19.1600 192.0000 1.0000
19.1800 183.0000 1.0000
19.2000 204.0000 1.0000
19.2200 180.0000 1.0000
19.2400 185.0000 1.0000
19.2600 202.0000 1.0000
19.2800 190.0000 1.0000
19.3000 192.0000 1.0000
19.3200 227.0000 1.0000
19.3400 217.0000 1.0000
19.3600 231.0000 1.0000
19.3800 231.0000 1.0000
19.4000 237.0000 1.0000
19.4200 257.0000 1.0000
19.4400 257.0000 1.0000
19.4600 285.0000 1.0000
19.4800 320.0000 1.0000
19.5000 340.0000 1.0000
19.5200 346.0000 1.0000
19.5400 412.0000 1.0000
19.5600 444.0000 1.0000
19.5800 477.0000 1.0000
19.6000 488.0000 1.0000
19.6200 513.0000 1.0000
19.6400 498.0000 1.0000
19.6600 492.0000 1.0000
19.6800 490.0000 1.0000
19.7000 449.0000 1.0000
19.7200 450.0000 1.0000
19.7400 438.0000 1.0000
19.7600 432.0000 1.0000
19.7800 437.0000 1.0000
19.8000 369.0000 1.0000
19.8200 362.0000 1.0000
19.8400 334.0000 1.0000
19.8600 369.0000 1.0000
19.8800 338.0000 1.0000
19.9000 323.0000 1.0000
19.9200 294.0000 1.0000
19.9400 314.0000 1.0000
19.9600 282.0000 1.0000
19.9800 273.0000 1.0000
20.0000 320.0000 1.0000
20.0200 309.0000 1.0000
20.0400 281.0000 1.0000
20.0600 301.0000 1.0000
20.0800 276.0000 1.0000
20.1000 302.0000 1.0000
20.1200 295.0000 1.0000
20.1400 282.0000 1.0000
20.1600 301.0000 1.0000
20.1800 278.0000 1.0000
20.2000 318.0000 1.0000
20.2200 306.0000 1.0000
20.2400 278.0000 1.0000
20.2600 326.0000 1.0000
20.2800 277.0000 1.0000
20.3000 329.0000 1.0000
20.3200 314.0000 1.0000
20.3400 331.0000 1.0000
20.3600 320.0000 1.0000
20.3800 364.0000 1.0000
20.4000 358.0000 1.0000
20.4200 350.0000 1.0000
20.4400 392.0000 1.0000
20.4600 439.0000 1.0000
20.4800 478.0000 1.0000
20.5000 581.0000 1.0000
20.5200 597.0000 1.0000
20.5400 681.0000 1.0000
20.5600 835.0000 1.0000
20.5800 975.0000 1.0000
20.6000 1143.0000 1.0000
20.6200 1425.0000 1.0000
20.6400 1550.0000 1.0000
20.6600 1830.0000 1.0000
20.6800 2101.0000 1.0000
20.7000 2094.0000 1.0000
20.7200 2120.0000 1.0000
20.7400 1926.0000 1.0000
20.7600 1557.0000 1.0000
20.7800 1251.0000 1.0000
20.8000 963.0000 1.0000
20.8200 752.0000 1.0000
20.8400 580.0000 1.0000
20.8600 507.0000 1.0000
20.8800 418.0000 1.0000
20.9000 357.0000 1.0000
20.9200 355.0000 1.0000
20.9400 334.0000 1.0000
20.9600 329.0000 1.0000
20.9800 326.0000 1.0000
21.0000 284.0000 1.0000
21.0200 294.0000 1.0000
21.0400 256.0000 1.0000
21.0600 248.0000 1.0000
21.0800 257.0000 1.0000
21.1000 271.0000 1.0000
21.1200 274.0000 1.0000
21.1400 276.0000 1.0000
21.1600 215.0000 1.0000
21.1800 221.0000 1.0000
21.2000 248.0000 1.0000
21.2200 221.0000 1.0000
21.2400 241.0000 1.0000
21.2600 210.0000 1.0000
21.2800 202.0000 1.0000
21.3000 211.0000 1.0000
21.3200 222.0000 1.0000
21.3400 214.0000 1.0000
21.3600 200.0000 1.0000
21.3800 206.0000 1.0000
21.4000 213.0000 1.0000
21.4200 198.0000 1.0000
21.4400 209.0000 1.0000
21.4600 187.0000 1.0000
21.4800 227.0000 1.0000
21.5000 233.0000 1.0000
21.5200 229.0000 1.0000
21.5400 222.0000 1.0000
21.5600 221.0000 1.0000
21.5800 242.0000 1.0000
21.6000 248.0000 1.0000
21.6200 254.0000 1.0000
21.6400 239.0000 1.0000
21.6600 260.0000 1.0000
21.6800 291.0000 1.0000
21.7000 353.0000 1.0000
21.7200 363.0000 1.0000
21.7400 402.0000 1.0000
21.7600 474.0000 1.0000
21.7800 517.0000 1.0000
21.8000 516.0000 1.0000
21.8200 643.0000 1.0000
21.8400 624.0000 1.0000
21.8600 616.0000 1.0000
21.8800 623.0000 1.0000
21.9000 584.0000 1.0000
21.9200 543.0000 1.0000
21.9400 433.0000 1.0000
21.9600 370.0000 1.0000
21.9800 337.0000 1.0000
22.0000 259.0000 1.0000
22.0200 245.0000 1.0000
22.0400 222.0000 1.0000
22.0600 238.0000 1.0000
22.0800 215.0000 1.0000
22.1000 203.0000 1.0000
22.1200 216.0000 1.0000
22.1400 204.0000 1.0000
22.1600 213.0000 1.0000
22.1800 186.0000 1.0000
22.2000 224.0000 1.0000
22.2200 199.0000 1.0000
22.2400 204.0000 1.0000
22.2600 230.0000 1.0000
22.2800 225.0000 1.0000
22.3000 213.0000 1.0000
22.3200 230.0000 1.0000
22.3400 201.0000 1.0000
22.3600 215.0000 1.0000
22.3800 215.0000 1.0000
22.4000 208.0000 1.0000
22.4200 210.0000 1.0000
22.4400 214.0000 1.0000
22.4600 217.0000 1.0000
22.4800 219.0000 1.0000
22.5000 204.0000 1.0000
22.5200 211.0000 1.0000
22.5400 204.0000 1.0000
22.5600 218.0000 1.0000
22.5800 215.0000 1.0000
22.6000 201.0000 1.0000
22.6200 212.0000 1.0000
22.6400 249.0000 1.0000
22.6600 225.0000 1.0000
22.6800 245.0000 1.0000
22.7000 231.0000 1.0000
22.7200 206.0000 1.0000
22.7400 251.0000 1.0000
22.7600 244.0000 1.0000
22.7800 281.0000 1.0000
22.8000 274.0000 1.0000
22.8200 276.0000 1.0000
22.8400 279.0000 1.0000
22.8600 281.0000 1.0000
22.8800 269.0000 1.0000
22.9000 268.0000 1.0000
22.9200 256.0000 1.0000
22.9400 256.0000 1.0000
22.9600 241.0000 1.0000
22.9800 202.0000 1.0000
23.0000 204.0000 1.0000
23.0200 224.0000 1.0000
23.0400 213.0000 1.0000
23.0600 224.0000 1.0000
23.0800 223.0000 1.0000
23.1000 245.0000 1.0000
23.1200 241.0000 1.0000
23.1400 247.0000 1.0000
23.1600 264.0000 1.0000
23.1800 270.0000 1.0000
23.2000 257.0000 1.0000
23.2200 308.0000 1.0000
23.2400 325.0000 1.0000
23.2600 328.0000 1.0000
23.2800 354.0000 1.0000
23.3000 369.0000 1.0000
23.3200 410.0000 1.0000
23.3400 424.0000 1.0000
23.3600 442.0000 1.0000
23.3800 470.0000 1.0000
23.4000 508.0000 1.0000
23.4200 508.0000 1.0000
23.4400 499.0000 1.0000
23.4600 479.0000 1.0000
23.4800 474.0000 1.0000
23.5000 457.0000 1.0000
23.5200 433.0000 1.0000
23.5400 393.0000 1.0000
23.5600 360.0000 1.0000
23.5800 353.0000 1.0000
23.6000 338.0000 1.0000
23.6200 335.0000 1.0000
23.6400 341.0000 1.0000
23.6600 318.0000 1.0000
23.6800 323.0000 1.0000
23.7000 297.0000 1.0000
23.7200 292.0000 1.0000
23.7400 291.0000 1.0000
23.7600 284.0000 1.0000
23.7800 318.0000 1.0000
23.8000 288.0000 1.0000
23.8200 271.0000 1.0000
23.8400 296.0000 1.0000
23.8600 310.0000 1.0000
23.8800 328.0000 1.0000
23.9000 307.0000 1.0000
23.9200 351.0000 1.0000
23.9400 372.0000 1.0000
23.9600 400.0000 1.0000
23.9800 403.0000 1.0000
24.0000 421.0000 1.0000
24.0200 436.0000 1.0000
24.0400 467.0000 1.0000
24.0600 490.0000 1.0000
24.0800 479.0000 1.0000
24.1000 495.0000 1.0000
24.1200 467.0000 1.0000
24.1400 473.0000 1.0000
24.1600 435.0000 1.0000
24.1800 431.0000 1.0000
24.2000 406.0000 1.0000
24.2200 370.0000 1.0000
24.2400 353.0000 1.0000
24.2600 373.0000 1.0000
24.2800 355.0000 1.0000
24.3000 353.0000 1.0000
24.3200 344.0000 1.0000
24.3400 322.0000 1.0000
24.3600 312.0000 1.0000
24.3800 293.0000 1.0000
24.4000 319.0000 1.0000
24.4200 313.0000 1.0000
24.4400 284.0000 1.0000
24.4600 266.0000 1.0000
24.4800 239.0000 1.0000
24.5000 266.0000 1.0000
24.5200 258.0000 1.0000
24.5400 243.0000 1.0000
24.5600 243.0000 1.0000
24.5800 229.0000 1.0000
24.6000 214.0000 1.0000
24.6200 234.0000 1.0000
24.6400 238.0000 1.0000
24.6600 247.0000 1.0000
24.6800 260.0000 1.0000
24.7000 243.0000 1.0000
24.7200 250.0000 1.0000
24.7400 245.0000 1.0000
24.7600 259.0000 1.0000
24.7800 256.0000 1.0000
24.8000 254.0000 1.0000
24.8200 294.0000 1.0000
24.8400 291.0000 1.0000
24.8600 268.0000 1.0000
24.8800 278.0000 1.0000
24.9000 301.0000 1.0000
24.9200 297.0000 1.0000
24.9400 323.0000 1.0000
24.9600 333.0000 1.0000
24.9800 348.0000 1.0000
25.0000 340.0000 1.0000
25.0200 349.0000 1.0000
25.0400 371.0000 1.0000
25.0600 427.0000 1.0000
25.0800 444.0000 1.0000
25.1000 435.0000 1.0000
25.1200 453.0000 1.0000
25.1400 474.0000 1.0000
25.1600 507.0000 1.0000
25.1800 542.0000 1.0000
25.2000 594.0000 1.0000
25.2200 635.0000 1.0000
25.2400 661.0000 1.0000
25.2600 723.0000 1.0000
25.2800 794.0000 1.0000
25.3000 871.0000 1.0000
25.3200 975.0000 1.0000
25.3400 1085.0000 1.0000
25.3600 1251.0000 1.0000
25.3800 1414.0000 1.0000
25.4000 1493.0000 1.0000
25.4200 1556.0000 1.0000
25.4400 1508.0000 1.0000
25.4600 1405.0000 1.0000
25.4800 1222.0000 1.0000
25.5000 1024.0000 1.0000
25.5200 883.0000 1.0000
25.5400 758.0000 1.0000
25.5600 640.0000 1.0000
25.5800 567.0000 1.0000
25.6000 504.0000 1.0000
25.6200 458.0000 1.0000
25.6400 429.0000 1.0000
25.6600 400.0000 1.0000
25.6800 376.0000 1.0000
25.7000 376.0000 1.0000
25.7200 384.0000 1.0000
25.7400 364.0000 1.0000
25.7600 330.0000 1.0000
25.7800 343.0000 1.0000
25.8000 384.0000 1.0000
25.8200 367.0000 1.0000
25.8400 347.0000 1.0000
25.8600 351.0000 1.0000
25.8800 367.0000 1.0000
25.9000 385.0000 1.0000
25.9200 379.0000 1.0000
25.9400 376.0000 1.0000
25.9600 385.0000 1.0000
25.9800 400.0000 1.0000
26.0000 410.0000 1.0000
26.0200 435.0000 1.0000
26.0400 468.0000 1.0000
26.0600 517.0000 1.0000
26.0800 521.0000 1.0000
26.1000 558.0000 1.0000
26.1200 619.0000 1.0000
26.1400 677.0000 1.0000
26.1600 770.0000 1.0000
26.1800 850.0000 1.0000
26.2000 921.0000 1.0000
26.2200 1051.0000 1.0000
26.2400 1195.0000 1.0000
26.2600 1356.0000 1.0000
26.2800 1658.0000 1.0000
26.3000 1980.0000 1.0000
26.3200 2327.0000 1.0000
26.3400 2864.0000 1.0000
26.3600 3577.0000 1.0000
26.3800 4537.0000 1.0000
26.4000 5743.0000 1.0000
26.4200 7147.0000 1.0000
26.4400 8378.0000 1.0000
26.4600 9308.0000 1.0000
26.4800 9828.0000 1.0000
26.5000 9659.0000 1.0000
26.5200 8854.0000 1.0000
26.5400 7598.0000 1.0000
26.5600 6004.0000 1.0000
26.5800 4605.0000 1.0000
26.6000 3511.0000 1.0000
26.6200 2506.0000 1.0000
26.6400 1794.0000 1.0000
26.6600 1432.0000 1.0000
26.6800 1139.0000 1.0000
26.7000 963.0000 1.0000
26.7200 891.0000 1.0000
26.7400 804.0000 1.0000
26.7600 747.0000 1.0000
26.7800 728.0000 1.0000
26.8000 719.0000 1.0000
26.8200 669.0000 1.0000
26.8400 637.0000 1.0000
26.8600 626.0000 1.0000
26.8800 605.0000 1.0000
26.9000 585.0000 1.0000
26.9200 579.0000 1.0000
26.9400 561.0000 1.0000
26.9600 535.0000 1.0000
26.9800 518.0000 1.0000
27.0000 468.0000 1.0000
27.0200 431.0000 1.0000
27.0400 426.0000 1.0000
27.0600 406.0000 1.0000
27.0800 411.0000 1.0000
27.1000 422.0000 1.0000
27.1200 391.0000 1.0000
27.1400 390.0000 1.0000
27.1600 403.0000 1.0000
27.1800 386.0000 1.0000
27.2000 438.0000 1.0000
27.2200 452.0000 1.0000
27.2400 459.0000 1.0000
27.2600 510.0000 1.0000
27.2800 549.0000 1.0000
27.3000 564.0000 1.0000
27.3200 584.0000 1.0000
27.3400 636.0000 1.0000
27.3600 667.0000 1.0000
27.3800 683.0000 1.0000
27.4000 657.0000 1.0000
27.4200 649.0000 1.0000
27.4400 673.0000 1.0000
27.4600 676.0000 1.0000
27.4800 687.0000 1.0000
27.5000 724.0000 1.0000
27.5200 796.0000 1.0000
27.5400 843.0000 1.0000
27.5600 900.0000 1.0000
27.5800 959.0000 1.0000
27.6000 987.0000 1.0000
27.6200 991.0000 1.0000
27.6400 990.0000 1.0000
27.6600 1049.0000 1.0000
27.6800 1095.0000 1.0000
27.7000 1109.0000 1.0000
27.7200 1124.0000 1.0000
27.7400 1170.0000 1.0000
27.7600 1230.0000 1.0000
27.7800 1252.0000 1.0000
27.8000 1239.0000 1.0000
27.8200 1178.0000 1.0000
27.8400 1144.0000 1.0000
27.8600 1102.0000 1.0000
27.8800 972.0000 1.0000
27.9000 857.0000 1.0000
27.9200 778.0000 1.0000
27.9400 706.0000 1.0000
27.9600 637.0000 1.0000
27.9800 576.0000 1.0000
28.0000 545.0000 1.0000
28.0200 537.0000 1.0000
28.0400 534.0000 1.0000
28.0600 505.0000 1.0000
28.0800 476.0000 1.0000
28.1000 476.0000 1.0000
28.1200 441.0000 1.0000
28.1400 406.0000 1.0000
28.1600 377.0000 1.0000
28.1800 348.0000 1.0000
28.2000 345.0000 1.0000
28.2200 336.0000 1.0000
28.2400 323.0000 1.0000
28.2600 315.0000 1.0000
28.2800 325.0000 1.0000
28.3000 317.0000 1.0000
28.3200 291.0000 1.0000
28.3400 256.0000 1.0000
28.3600 236.0000 1.0000
28.3800 246.0000 1.0000
28.4000 240.0000 1.0000
28.4200 230.0000 1.0000
28.4400 217.0000 1.0000
28.4600 207.0000 1.0000
28.4800 220.0000 1.0000
28.5000 225.0000 1.0000
28.5200 223.0000 1.0000
28.5400 215.0000 1.0000
28.5600 208.0000 1.0000
28.5800 230.0000 1.0000
28.6000 229.0000 1.0000
28.6200 212.0000 1.0000
28.6400 216.0000 1.0000
28.6600 212.0000 1.0000
28.6800 205.0000 1.0000
28.7000 199.0000 1.0000
28.7200 218.0000 1.0000
28.7400 218.0000 1.0000
28.7600 211.0000 1.0000
28.7800 217.0000 1.0000
28.8000 231.0000 1.0000
28.8200 229.0000 1.0000
28.8400 235.0000 1.0000
28.8600 256.0000 1.0000
28.8800 232.0000 1.0000
28.9000 215.0000 1.0000
28.9200 246.0000 1.0000
28.9400 246.0000 1.0000
28.9600 256.0000 1.0000
28.9800 245.0000 1.0000
29.0000 244.0000 1.0000
29.0200 267.0000 1.0000
29.0400 272.0000 1.0000
29.0600 250.0000 1.0000
29.0800 250.0000 1.0000
29.1000 262.0000 1.0000
29.1200 267.0000 1.0000
29.1400 253.0000 1.0000
29.1600 260.0000 1.0000
29.1800 261.0000 1.0000
29.2000 293.0000 1.0000
29.2200 298.0000 1.0000
29.2400 304.0000 1.0000
29.2600 323.0000 1.0000
29.2800 338.0000 1.0000
29.3000 312.0000 1.0000
29.3200 314.0000 1.0000
29.3400 333.0000 1.0000
29.3600 354.0000 1.0000
29.3800 369.0000 1.0000
29.4000 390.0000 1.0000
29.4200 409.0000 1.0000
29.4400 404.0000 1.0000
29.4600 399.0000 1.0000
29.4800 431.0000 1.0000
29.5000 457.0000 1.0000
29.5200 457.0000 1.0000
29.5400 456.0000 1.0000
29.5600 463.0000 1.0000
29.5800 462.0000 1.0000
29.6000 468.0000 1.0000
29.6200 464.0000 1.0000
29.6400 477.0000 1.0000
29.6600 467.0000 1.0000
29.6800 452.0000 1.0000
29.7000 457.0000 1.0000
29.7200 437.0000 1.0000
29.7400 447.0000 1.0000
29.7600 418.0000 1.0000
29.7800 426.0000 1.0000
29.8000 396.0000 1.0000
29.8200 380.0000 1.0000
29.8400 350.0000 1.0000
29.8600 357.0000 1.0000
29.8800 397.0000 1.0000
29.9000 371.0000 1.0000
29.9200 347.0000 1.0000
29.9400 367.0000 1.0000
29.9600 352.0000 1.0000
29.9800 351.0000 1.0000
30.0000 364.0000 1.0000
30.0200 339.0000 1.0000
30.0400 360.0000 1.0000
30.0600 399.0000 1.0000
30.0800 369.0000 1.0000
30.1000 356.0000 1.0000
30.1200 373.0000 1.0000
30.1400 360.0000 1.0000
30.1600 370.0000 1.0000
30.1800 369.0000 1.0000
30.2000 384.0000 1.0000
30.2200 383.0000 1.0000
30.2400 390.0000 1.0000
30.2600 387.0000 1.0000
30.2800 377.0000 1.0000
30.3000 372.0000 1.0000
30.3200 391.0000 1.0000
30.3400 388.0000 1.0000
30.3600 384.0000 1.0000
30.3800 336.0000 1.0000
30.4000 323.0000 1.0000
30.4200 320.0000 1.0000
30.4400 305.0000 1.0000
30.4600 292.0000 1.0000
30.4800 310.0000 1.0000
30.5000 309.0000 1.0000
30.5200 276.0000 1.0000
30.5400 272.0000 1.0000
30.5600 283.0000 1.0000
30.5800 311.0000 1.0000
30.6000 293.0000 1.0000
30.6200 288.0000 1.0000
30.6400 305.0000 1.0000
30.6600 311.0000 1.0000
30.6800 310.0000 1.0000
30.7000 287.0000 1.0000
30.7200 317.0000 1.0000
30.7400 327.0000 1.0000
30.7600 287.0000 1.0000
30.7800 287.0000 1.0000
30.8000 253.0000 1.0000
30.8200 252.0000 1.0000
30.8400 270.0000 1.0000
30.8600 272.0000 1.0000
30.8800 255.0000 1.0000
30.9000 247.0000 1.0000
30.9200 264.0000 1.0000
30.9400 257.0000 1.0000
30.9600 255.0000 1.0000
30.9800 261.0000 1.0000
31.0000 303.0000 1.0000
31.0200 289.0000 1.0000
31.0400 292.0000 1.0000
31.0600 309.0000 1.0000
31.0800 304.0000 1.0000
31.1000 306.0000 1.0000
31.1200 320.0000 1.0000
31.1400 341.0000 1.0000
31.1600 330.0000 1.0000
31.1800 295.0000 1.0000
31.2000 315.0000 1.0000
31.2200 297.0000 1.0000
31.2400 310.0000 1.0000
31.2600 299.0000 1.0000
31.2800 296.0000 1.0000
31.3000 298.0000 1.0000
31.3200 262.0000 1.0000
31.3400 274.0000 1.0000
31.3600 288.0000 1.0000
31.3800 261.0000 1.0000
31.4000 264.0000 1.0000
31.4200 266.0000 1.0000
31.4400 252.0000 1.0000
31.4600 233.0000 1.0000
31.4800 243.0000 1.0000
31.5000 268.0000 1.0000
31.5200 258.0000 1.0000
31.5400 250.0000 1.0000
31.5600 270.0000 1.0000
31.5800 288.0000 1.0000
31.6000 295.0000 1.0000
31.6200 249.0000 1.0000
31.6400 257.0000 1.0000
31.6600 258.0000 1.0000
31.6800 254.0000 1.0000
31.7000 257.0000 1.0000
31.7200 267.0000 1.0000
31.7400 228.0000 1.0000
31.7600 200.0000 1.0000
31.7800 231.0000 1.0000
31.8000 203.0000 1.0000
31.8200 198.0000 1.0000
31.8400 191.0000 1.0000
31.8600 183.0000 1.0000
31.8800 194.0000 1.0000
31.9000 178.0000 1.0000
31.9200 172.0000 1.0000
31.9400 191.0000 1.0000
31.9600 184.0000 1.0000
31.9800 162.0000 1.0000
32.0000 153.0000 1.0000
32.0200 158.0000 1.0000
32.0400 188.0000 1.0000
32.0600 187.0000 1.0000
32.0800 189.0000 1.0000
32.1000 200.0000 1.0000
32.1200 198.0000 1.0000
32.1400 177.0000 1.0000
32.1600 193.0000 1.0000
32.1800 190.0000 1.0000
32.2000 192.0000 1.0000
32.2200 195.0000 1.0000
32.2400 177.0000 1.0000
32.2600 185.0000 1.0000
32.2800 184.0000 1.0000
32.3000 164.0000 1.0000
32.3200 174.0000 1.0000
32.3400 193.0000 1.0000
32.3600 194.0000 1.0000
32.3800 188.0000 1.0000
32.4000 175.0000 1.0000
32.4200 188.0000 1.0000
32.4400 194.0000 1.0000
32.4600 180.0000 1.0000
32.4800 159.0000 1.0000
32.5000 168.0000 1.0000
32.5200 174.0000 1.0000
32.5400 166.0000 1.0000
32.5600 161.0000 1.0000
32.5800 157.0000 1.0000
32.6000 151.0000 1.0000
32.6200 136.0000 1.0000
32.6400 147.0000 1.0000
32.6600 162.0000 1.0000
32.6800 132.0000 1.0000
32.7000 168.0000 1.0000
32.7200 139.0000 1.0000
32.7400 145.0000 1.0000
32.7600 125.0000 1.0000
32.7800 134.0000 1.0000
32.8000 125.0000 1.0000
32.8200 164.0000 1.0000
32.8400 134.0000 1.0000
32.8600 122.0000 1.0000
32.8800 135.0000 1.0000
32.9000 155.0000 1.0000
32.9200 137.0000 1.0000
32.9400 127.0000 1.0000
32.9600 133.0000 1.0000
32.9800 130.0000 1.0000
33.0000 129.0000 1.0000
33.0200 127.0000 1.0000
33.0400 172.0000 1.0000
33.0600 154.0000 1.0000
33.0800 148.0000 1.0000
33.1000 162.0000 1.0000
33.1200 157.0000 1.0000
33.1400 166.0000 1.0000
33.1600 172.0000 1.0000
33.1800 162.0000 1.0000
33.2000 152.0000 1.0000
33.2200 179.0000 1.0000
33.2400 162.0000 1.0000
33.2600 166.0000 1.0000
33.2800 159.0000 1.0000
33.3000 160.0000 1.0000
33.3200 164.0000 1.0000
33.3400 150.0000 1.0000
33.3600 143.0000 1.0000
33.3800 160.0000 1.0000
33.4000 159.0000 1.0000
33.4200 157.0000 1.0000
33.4400 166.0000 1.0000
33.4600 175.0000 1.0000
33.4800 156.0000 1.0000
33.5000 148.0000 1.0000
33.5200 187.0000 1.0000
33.5400 168.0000 1.0000
33.5600 152.0000 1.0000
33.5800 168.0000 1.0000
33.6000 153.0000 1.0000
33.6200 205.0000 1.0000
33.6400 185.0000 1.0000
33.6600 194.0000 1.0000
33.6800 165.0000 1.0000
33.7000 179.0000 1.0000
33.7200 200.0000 1.0000
33.7400 177.0000 1.0000
33.7600 174.0000 1.0000
33.7800 183.0000 1.0000
33.8000 204.0000 1.0000
33.8200 166.0000 1.0000
33.8400 201.0000 1.0000
33.8600 176.0000 1.0000
33.8800 161.0000 1.0000
33.9000 170.0000 1.0000
33.9200 178.0000 1.0000
33.9400 183.0000 1.0000
33.9600 172.0000 1.0000
33.9800 186.0000 1.0000
34.0000 186.0000 1.0000
34.0200 175.0000 1.0000
34.0400 194.0000 1.0000
34.0600 191.0000 1.0000
34.0800 196.0000 1.0000
34.1000 214.0000 1.0000
34.1200 194.0000 1.0000
34.1400 196.0000 1.0000
34.1600 200.0000 1.0000
34.1800 220.0000 1.0000
34.2000 224.0000 1.0000
34.2200 223.0000 1.0000
34.2400 242.0000 1.0000
34.2600 271.0000 1.0000
34.2800 279.0000 1.0000
34.3000 272.0000 1.0000
34.3200 317.0000 1.0000
34.3400 323.0000 1.0000
34.3600 320.0000 1.0000
34.3800 312.0000 1.0000
34.4000 326.0000 1.0000
34.4200 340.0000 1.0000
34.4400 365.0000 1.0000
34.4600 373.0000 1.0000
34.4800 346.0000 1.0000
34.5000 375.0000 1.0000
34.5200 370.0000 1.0000
34.5400 414.0000 1.0000
34.5600 397.0000 1.0000
34.5800 458.0000 1.0000
34.6000 476.0000 1.0000
34.6200 481.0000 1.0000
34.6400 484.0000 1.0000
34.6600 512.0000 1.0000
34.6800 488.0000 1.0000
34.7000 544.0000 1.0000
34.7200 527.0000 1.0000
34.7400 553.0000 1.0000
34.7600 645.0000 1.0000
34.7800 677.0000 1.0000
34.8000 683.0000 1.0000
34.8200 695.0000 1.0000
34.8400 715.0000 1.0000
34.8600 837.0000 1.0000
34.8800 944.0000 1.0000
34.9000 1113.0000 1.0000
34.9200 1285.0000 1.0000
34.9400 1508.0000 1.0000
34.9600 1678.0000 1.0000
34.9800 1839.0000 1.0000
35.0000 2002.0000 1.0000
35.0200 1906.0000 1.0000
35.0400 1771.0000 1.0000
35.0600 1627.0000 1.0000
35.0800 1386.0000 1.0000
35.1000 1204.0000 1.0000
35.1200 1045.0000 1.0000
35.1400 916.0000 1.0000
35.1600 726.0000 1.0000
35.1800 585.0000 1.0000
35.2000 525.0000 1.0000
35.2200 465.0000 1.0000
35.2400 453.0000 1.0000
35.2600 430.0000 1.0000
35.2800 438.0000 1.0000
35.3000 407.0000 1.0000
35.3200 413.0000 1.0000
35.3400 386.0000 1.0000
35.3600 391.0000 1.0000
35.3800 396.0000 1.0000
35.4000 418.0000 1.0000
35.4200 388.0000 1.0000
35.4400 418.0000 1.0000
35.4600 387.0000 1.0000
35.4800 395.0000 1.0000
35.5000 353.0000 1.0000
35.5200 355.0000 1.0000
35.5400 336.0000 1.0000
35.5600 314.0000 1.0000
35.5800 324.0000 1.0000
35.6000 299.0000 1.0000
35.6200 307.0000 1.0000
35.6400 288.0000 1.0000
35.6600 271.0000 1.0000
35.6800 258.0000 1.0000
35.7000 262.0000 1.0000
35.7200 254.0000 1.0000
35.7400 234.0000 1.0000
35.7600 241.0000 1.0000
35.7800 237.0000 1.0000
35.8000 238.0000 1.0000
35.8200 222.0000 1.0000
35.8400 226.0000 1.0000
35.8600 201.0000 1.0000
35.8800 240.0000 1.0000
35.9000 243.0000 1.0000
35.9200 246.0000 1.0000
35.9400 264.0000 1.0000
35.9600 252.0000 1.0000
35.9800 251.0000 1.0000
36.0000 223.0000 1.0000
36.0200 244.0000 1.0000
36.0400 287.0000 1.0000
36.0600 272.0000 1.0000
36.0800 266.0000 1.0000
36.1000 279.0000 1.0000
36.1200 259.0000 1.0000
36.1400 291.0000 1.0000
36.1600 290.0000 1.0000
36.1800 327.0000 1.0000
36.2000 300.0000 1.0000
36.2200 349.0000 1.0000
36.2400 365.0000 1.0000
36.2600 404.0000 1.0000
36.2800 459.0000 1.0000
36.3000 553.0000 1.0000
36.3200 614.0000 1.0000
36.3400 735.0000 1.0000
36.3600 826.0000 1.0000
36.3800 859.0000 1.0000
36.4000 908.0000 1.0000
36.4200 871.0000 1.0000
36.4400 806.0000 1.0000
36.4600 780.0000 1.0000
36.4800 739.0000 1.0000
36.5000 660.0000 1.0000
36.5200 581.0000 1.0000
36.5400 476.0000 1.0000
36.5600 444.0000 1.0000
36.5800 407.0000 1.0000
36.6000 320.0000 1.0000
36.6200 304.0000 1.0000
36.6400 288.0000 1.0000
36.6600 300.0000 1.0000
36.6800 277.0000 1.0000
36.7000 267.0000 1.0000
36.7200 258.0000 1.0000
36.7400 272.0000 1.0000
36.7600 268.0000 1.0000
36.7800 232.0000 1.0000
36.8000 242.0000 1.0000
36.8200 252.0000 1.0000
36.8400 262.0000 1.0000
36.8600 258.0000 1.0000
36.8800 238.0000 1.0000
36.9000 252.0000 1.0000
36.9200 250.0000 1.0000
36.9400 246.0000 1.0000
36.9600 243.0000 1.0000
36.9800 234.0000 1.0000
37.0000 246.0000 1.0000
37.0200 219.0000 1.0000
37.0400 264.0000 1.0000
37.0600 250.0000 1.0000
37.0800 233.0000 1.0000
37.1000 243.0000 1.0000
37.1200 212.0000 1.0000
37.1400 208.0000 1.0000
37.1600 228.0000 1.0000
37.1800 238.0000 1.0000
37.2000 249.0000 1.0000
37.2200 242.0000 1.0000
37.2400 251.0000 1.0000
37.2600 278.0000 1.0000
37.2800 272.0000 1.0000
37.3000 277.0000 1.0000
37.3200 290.0000 1.0000
37.3400 273.0000 1.0000
37.3600 276.0000 1.0000
37.3800 304.0000 1.0000
37.4000 309.0000 1.0000
37.4200 303.0000 1.0000
37.4400 298.0000 1.0000
37.4600 349.0000 1.0000
37.4800 379.0000 1.0000
37.5000 424.0000 1.0000
37.5200 480.0000 1.0000
37.5400 592.0000 1.0000
37.5600 660.0000 1.0000
37.5800 695.0000 1.0000
37.6000 826.0000 1.0000
37.6200 861.0000 1.0000
37.6400 886.0000 1.0000
37.6600 838.0000 1.0000
37.6800 753.0000 1.0000
37.7000 679.0000 1.0000
37.7200 583.0000 1.0000
37.7400 534.0000 1.0000
37.7600 440.0000 1.0000
37.7800 388.0000 1.0000
37.8000 314.0000 1.0000
37.8200 266.0000 1.0000
37.8400 241.0000 1.0000
37.8600 211.0000 1.0000
37.8800 198.0000 1.0000
37.9000 197.0000 1.0000
37.9200 194.0000 1.0000
37.9400 197.0000 1.0000
37.9600 187.0000 1.0000
37.9800 191.0000 1.0000
38.0000 175.0000 1.0000
38.0200 161.0000 1.0000
38.0400 162.0000 1.0000
38.0600 161.0000 1.0000
38.0800 144.0000 1.0000
38.1000 144.0000 1.0000
38.1200 155.0000 1.0000
38.1400 149.0000 1.0000
38.1600 147.0000 1.0000
38.1800 155.0000 1.0000
38.2000 156.0000 1.0000
38.2200 158.0000 1.0000
38.2400 144.0000 1.0000
38.2600 145.0000 1.0000
38.2800 151.0000 1.0000
38.3000 155.0000 1.0000
38.3200 162.0000 1.0000
38.3400 167.0000 1.0000
38.3600 149.0000 1.0000
38.3800 136.0000 1.0000
38.4000 152.0000 1.0000
38.4200 148.0000 1.0000
38.4400 150.0000 1.0000
38.4600 143.0000 1.0000
38.4800 147.0000 1.0000
38.5000 149.0000 1.0000
38.5200 158.0000 1.0000
38.5400 158.0000 1.0000
38.5600 173.0000 1.0000
38.5800 163.0000 1.0000
38.6000 155.0000 1.0000
38.6200 147.0000 1.0000
38.6400 156.0000 1.0000
38.6600 164.0000 1.0000
38.6800 157.0000 1.0000
38.7000 147.0000 1.0000
38.7200 162.0000 1.0000
38.7400 169.0000 1.0000
38.7600 159.0000 1.0000
38.7800 151.0000 1.0000
38.8000 155.0000 1.0000
38.8200 165.0000 1.0000
38.8400 161.0000 1.0000
38.8600 164.0000 1.0000
38.8800 166.0000 1.0000
38.9000 157.0000 1.0000
38.9200 168.0000 1.0000
38.9400 177.0000 1.0000
38.9600 181.0000 1.0000
38.9800 210.0000 1.0000
39.0000 198.0000 1.0000
39.0200 189.0000 1.0000
39.0400 182.0000 1.0000
39.0600 175.0000 1.0000
39.0800 178.0000 1.0000
39.1000 188.0000 1.0000
39.1200 201.0000 1.0000
39.1400 237.0000 1.0000
39.1600 259.0000 1.0000
39.1800 276.0000 1.0000
39.2000 329.0000 1.0000
39.2200 372.0000 1.0000
39.2400 454.0000 1.0000
39.2600 552.0000 1.0000
39.2800 636.0000 1.0000
39.3000 705.0000 1.0000
39.3200 728.0000 1.0000
39.3400 714.0000 1.0000
39.3600 689.0000 1.0000
39.3800 629.0000 1.0000
39.4000 561.0000 1.0000
39.4200 488.0000 1.0000
39.4400 434.0000 1.0000
39.4600 379.0000 1.0000
39.4800 327.0000 1.0000
39.5000 278.0000 1.0000
39.5200 227.0000 1.0000
39.5400 209.0000 1.0000
39.5600 189.0000 1.0000
39.5800 185.0000 1.0000
39.6000 183.0000 1.0000
39.6200 183.0000 1.0000
39.6400 183.0000 1.0000
39.6600 170.0000 1.0000
39.6800 162.0000 1.0000
39.7000 160.0000 1.0000
39.7200 156.0000 1.0000
39.7400 165.0000 1.0000
39.7600 189.0000 1.0000
39.7800 181.0000 1.0000
39.8000 158.0000 1.0000
39.8200 164.0000 1.0000
39.8400 187.0000 1.0000
39.8600 179.0000 1.0000
39.8800 183.0000 1.0000
39.9000 195.0000 1.0000
39.9200 197.0000 1.0000
39.9400 203.0000 1.0000
39.9600 214.0000 1.0000
39.9800 213.0000 1.0000
40.0000 242.0000 1.0000
40.0200 289.0000 1.0000
40.0400 309.0000 1.0000
40.0600 322.0000 1.0000
40.0800 342.0000 1.0000
40.1000 381.0000 1.0000
40.1200 417.0000 1.0000
40.1400 422.0000 1.0000
40.1600 411.0000 1.0000
40.1800 391.0000 1.0000
40.2000 377.0000 1.0000
40.2200 370.0000 1.0000
40.2400 359.0000 1.0000
40.2600 331.0000 1.0000
40.2800 296.0000 1.0000
40.3000 265.0000 1.0000
40.3200 234.0000 1.0000
40.3400 226.0000 1.0000
40.3600 205.0000 1.0000
40.3800 188.0000 1.0000
40.4000 198.0000 1.0000
40.4200 196.0000 1.0000
40.4400 195.0000 1.0000
40.4600 194.0000 1.0000
40.4800 184.0000 1.0000
40.5000 192.0000 1.0000
40.5200 188.0000 1.0000
40.5400 186.0000 1.0000
40.5600 194.0000 1.0000
40.5800 186.0000 1.0000
40.6000 191.0000 1.0000
40.6200 193.0000 1.0000
40.6400 191.0000 1.0000
40.6600 203.0000 1.0000
40.6800 194.0000 1.0000
40.7000 173.0000 1.0000
40.7200 178.0000 1.0000
40.7400 193.0000 1.0000
40.7600 185.0000 1.0000
40.7800 178.0000 1.0000
40.8000 177.0000 1.0000
40.8200 166.0000 1.0000
40.8400 183.0000 1.0000
40.8600 182.0000 1.0000
40.8800 173.0000 1.0000
40.9000 187.0000 1.0000
40.9200 173.0000 1.0000
40.9400 183.0000 1.0000
40.9600 192.0000 1.0000
40.9800 166.0000 1.0000
41.0000 168.0000 1.0000
41.0200 171.0000 1.0000
41.0400 173.0000 1.0000
41.0600 181.0000 1.0000
41.0800 184.0000 1.0000
41.1000 197.0000 1.0000
41.1200 187.0000 1.0000
41.1400 165.0000 1.0000
41.1600 167.0000 1.0000
41.1800 168.0000 1.0000
41.2000 165.0000 1.0000
41.2200 155.0000 1.0000
41.2400 169.0000 1.0000
41.2600 172.0000 1.0000
41.2800 168.0000 1.0000
41.3000 175.0000 1.0000
41.3200 173.0000 1.0000
41.3400 162.0000 1.0000
41.3600 158.0000 1.0000
41.3800 174.0000 1.0000
41.4000 182.0000 1.0000
41.4200 176.0000 1.0000
41.4400 189.0000 1.0000
41.4600 202.0000 1.0000
41.4800 212.0000 1.0000
41.5000 214.0000 1.0000
41.5200 218.0000 1.0000
41.5400 213.0000 1.0000
41.5600 209.0000 1.0000
41.5800 235.0000 1.0000
41.6000 227.0000 1.0000
41.6200 208.0000 1.0000
41.6400 221.0000 1.0000
41.6600 224.0000 1.0000
41.6800 231.0000 1.0000
41.7000 225.0000 1.0000
41.7200 195.0000 1.0000
41.7400 200.0000 1.0000
41.7600 223.0000 1.0000
41.7800 215.0000 1.0000
41.8000 226.0000 1.0000
41.8200 240.0000 1.0000
41.8400 231.0000 1.0000
41.8600 224.0000 1.0000
41.8800 212.0000 1.0000
41.9000 225.0000 1.0000
41.9200 241.0000 1.0000
41.9400 239.0000 1.0000
41.9600 265.0000 1.0000
41.9800 276.0000 1.0000
42.0000 271.0000 1.0000
42.0200 267.0000 1.0000
42.0400 274.0000 1.0000
42.0600 287.0000 1.0000
42.0800 281.0000 1.0000
42.1000 268.0000 1.0000
42.1200 298.0000 1.0000
42.1400 305.0000 1.0000
42.1600 335.0000 1.0000
42.1800 401.0000 1.0000
42.2000 436.0000 1.0000
42.2200 467.0000 1.0000
42.2400 521.0000 1.0000
42.2600 607.0000 1.0000
42.2800 623.0000 1.0000
42.3000 648.0000 1.0000
42.3200 616.0000 1.0000
42.3400 650.0000 1.0000
42.3600 627.0000 1.0000
42.3800 592.0000 1.0000
42.4000 518.0000 1.0000
42.4200 443.0000 1.0000
42.4400 406.0000 1.0000
42.4600 389.0000 1.0000
42.4800 315.0000 1.0000
42.5000 282.0000 1.0000
42.5200 258.0000 1.0000
42.5400 252.0000 1.0000
42.5600 243.0000 1.0000
42.5800 244.0000 1.0000
42.6000 218.0000 1.0000
42.6200 217.0000 1.0000
42.6400 219.0000 1.0000
42.6600 221.0000 1.0000
42.6800 211.0000 1.0000
42.7000 222.0000 1.0000
42.7200 216.0000 1.0000
42.7400 212.0000 1.0000
42.7600 222.0000 1.0000
42.7800 209.0000 1.0000
42.8000 217.0000 1.0000
42.8200 232.0000 1.0000
42.8400 227.0000 1.0000
42.8600 250.0000 1.0000
42.8800 258.0000 1.0000
42.9000 261.0000 1.0000
42.9200 236.0000 1.0000
42.9400 253.0000 1.0000
42.9600 267.0000 1.0000
42.9800 291.0000 1.0000
43.0000 320.0000 1.0000
43.0200 357.0000 1.0000
43.0400 403.0000 1.0000
43.0600 487.0000 1.0000
43.0800 576.0000 1.0000
43.1000 732.0000 1.0000
43.1200 901.0000 1.0000
43.1400 1173.0000 1.0000
43.1600 1396.0000 1.0000
43.1800 1586.0000 1.0000
43.2000 1652.0000 1.0000
43.2200 1756.0000 1.0000
43.2400 1716.0000 1.0000
43.2600 1552.0000 1.0000
43.2800 1348.0000 1.0000
43.3000 1256.0000 1.0000
43.3200 1087.0000 1.0000
43.3400 992.0000 1.0000
43.3600 850.0000 1.0000
43.3800 686.0000 1.0000
43.4000 555.0000 1.0000
43.4200 416.0000 1.0000
43.4400 373.0000 1.0000
43.4600 291.0000 1.0000
43.4800 241.0000 1.0000
43.5000 255.0000 1.0000
43.5200 226.0000 1.0000
43.5400 217.0000 1.0000
43.5600 223.0000 1.0000
43.5800 200.0000 1.0000
43.6000 195.0000 1.0000
43.6200 212.0000 1.0000
43.6400 192.0000 1.0000
43.6600 161.0000 1.0000
43.6800 158.0000 1.0000
43.7000 135.0000 1.0000
43.7200 162.0000 1.0000
43.7400 168.0000 1.0000
43.7600 164.0000 1.0000
43.7800 165.0000 1.0000
43.8000 143.0000 1.0000
43.8200 142.0000 1.0000
43.8400 150.0000 1.0000
43.8600 145.0000 1.0000
43.8800 160.0000 1.0000
43.9000 151.0000 1.0000
43.9200 175.0000 1.0000
43.9400 160.0000 1.0000
43.9600 161.0000 1.0000
43.9800 161.0000 1.0000
44.0000 169.0000 1.0000
44.0200 152.0000 1.0000
44.0400 152.0000 1.0000
44.0600 154.0000 1.0000
44.0800 140.0000 1.0000
44.1000 151.0000 1.0000
44.1200 147.0000 1.0000
44.1400 147.0000 1.0000
44.1600 159.0000 1.0000
44.1800 158.0000 1.0000
44.2000 154.0000 1.0000
44.2200 146.0000 1.0000
44.2400 138.0000 1.0000
44.2600 152.0000 1.0000
44.2800 151.0000 1.0000
44.3000 173.0000 1.0000
44.3200 151.0000 1.0000
44.3400 152.0000 1.0000
44.3600 153.0000 1.0000
44.3800 144.0000 1.0000
44.4000 147.0000 1.0000
44.4200 163.0000 1.0000
44.4400 156.0000 1.0000
44.4600 138.0000 1.0000
44.4800 154.0000 1.0000
44.5000 134.0000 1.0000
44.5200 132.0000 1.0000
44.5400 152.0000 1.0000
44.5600 158.0000 1.0000
44.5800 159.0000 1.0000
44.6000 168.0000 1.0000
44.6200 174.0000 1.0000
44.6400 158.0000 1.0000
44.6600 160.0000 1.0000
44.6800 164.0000 1.0000
44.7000 180.0000 1.0000
44.7200 170.0000 1.0000
44.7400 196.0000 1.0000
44.7600 184.0000 1.0000
44.7800 173.0000 1.0000
44.8000 181.0000 1.0000
44.8200 169.0000 1.0000
44.8400 152.0000 1.0000
44.8600 164.0000 1.0000
44.8800 182.0000 1.0000
44.9000 157.0000 1.0000
44.9200 176.0000 1.0000
44.9400 216.0000 1.0000
44.9600 196.0000 1.0000
44.9800 181.0000 1.0000
45.0000 180.0000 1.0000
45.0200 209.0000 1.0000
45.0400 188.0000 1.0000
45.0600 201.0000 1.0000
45.0800 177.0000 1.0000
45.1000 172.0000 1.0000
45.1200 209.0000 1.0000
45.1400 195.0000 1.0000
45.1600 191.0000 1.0000
45.1800 200.0000 1.0000
45.2000 188.0000 1.0000
45.2200 203.0000 1.0000
45.2400 194.0000 1.0000
45.2600 202.0000 1.0000
45.2800 201.0000 1.0000
45.3000 198.0000 1.0000
45.3200 188.0000 1.0000
45.3400 203.0000 1.0000
45.3600 197.0000 1.0000
45.3800 205.0000 1.0000
45.4000 222.0000 1.0000
45.4200 218.0000 1.0000
45.4400 207.0000 1.0000
45.4600 222.0000 1.0000
45.4800 211.0000 1.0000
45.5000 237.0000 1.0000
45.5200 274.0000 1.0000
45.5400 256.0000 1.0000
45.5600 288.0000 1.0000
45.5800 353.0000 1.0000
45.6000 343.0000 1.0000
45.6200 410.0000 1.0000
45.6400 422.0000 1.0000
45.6600 403.0000 1.0000
45.6800 407.0000 1.0000
45.7000 390.0000 1.0000
45.7200 377.0000 1.0000
45.7400 319.0000 1.0000
45.7600 338.0000 1.0000
45.7800 293.0000 1.0000
45.8000 264.0000 1.0000
45.8200 218.0000 1.0000
45.8400 227.0000 1.0000
45.8600 224.0000 1.0000
45.8800 198.0000 1.0000
45.9000 178.0000 1.0000
45.9200 173.0000 1.0000
45.9400 151.0000 1.0000
45.9600 165.0000 1.0000
45.9800 190.0000 1.0000
46.0000 193.0000 1.0000
46.0200 158.0000 1.0000
46.0400 164.0000 1.0000
46.0600 155.0000 1.0000
46.0800 153.0000 1.0000
46.1000 160.0000 1.0000
46.1200 152.0000 1.0000
46.1400 159.0000 1.0000
46.1600 162.0000 1.0000
46.1800 154.0000 1.0000
46.2000 143.0000 1.0000
46.2200 153.0000 1.0000
46.2400 141.0000 1.0000
46.2600 157.0000 1.0000
46.2800 143.0000 1.0000
46.3000 118.0000 1.0000
46.3200 127.0000 1.0000
46.3400 121.0000 1.0000
46.3600 137.0000 1.0000
46.3800 127.0000 1.0000
46.4000 122.0000 1.0000
46.4200 140.0000 1.0000
46.4400 133.0000 1.0000
46.4600 126.0000 1.0000
46.4800 104.0000 1.0000
46.5000 122.0000 1.0000
46.5200 147.0000 1.0000
46.5400 120.0000 1.0000
46.5600 94.0000 1.0000
46.5800 136.0000 1.0000
46.6000 128.0000 1.0000
46.6200 121.0000 1.0000
46.6400 119.0000 1.0000
46.6600 109.0000 1.0000
46.6800 112.0000 1.0000
46.7000 132.0000 1.0000
46.7200 135.0000 1.0000
46.7400 119.0000 1.0000
46.7600 119.0000 1.0000
46.7800 138.0000 1.0000
46.8000 145.0000 1.0000
46.8200 126.0000 1.0000
46.8400 112.0000 1.0000
46.8600 115.0000 1.0000
46.8800 139.0000 1.0000
46.9000 127.0000 1.0000
46.9200 155.0000 1.0000
46.9400 136.0000 1.0000
46.9600 137.0000 1.0000
46.9800 142.0000 1.0000
47.0000 128.0000 1.0000
47.0200 125.0000 1.0000
47.0400 143.0000 1.0000
47.0600 137.0000 1.0000
47.0800 143.0000 1.0000
47.1000 127.0000 1.0000
47.1200 108.0000 1.0000
47.1400 116.0000 1.0000
47.1600 115.0000 1.0000
47.1800 128.0000 1.0000
47.2000 135.0000 1.0000
47.2200 129.0000 1.0000
47.2400 121.0000 1.0000
47.2600 117.0000 1.0000
47.2800 117.0000 1.0000
47.3000 120.0000 1.0000
47.3200 122.0000 1.0000
47.3400 117.0000 1.0000
47.3600 127.0000 1.0000
47.3800 128.0000 1.0000
47.4000 126.0000 1.0000
47.4200 120.0000 1.0000
47.4400 120.0000 1.0000
47.4600 125.0000 1.0000
47.4800 117.0000 1.0000
47.5000 127.0000 1.0000
47.5200 135.0000 1.0000
47.5400 125.0000 1.0000
47.5600 120.0000 1.0000
47.5800 126.0000 1.0000
47.6000 123.0000 1.0000
47.6200 105.0000 1.0000
47.6400 123.0000 1.0000
47.6600 136.0000 1.0000
47.6800 120.0000 1.0000
47.7000 114.0000 1.0000
47.7200 124.0000 1.0000
47.7400 140.0000 1.0000
47.7600 135.0000 1.0000
47.7800 132.0000 1.0000
47.8000 126.0000 1.0000
47.8200 125.0000 1.0000
47.8400 130.0000 1.0000
47.8600 145.0000 1.0000
47.8800 132.0000 1.0000
47.9000 133.0000 1.0000
47.9200 145.0000 1.0000
47.9400 145.0000 1.0000
47.9600 140.0000 1.0000
47.9800 152.0000 1.0000
48.0000 147.0000 1.0000
48.0200 135.0000 1.0000
48.0400 129.0000 1.0000
48.0600 141.0000 1.0000
48.0800 140.0000 1.0000
48.1000 133.0000 1.0000
48.1200 139.0000 1.0000
48.1400 152.0000 1.0000
48.1600 149.0000 1.0000
48.1800 144.0000 1.0000
48.2000 141.0000 1.0000
48.2200 144.0000 1.0000
48.2400 154.0000 1.0000
48.2600 155.0000 1.0000
48.2800 152.0000 1.0000
48.3000 166.0000 1.0000
48.3200 158.0000 1.0000
48.3400 138.0000 1.0000
48.3600 138.0000 1.0000
48.3800 148.0000 1.0000
48.4000 154.0000 1.0000
48.4200 151.0000 1.0000
48.4400 149.0000 1.0000
48.4600 146.0000 1.0000
48.4800 142.0000 1.0000
48.5000 144.0000 1.0000
48.5200 138.0000 1.0000
48.5400 146.0000 1.0000
48.5600 151.0000 1.0000
48.5800 158.0000 1.0000
48.6000 162.0000 1.0000
48.6200 152.0000 1.0000
48.6400 146.0000 1.0000
48.6600 145.0000 1.0000
48.6800 149.0000 1.0000
48.7000 139.0000 1.0000
48.7200 141.0000 1.0000
48.7400 156.0000 1.0000
48.7600 151.0000 1.0000
48.7800 135.0000 1.0000
48.8000 149.0000 1.0000
48.8200 170.0000 1.0000
48.8400 167.0000 1.0000
48.8600 169.0000 1.0000
48.8800 162.0000 1.0000
48.9000 170.0000 1.0000
48.9200 176.0000 1.0000
48.9400 181.0000 1.0000
48.9600 204.0000 1.0000
48.9800 201.0000 1.0000
49.0000 187.0000 1.0000
49.0200 185.0000 1.0000
49.0400 195.0000 1.0000
49.0600 204.0000 1.0000
49.0800 228.0000 1.0000
49.1000 221.0000 1.0000
49.1200 205.0000 1.0000
49.1400 194.0000 1.0000
49.1600 184.0000 1.0000
49.1800 187.0000 1.0000
49.2000 184.0000 1.0000
49.2200 176.0000 1.0000
49.2400 173.0000 1.0000
49.2600 172.0000 1.0000
49.2800 173.0000 1.0000
49.3000 170.0000 1.0000
49.3200 158.0000 1.0000
49.3400 164.0000 1.0000
49.3600 185.0000 1.0000
49.3800 180.0000 1.0000
49.4000 168.0000 1.0000
49.4200 166.0000 1.0000
49.4400 174.0000 1.0000
49.4600 186.0000 1.0000
49.4800 185.0000 1.0000
49.5000 175.0000 1.0000
49.5200 182.0000 1.0000
49.5400 209.0000 1.0000
49.5600 222.0000 1.0000
49.5800 214.0000 1.0000
49.6000 204.0000 1.0000
49.6200 211.0000 1.0000
49.6400 213.0000 1.0000
49.6600 204.0000 1.0000
49.6800 209.0000 1.0000
49.7000 236.0000 1.0000
49.7200 248.0000 1.0000
49.7400 261.0000 1.0000
49.7600 248.0000 1.0000
49.7800 268.0000 1.0000
49.8000 310.0000 1.0000
49.8200 351.0000 1.0000
49.8400 377.0000 1.0000
49.8600 448.0000 1.0000
49.8800 541.0000 1.0000
49.9000 635.0000 1.0000
49.9200 754.0000 1.0000
49.9400 841.0000 1.0000
49.9600 968.0000 1.0000
49.9800 1077.0000 1.0000
50.0000 1093.0000 1.0000
50.0200 1064.0000 1.0000
50.0400 1078.0000 1.0000
50.0600 967.0000 1.0000
50.0800 870.0000 1.0000
50.1000 786.0000 1.0000
50.1200 703.0000 1.0000
50.1400 650.0000 1.0000
50.1600 591.0000 1.0000
50.1800 462.0000 1.0000
50.2000 397.0000 1.0000
50.2200 344.0000 1.0000
50.2400 294.0000 1.0000
50.2600 261.0000 1.0000
50.2800 219.0000 1.0000
50.3000 200.0000 1.0000
50.3200 208.0000 1.0000
50.3400 195.0000 1.0000
50.3600 186.0000 1.0000
50.3800 192.0000 1.0000
50.4000 191.0000 1.0000
50.4200 183.0000 1.0000
50.4400 217.0000 1.0000
50.4600 215.0000 1.0000
50.4800 226.0000 1.0000
50.5000 222.0000 1.0000
50.5200 248.0000 1.0000
50.5400 220.0000 1.0000
50.5600 202.0000 1.0000
50.5800 190.0000 1.0000
50.6000 184.0000 1.0000
50.6200 186.0000 1.0000
50.6400 200.0000 1.0000
50.6600 188.0000 1.0000
50.6800 181.0000 1.0000
50.7000 176.0000 1.0000
50.7200 186.0000 1.0000
50.7400 187.0000 1.0000
50.7600 176.0000 1.0000
50.7800 165.0000 1.0000
50.8000 150.0000 1.0000
50.8200 147.0000 1.0000
50.8400 137.0000 1.0000
50.8600 146.0000 1.0000
50.8800 159.0000 1.0000
50.9000 142.0000 1.0000
50.9200 125.0000 1.0000
50.9400 149.0000 1.0000
50.9600 159.0000 1.0000
50.9800 166.0000 1.0000
51.0000 175.0000 1.0000
51.0200 180.0000 1.0000
51.0400 189.0000 1.0000
51.0600 184.0000 1.0000
51.0800 208.0000 1.0000
51.1000 164.0000 1.0000
51.1200 189.0000 1.0000
51.1400 182.0000 1.0000
51.1600 173.0000 1.0000
51.1800 167.0000 1.0000
51.2000 171.0000 1.0000
51.2200 173.0000 1.0000
51.2400 148.0000 1.0000
51.2600 170.0000 1.0000
51.2800 172.0000 1.0000
51.3000 160.0000 1.0000
51.3200 148.0000 1.0000
51.3400 158.0000 1.0000
51.3600 154.0000 1.0000
51.3800 136.0000 1.0000
51.4000 136.0000 1.0000
51.4200 152.0000 1.0000
51.4400 156.0000 1.0000
51.4600 161.0000 1.0000
51.4800 142.0000 1.0000
51.5000 135.0000 1.0000
51.5200 131.0000 1.0000
51.5400 139.0000 1.0000
51.5600 144.0000 1.0000
51.5800 128.0000 1.0000
51.6000 141.0000 1.0000
51.6200 124.0000 1.0000
51.6400 109.0000 1.0000
51.6600 129.0000 1.0000
51.6800 111.0000 1.0000
51.7000 140.0000 1.0000
51.7200 122.0000 1.0000
51.7400 141.0000 1.0000
51.7600 123.0000 1.0000
51.7800 108.0000 1.0000
51.8000 144.0000 1.0000
51.8200 130.0000 1.0000
51.8400 132.0000 1.0000
51.8600 149.0000 1.0000
51.8800 126.0000 1.0000
51.9000 130.0000 1.0000
51.9200 132.0000 1.0000
51.9400 140.0000 1.0000
51.9600 144.0000 1.0000
51.9800 153.0000 1.0000
52.0000 131.0000 1.0000
52.0200 160.0000 1.0000
52.0400 162.0000 1.0000
52.0600 191.0000 1.0000
52.0800 168.0000 1.0000
52.1000 186.0000 1.0000
52.1200 160.0000 1.0000
52.1400 175.0000 1.0000
52.1600 176.0000 1.0000
52.1800 181.0000 1.0000
52.2000 206.0000 1.0000
52.2200 231.0000 1.0000
52.2400 244.0000 1.0000
52.2600 260.0000 1.0000
52.2800 292.0000 1.0000
52.3000 382.0000 1.0000
52.3200 422.0000 1.0000
52.3400 522.0000 1.0000
52.3600 604.0000 1.0000
52.3800 703.0000 1.0000
52.4000 749.0000 1.0000
52.4200 821.0000 1.0000
52.4400 783.0000 1.0000
52.4600 792.0000 1.0000
52.4800 641.0000 1.0000
52.5000 639.0000 1.0000
52.5200 596.0000 1.0000
52.5400 555.0000 1.0000
52.5600 512.0000 1.0000
52.5800 467.0000 1.0000
52.6000 456.0000 1.0000
52.6200 361.0000 1.0000
52.6400 317.0000 1.0000
52.6600 259.0000 1.0000
52.6800 275.0000 1.0000
52.7000 205.0000 1.0000
52.7200 199.0000 1.0000
52.7400 189.0000 1.0000
52.7600 174.0000 1.0000
52.7800 161.0000 1.0000
52.8000 152.0000 1.0000
52.8200 178.0000 1.0000
52.8400 168.0000 1.0000
52.8600 163.0000 1.0000
52.8800 158.0000 1.0000
52.9000 167.0000 1.0000
52.9200 164.0000 1.0000
52.9400 148.0000 1.0000
52.9600 166.0000 1.0000
52.9800 166.0000 1.0000
53.0000 168.0000 1.0000
53.0200 164.0000 1.0000
53.0400 201.0000 1.0000
53.0600 165.0000 1.0000
53.0800 155.0000 1.0000
53.1000 168.0000 1.0000
53.1200 171.0000 1.0000
53.1400 157.0000 1.0000
53.1600 161.0000 1.0000
53.1800 165.0000 1.0000
53.2000 172.0000 1.0000
53.2200 176.0000 1.0000
53.2400 145.0000 1.0000
53.2600 148.0000 1.0000
53.2800 170.0000 1.0000
53.3000 154.0000 1.0000
53.3200 144.0000 1.0000
53.3400 143.0000 1.0000
53.3600 145.0000 1.0000
53.3800 158.0000 1.0000
53.4000 149.0000 1.0000
53.4200 167.0000 1.0000
53.4400 170.0000 1.0000
53.4600 156.0000 1.0000
53.4800 151.0000 1.0000
53.5000 145.0000 1.0000
53.5200 152.0000 1.0000
53.5400 130.0000 1.0000
53.5600 142.0000 1.0000
53.5800 156.0000 1.0000
53.6000 149.0000 1.0000
53.6200 155.0000 1.0000
53.6400 153.0000 1.0000
53.6600 149.0000 1.0000
53.6800 135.0000 1.0000
53.7000 153.0000 1.0000
53.7200 154.0000 1.0000
53.7400 165.0000 1.0000
53.7600 152.0000 1.0000
53.7800 153.0000 1.0000
53.8000 156.0000 1.0000
53.8200 159.0000 1.0000
53.8400 162.0000 1.0000
53.8600 144.0000 1.0000
53.8800 151.0000 1.0000
53.9000 164.0000 1.0000
53.9200 145.0000 1.0000
53.9400 149.0000 1.0000
53.9600 174.0000 1.0000
53.9800 168.0000 1.0000
54.0000 171.0000 1.0000
54.0200 157.0000 1.0000
54.0400 159.0000 1.0000
54.0600 165.0000 1.0000
54.0800 154.0000 1.0000
54.1000 157.0000 1.0000
54.1200 175.0000 1.0000
54.1400 166.0000 1.0000
54.1600 156.0000 1.0000
54.1800 155.0000 1.0000
54.2000 160.0000 1.0000
54.2200 180.0000 1.0000
54.2400 168.0000 1.0000
54.2600 162.0000 1.0000
54.2800 185.0000 1.0000
54.3000 169.0000 1.0000
54.3200 177.0000 1.0000
54.3400 176.0000 1.0000
54.3600 178.0000 1.0000
54.3800 156.0000 1.0000
54.4000 171.0000 1.0000
54.4200 181.0000 1.0000
54.4400 171.0000 1.0000
54.4600 178.0000 1.0000
54.4800 185.0000 1.0000
54.5000 195.0000 1.0000
54.5200 203.0000 1.0000
54.5400 190.0000 1.0000
54.5600 202.0000 1.0000
54.5800 219.0000 1.0000
54.6000 240.0000 1.0000
54.6200 255.0000 1.0000
54.6400 283.0000 1.0000
54.6600 326.0000 1.0000
54.6800 357.0000 1.0000
54.7000 399.0000 1.0000
54.7200 419.0000 1.0000
54.7400 427.0000 1.0000
54.7600 418.0000 1.0000
54.7800 390.0000 1.0000
54.8000 361.0000 1.0000
54.8200 371.0000 1.0000
54.8400 356.0000 1.0000
54.8600 322.0000 1.0000
54.8800 327.0000 1.0000
54.9000 298.0000 1.0000
54.9200 284.0000 1.0000
54.9400 287.0000 1.0000
54.9600 263.0000 1.0000
54.9800 238.0000 1.0000
55.0000 225.0000 1.0000
55.0200 209.0000 1.0000
55.0400 218.0000 1.0000
55.0600 219.0000 1.0000
55.0800 228.0000 1.0000
55.1000 235.0000 1.0000
55.1200 250.0000 1.0000
55.1400 256.0000 1.0000
55.1600 264.0000 1.0000
55.1800 276.0000 1.0000
55.2000 279.0000 1.0000
55.2200 264.0000 1.0000
55.2400 264.0000 1.0000
55.2600 255.0000 1.0000
55.2800 227.0000 1.0000
55.3000 220.0000 1.0000
55.3200 224.0000 1.0000
55.3400 234.0000 1.0000
55.3600 228.0000 1.0000
55.3800 212.0000 1.0000
55.4000 206.0000 1.0000
55.4200 208.0000 1.0000
55.4400 192.0000 1.0000
55.4600 182.0000 1.0000
55.4800 194.0000 1.0000
55.5000 188.0000 1.0000
55.5200 168.0000 1.0000
55.5400 173.0000 1.0000
55.5600 179.0000 1.0000
55.5800 164.0000 1.0000
55.6000 169.0000 1.0000
55.6200 183.0000 1.0000
55.6400 178.0000 1.0000
55.6600 168.0000 1.0000
55.6800 165.0000 1.0000
55.7000 170.0000 1.0000
55.7200 168.0000 1.0000
55.7400 169.0000 1.0000
55.7600 168.0000 1.0000
55.7800 152.0000 1.0000
55.8000 138.0000 1.0000
55.8200 150.0000 1.0000
55.8400 173.0000 1.0000
55.8600 163.0000 1.0000
55.8800 158.0000 1.0000
55.9000 154.0000 1.0000
55.9200 151.0000 1.0000
55.9400 156.0000 1.0000
55.9600 146.0000 1.0000
55.9800 153.0000 1.0000
56.0000 162.0000 1.0000
56.0200 160.0000 1.0000
56.0400 167.0000 1.0000
56.0600 171.0000 1.0000
56.0800 169.0000 1.0000
56.1000 164.0000 1.0000
56.1200 169.0000 1.0000
56.1400 164.0000 1.0000
56.1600 163.0000 1.0000
56.1800 180.0000 1.0000
56.2000 165.0000 1.0000
56.2200 173.0000 1.0000
56.2400 164.0000 1.0000
56.2600 140.0000 1.0000
56.2800 167.0000 1.0000
56.3000 181.0000 1.0000
56.3200 170.0000 1.0000
56.3400 166.0000 1.0000
56.3600 169.0000 1.0000
56.3800 184.0000 1.0000
56.4000 181.0000 1.0000
56.4200 186.0000 1.0000
56.4400 195.0000 1.0000
56.4600 180.0000 1.0000
56.4800 176.0000 1.0000
56.5000 189.0000 1.0000
56.5200 188.0000 1.0000
56.5400 189.0000 1.0000
56.5600 197.0000 1.0000
56.5800 180.0000 1.0000
56.6000 156.0000 1.0000
56.6200 160.0000 1.0000
56.6400 180.0000 1.0000
56.6600 166.0000 1.0000
56.6800 159.0000 1.0000
56.7000 165.0000 1.0000
56.7200 176.0000 1.0000
56.7400 181.0000 1.0000
56.7600 161.0000 1.0000
56.7800 158.0000 1.0000
56.8000 170.0000 1.0000
56.8200 168.0000 1.0000
56.8400 147.0000 1.0000
56.8600 159.0000 1.0000
56.8800 168.0000 1.0000
56.9000 162.0000 1.0000
56.9200 168.0000 1.0000
56.9400 165.0000 1.0000
56.9600 169.0000 1.0000
56.9800 183.0000 1.0000
57.0000 205.0000 1.0000
57.0200 215.0000 1.0000
57.0400 224.0000 1.0000
57.0600 230.0000 1.0000
57.0800 222.0000 1.0000
57.1000 243.0000 1.0000
57.1200 263.0000 1.0000
57.1400 265.0000 1.0000
57.1600 281.0000 1.0000
57.1800 302.0000 1.0000
57.2000 342.0000 1.0000
57.2200 400.0000 1.0000
57.2400 470.0000 1.0000
57.2600 562.0000 1.0000
57.2800 709.0000 1.0000
57.3000 905.0000 1.0000
57.3200 1112.0000 1.0000
57.3400 1248.0000 1.0000
57.3600 1367.0000 1.0000
57.3800 1447.0000 1.0000
57.4000 1370.0000 1.0000
57.4200 1246.0000 1.0000
57.4400 1130.0000 1.0000
57.4600 1001.0000 1.0000
57.4800 974.0000 1.0000
57.5000 900.0000 1.0000
57.5200 843.0000 1.0000
57.5400 830.0000 1.0000
57.5600 753.0000 1.0000
57.5800 616.0000 1.0000
57.6000 505.0000 1.0000
57.6200 435.0000 1.0000
57.6400 356.0000 1.0000
57.6600 283.0000 1.0000
57.6800 245.0000 1.0000
57.7000 219.0000 1.0000
57.7200 215.0000 1.0000
57.7400 203.0000 1.0000
57.7600 181.0000 1.0000
57.7800 164.0000 1.0000
57.8000 172.0000 1.0000
57.8200 155.0000 1.0000
57.8400 167.0000 1.0000
57.8600 155.0000 1.0000
57.8800 155.0000 1.0000
57.9000 159.0000 1.0000
57.9200 134.0000 1.0000
57.9400 134.0000 1.0000
57.9600 136.0000 1.0000
57.9800 147.0000 1.0000
58.0000 123.0000 1.0000
58.0200 136.0000 1.0000
58.0400 133.0000 1.0000
58.0600 142.0000 1.0000
58.0800 115.0000 1.0000
58.1000 113.0000 1.0000
58.1200 127.0000 1.0000
58.1400 134.0000 1.0000
58.1600 124.0000 1.0000
58.1800 128.0000 1.0000
58.2000 130.0000 1.0000
58.2200 127.0000 1.0000
58.2400 118.0000 1.0000
58.2600 127.0000 1.0000
58.2800 114.0000 1.0000
58.3000 125.0000 1.0000
58.3200 144.0000 1.0000
58.3400 123.0000 1.0000
58.3600 129.0000 1.0000
58.3800 119.0000 1.0000
58.4000 132.0000 1.0000
58.4200 130.0000 1.0000
58.4400 148.0000 1.0000
58.4600 142.0000 1.0000
58.4800 130.0000 1.0000
58.5000 137.0000 1.0000
58.5200 136.0000 1.0000
58.5400 131.0000 1.0000
58.5600 145.0000 1.0000
58.5800 148.0000 1.0000
58.6000 152.0000 1.0000
58.6200 134.0000 1.0000
58.6400 153.0000 1.0000
58.6600 143.0000 1.0000
58.6800 127.0000 1.0000
58.7000 133.0000 1.0000
58.7200 142.0000 1.0000
58.7400 131.0000 1.0000
58.7600 131.0000 1.0000
58.7800 145.0000 1.0000
58.8000 144.0000 1.0000
58.8200 138.0000 1.0000
58.8400 131.0000 1.0000
58.8600 132.0000 1.0000
58.8800 146.0000 1.0000
58.9000 117.0000 1.0000
58.9200 125.0000 1.0000
58.9400 115.0000 1.0000
58.9600 137.0000 1.0000
58.9800 142.0000 1.0000
59.0000 121.0000 1.0000
59.0200 137.0000 1.0000
59.0400 129.0000 1.0000
59.0600 122.0000 1.0000
59.0800 136.0000 1.0000
59.1000 134.0000 1.0000
59.1200 139.0000 1.0000
59.1400 155.0000 1.0000
59.1600 148.0000 1.0000
59.1800 141.0000 1.0000
59.2000 135.0000 1.0000
59.2200 143.0000 1.0000
59.2400 148.0000 1.0000
59.2600 159.0000 1.0000
59.2800 166.0000 1.0000
59.3000 142.0000 1.0000
59.3200 150.0000 1.0000
59.3400 158.0000 1.0000
59.3600 182.0000 1.0000
59.3800 160.0000 1.0000
59.4000 166.0000 1.0000
59.4200 179.0000 1.0000
59.4400 167.0000 1.0000
59.4600 175.0000 1.0000
59.4800 198.0000 1.0000
59.5000 203.0000 1.0000
59.5200 231.0000 1.0000
59.5400 216.0000 1.0000
59.5600 228.0000 1.0000
59.5800 247.0000 1.0000
59.6000 238.0000 1.0000
59.6200 287.0000 1.0000
59.6400 279.0000 1.0000
59.6600 351.0000 1.0000
59.6800 317.0000 1.0000
59.7000 360.0000 1.0000
59.7200 400.0000 1.0000
59.7400 492.0000 1.0000
59.7600 575.0000 1.0000
59.7800 637.0000 1.0000
59.8000 718.0000 1.0000
59.8200 753.0000 1.0000
59.8400 758.0000 1.0000
59.8600 741.0000 1.0000
59.8800 625.0000 1.0000
59.9000 579.0000 1.0000
59.9200 556.0000 1.0000
59.9400 537.0000 1.0000
59.9600 521.0000 1.0000
59.9800 521.0000 1.0000
60.0000 453.0000 1.0000
60.0200 457.0000 1.0000
60.0400 424.0000 1.0000
60.0600 364.0000 1.0000
60.0800 301.0000 1.0000
60.1000 293.0000 1.0000
60.1200 250.0000 1.0000
60.1400 201.0000 1.0000
60.1600 222.0000 1.0000
60.1800 198.0000 1.0000
60.2000 195.0000 1.0000
60.2200 197.0000 1.0000
60.2400 191.0000 1.0000
60.2600 191.0000 1.0000
60.2800 210.0000 1.0000
60.3000 205.0000 1.0000
60.3200 188.0000 1.0000
60.3400 172.0000 1.0000
60.3600 156.0000 1.0000
60.3800 170.0000 1.0000
60.4000 172.0000 1.0000
60.4200 162.0000 1.0000
60.4400 149.0000 1.0000
60.4600 149.0000 1.0000
60.4800 149.0000 1.0000
60.5000 192.0000 1.0000
60.5200 168.0000 1.0000
60.5400 156.0000 1.0000
60.5600 150.0000 1.0000
60.5800 171.0000 1.0000
60.6000 146.0000 1.0000
60.6200 168.0000 1.0000
60.6400 190.0000 1.0000
60.6600 142.0000 1.0000
60.6800 172.0000 1.0000
60.7000 146.0000 1.0000
60.7200 153.0000 1.0000
60.7400 147.0000 1.0000
60.7600 140.0000 1.0000
60.7800 143.0000 1.0000
60.8000 174.0000 1.0000
60.8200 175.0000 1.0000
60.8400 159.0000 1.0000
60.8600 169.0000 1.0000
60.8800 174.0000 1.0000
60.9000 164.0000 1.0000
60.9200 163.0000 1.0000
60.9400 188.0000 1.0000
60.9600 196.0000 1.0000
60.9800 177.0000 1.0000
61.0000 190.0000 1.0000
61.0200 212.0000 1.0000
61.0400 203.0000 1.0000
61.0600 224.0000 1.0000
61.0800 234.0000 1.0000
61.1000 252.0000 1.0000
61.1200 245.0000 1.0000
61.1400 270.0000 1.0000
61.1600 265.0000 1.0000
61.1800 247.0000 1.0000
61.2000 266.0000 1.0000
61.2200 255.0000 1.0000
61.2400 254.0000 1.0000
61.2600 245.0000 1.0000
61.2800 218.0000 1.0000
61.3000 245.0000 1.0000
61.3200 264.0000 1.0000
61.3400 237.0000 1.0000
61.3600 271.0000 1.0000
61.3800 242.0000 1.0000
61.4000 246.0000 1.0000
61.4200 239.0000 1.0000
61.4400 209.0000 1.0000
61.4600 220.0000 1.0000
61.4800 228.0000 1.0000
61.5000 244.0000 1.0000
61.5200 256.0000 1.0000
61.5400 236.0000 1.0000
61.5600 221.0000 1.0000
61.5800 234.0000 1.0000
61.6000 257.0000 1.0000
61.6200 241.0000 1.0000
61.6400 252.0000 1.0000
61.6600 248.0000 1.0000
61.6800 287.0000 1.0000
61.7000 249.0000 1.0000
61.7200 261.0000 1.0000
61.7400 250.0000 1.0000
61.7600 273.0000 1.0000
61.7800 249.0000 1.0000
61.8000 231.0000 1.0000
61.8200 258.0000 1.0000
61.8400 239.0000 1.0000
61.8600 248.0000 1.0000
61.8800 257.0000 1.0000
61.9000 219.0000 1.0000
61.9200 194.0000 1.0000
61.9400 226.0000 1.0000
61.9600 206.0000 1.0000
61.9800 243.0000 1.0000
62.0000 251.0000 1.0000
62.0200 233.0000 1.0000
62.0400 199.0000 1.0000
62.0600 188.0000 1.0000
62.0800 203.0000 1.0000
62.1000 215.0000 1.0000
62.1200 164.0000 1.0000
62.1400 176.0000 1.0000
62.1600 194.0000 1.0000
62.1800 176.0000 1.0000
62.2000 165.0000 1.0000
62.2200 200.0000 1.0000
62.2400 198.0000 1.0000
62.2600 188.0000 1.0000
62.2800 196.0000 1.0000
62.3000 194.0000 1.0000
62.3200 169.0000 1.0000
62.3400 168.0000 1.0000
62.3600 160.0000 1.0000
62.3800 178.0000 1.0000
62.4000 175.0000 1.0000
62.4200 174.0000 1.0000
62.4400 176.0000 1.0000
62.4600 171.0000 1.0000
62.4800 176.0000 1.0000
62.5000 148.0000 1.0000
62.5200 172.0000 1.0000
62.5400 162.0000 1.0000
62.5600 146.0000 1.0000
62.5800 150.0000 1.0000
62.6000 148.0000 1.0000
62.6200 173.0000 1.0000
62.6400 149.0000 1.0000
62.6600 133.0000 1.0000
62.6800 165.0000 1.0000
62.7000 147.0000 1.0000
62.7200 154.0000 1.0000
62.7400 136.0000 1.0000
62.7600 133.0000 1.0000
62.7800 138.0000 1.0000
62.8000 145.0000 1.0000
62.8200 133.0000 1.0000
62.8400 128.0000 1.0000
62.8600 140.0000 1.0000
62.8800 136.0000 1.0000
62.9000 134.0000 1.0000
62.9200 137.0000 1.0000
62.9400 136.0000 1.0000
62.9600 126.0000 1.0000
62.9800 133.0000 1.0000
63.0000 124.0000 1.0000
63.0200 130.0000 1.0000
63.0400 127.0000 1.0000
63.0600 117.0000 1.0000
63.0800 139.0000 1.0000
63.1000 152.0000 1.0000
63.1200 122.0000 1.0000
63.1400 141.0000 1.0000
63.1600 131.0000 1.0000
63.1800 139.0000 1.0000
63.2000 137.0000 1.0000
63.2200 127.0000 1.0000
63.2400 152.0000 1.0000
63.2600 145.0000 1.0000
63.2800 130.0000 1.0000
63.3000 129.0000 1.0000
63.3200 142.0000 1.0000
63.3400 135.0000 1.0000
63.3600 162.0000 1.0000
63.3800 143.0000 1.0000
63.4000 120.0000 1.0000
63.4200 122.0000 1.0000
63.4400 131.0000 1.0000
63.4600 150.0000 1.0000
63.4800 145.0000 1.0000
63.5000 150.0000 1.0000
63.5200 144.0000 1.0000
63.5400 151.0000 1.0000
63.5600 150.0000 1.0000
63.5800 151.0000 1.0000
63.6000 175.0000 1.0000
63.6200 147.0000 1.0000
63.6400 155.0000 1.0000
63.6600 158.0000 1.0000
63.6800 164.0000 1.0000
63.7000 171.0000 1.0000
63.7200 178.0000 1.0000
63.7400 167.0000 1.0000
63.7600 162.0000 1.0000
63.7800 164.0000 1.0000
63.8000 187.0000 1.0000
63.8200 219.0000 1.0000
63.8400 218.0000 1.0000
63.8600 234.0000 1.0000
63.8800 241.0000 1.0000
63.9000 255.0000 1.0000
63.9200 240.0000 1.0000
63.9400 237.0000 1.0000
63.9600 193.0000 1.0000
63.9800 223.0000 1.0000
64.0000 199.0000 1.0000
64.0200 193.0000 1.0000
64.0400 178.0000 1.0000
64.0600 180.0000 1.0000
64.0800 178.0000 1.0000
64.1000 186.0000 1.0000
64.1200 182.0000 1.0000
64.1400 175.0000 1.0000
64.1600 162.0000 1.0000
64.1800 147.0000 1.0000
64.2000 140.0000 1.0000
64.2200 144.0000 1.0000
64.2400 123.0000 1.0000
64.2600 132.0000 1.0000
64.2800 124.0000 1.0000
64.3000 115.0000 1.0000
64.3200 128.0000 1.0000
64.3400 118.0000 1.0000
64.3600 135.0000 1.0000
64.3800 145.0000 1.0000
64.4000 125.0000 1.0000
64.4200 108.0000 1.0000
64.4400 121.0000 1.0000
64.4600 129.0000 1.0000
64.4800 126.0000 1.0000
64.5000 130.0000 1.0000
64.5200 121.0000 1.0000
64.5400 113.0000 1.0000
64.5600 123.0000 1.0000
64.5800 126.0000 1.0000
64.6000 124.0000 1.0000
64.6200 129.0000 1.0000
64.6400 124.0000 1.0000
64.6600 126.0000 1.0000
64.6800 137.0000 1.0000
64.7000 108.0000 1.0000
64.7200 109.0000 1.0000
64.7400 133.0000 1.0000
64.7600 129.0000 1.0000
64.7800 118.0000 1.0000
64.8000 136.0000 1.0000
64.8200 122.0000 1.0000
64.8400 130.0000 1.0000
64.8600 132.0000 1.0000
64.8800 129.0000 1.0000
64.9000 136.0000 1.0000
64.9200 134.0000 1.0000
64.9400 126.0000 1.0000
64.9600 123.0000 1.0000
64.9800 123.0000 1.0000
65.0000 123.0000 1.0000
*RAS_INT_END
*RAS_DATA_END
