*RAS_DATA_START
*RAS_HEADER_START
*CORR_POS_DB_NAME "Angle Correction ASC6 SC WITH Mono_04082019"
*CORR_POS_GONIO_RADIUS ""
*CORR_POS_NODE_INDEX01 ""
*CORR_POS_NODE_INDEX02 ""
*CORR_POS_NODE_INDEX03 ""
*CORR_POS_NODE_INDEX04 ""
*CORR_POS_NODE_INDEX05 ""
*CORR_POS_NODE_INDEX06 ""
*CORR_POS_NODE_INDEX07 ""
*CORR_POS_NODE_INDEX08 ""
*CORR_POS_NODE_INDEX09 ""
*CORR_POS_NODE_INDEX10 ""
*CORR_POS_NODE_INDEX11 ""
*CORR_POS_NODE_LABEL01 "Si(111)"
*CORR_POS_NODE_LABEL02 "Si(220)"
*CORR_POS_NODE_LABEL03 "Si(311)"
*CORR_POS_NODE_LABEL04 "Si(400)"
*CORR_POS_NODE_LABEL05 "Si(331)"
*CORR_POS_NODE_LABEL06 "Si(422)"
*CORR_POS_NODE_LABEL07 "Si(511)"
*CORR_POS_NODE_LABEL08 "Si(440)"
*CORR_POS_NODE_LABEL09 "Si(531)"
*CORR_POS_NODE_LABEL10 "Si(620)"
*CORR_POS_NODE_LABEL11 "Si(533)"
*CORR_POS_NODE_POS_CALC01 "28.377"
*CORR_POS_NODE_POS_CALC02 "47.2506"
*CORR_POS_NODE_POS_CALC03 "56.0725"
*CORR_POS_NODE_POS_CALC04 "69.0822"
*CORR_POS_NODE_POS_CALC05 "76.3294"
*CORR_POS_NODE_POS_CALC06 "87.9853"
*CORR_POS_NODE_POS_CALC07 "94.9091"
*CORR_POS_NODE_POS_CALC08 "106.668"
*CORR_POS_NODE_POS_CALC09 "114.054"
*CORR_POS_NODE_POS_CALC10 "127.511"
*CORR_POS_NODE_POS_CALC11 "136.864"
*CORR_POS_NODE_POS_MEAS01 "28.5058"
*CORR_POS_NODE_POS_MEAS02 "47.345"
*CORR_POS_NODE_POS_MEAS03 "56.1421"
*CORR_POS_NODE_POS_MEAS04 "69.1304"
*CORR_POS_NODE_POS_MEAS05 "76.366"
*CORR_POS_NODE_POS_MEAS06 "88.0213"
*CORR_POS_NODE_POS_MEAS07 "94.9406"
*CORR_POS_NODE_POS_MEAS08 "106.689"
*CORR_POS_NODE_POS_MEAS09 "114.065"
*CORR_POS_NODE_POS_MEAS10 "127.518"
*CORR_POS_NODE_POS_MEAS11 "136.869"
*CORR_POS_OPT_ATTR "集中法"
*CORR_POS_PARAM_MU ""
*CORR_POS_PARAM_PL ""
*CORR_POS_SEMODEL_TYPE "0"
*CORR_POS_STANDARD_TYPE ""
*CORR_POS_VALUE_ANALYZER "None"
*CORR_POS_VALUE_CMONO "None"
*CORR_POS_VALUE_IMONO "None"
*CORR_POS_VALUE_IS "1.250deg"
*CORR_POS_VALUE_ISL "10.0mm"
*CORR_POS_VALUE_ISOLLER "5.0deg"
*CORR_POS_VALUE_RS1 "1.250deg"
*CORR_POS_VALUE_RS2 "0.3mm"
*CORR_POS_VALUE_RSOLLER "5.0deg"
*CORR_POS_XG_FOCUS_L ""
*CORR_POS_XG_WAVE_TYPE ""
*CORR_POS_XG_WAVE_VALUE ""
*DISP_FMT_X "%.2f"
*DISP_FMT_Y "%.0f"
*DISP_FULLSCALE "6849.6000000000"
*DISP_LINE_COLOR "255.0000000000"
*DISP_LINE_STYLE "0.0000000000"
*DISP_LINE_WIDTH "0.2500000000"
*DISP_NOTE "Collected Data-33"
*DISP_OFFSET_Y "0.0000000000"
*DISP_PEAKSEARCH_UNIT_Y "CPS"
*DISP_RANGE_BOTTOM "0.0000000000"
*DISP_RANGE_LEFT "5.0000000000"
*DISP_RANGE_LOGCUTOFF "0.0100000000"
*DISP_RANGE_RIGHT "65.0000000000"
*DISP_RANGE_TOP "6849.6000000000"
*DISP_SCALE_MODE_Y "0.0000000000"
*DISP_TAB_NAME "Theta/2-Theta"
*DISP_TITLE_Y "Intensity"
*DISP_UNIT_Y "CPS"
*DISP_WINDOW_NAME "MSG_MACROENGINE"
*FILE_COMMENT " "
*FILE_MD5 ""
*FILE_MEMO " "
*FILE_OPERATOR "Administrator"
*FILE_PART_ID "MEAS_PBEA_00223"
*FILE_SAMPLE " "
*FILE_TYPE "RAS_RAW"
*FILE_USERGROUP "System Manager"
*FILE_VERSION "1.0000000000"
*HW_ATTACHMENT_ID "ATT1031"
*HW_ATTACHMENT_NAME "6サンプルチェンジャ|ASC-6"
*HW_COUNTER_ID-0 "CUT0021"
*HW_COUNTER_ID-1 "CUT0020"
*HW_COUNTER_ID-2 "CUT0020"
*HW_COUNTER_ID-3 "CMC0021"
*HW_COUNTER_NAME-0 "SC-70|SC-70"
*HW_COUNTER_NAME-1 "None|None"
*HW_COUNTER_NAME-2 "None|None"
*HW_COUNTER_NAME-3 "検出器モノクロメータ|Detector monochromator"
*HW_COUNTER_SELECT_NAME "SC-70|SC-70"
*HW_ECP_HV "671.5000000000"
*HW_ECP_HV_UNIT "V"
*HW_GONIOMETER_ID "GON0070"
*HW_GONIOMETER_NAME "MiniFlex 300/600|MiniFlex 300/600"
*HW_GONIOMETER_RADIUS-0 "79.0"
*HW_GONIOMETER_RADIUS-1 "91.5"
*HW_GONIOMETER_RADIUS-2 "150.0"
*HW_GONIOMETER_RADIUS-3 "0"
*HW_GONIOMETER_RADIUS-4 "103.4"
*HW_GONIOMETER_RADIUS-5 "150.0"
*HW_GONIOMETER_RADIUS-6 "46.6"
*HW_GONIOMETER_RADIUS-7 "160.0"
*HW_I_OPT_ID-0 "ISL0021"
*HW_I_OPT_ID-1 "ISO0021"
*HW_I_OPT_NAME-0 "発散スリット|Divergence slit"
*HW_I_OPT_NAME-1 "入射平行スリット|Incident parallel slit"
*HW_R_ATTENUATER_AUTOMODE "0"
*HW_R_OPT_ID-0 "RSS0021"
*HW_R_OPT_ID-1 "RSO0021"
*HW_R_OPT_ID-2 "RRS0021"
*HW_R_OPT_NAME-0 "散乱スリット|Scattering slit"
*HW_R_OPT_NAME-1 "受光平行スリット|Receiving soller slit"
*HW_R_OPT_NAME-2 "受光スリット|Receiving slit"
*HW_SAMPLE_HOLDER_ID "SMP0000"
*HW_SAMPLE_HOLDER_NAME "無し|None"
*HW_XG_CURRENT_MAX "15"
*HW_XG_CURRENT_MIN "2"
*HW_XG_CURRENT_RESOLUTION "1"
*HW_XG_CURRENT_UNIT "mA"
*HW_XG_FOCUS "1mm x 10mm"
*HW_XG_FOCUS_TYPE "Normal"
*HW_XG_ID "1060"
*HW_XG_NAME "300W/600W 封入管-B|300W/600W Sealed tube-B"
*HW_XG_TARGET_ATOMIC_NUMBER "29.0000000000"
*HW_XG_TARGET_NAME "Cu"
*HW_XG_TYPE "Hermetic"
*HW_XG_VOLTAGE_MAX "40"
*HW_XG_VOLTAGE_MIN "20"
*HW_XG_VOLTAGE_RESOLUTION "1"
*HW_XG_VOLTAGE_UNIT "kV"
*HW_XG_WATT_MAX "0.600"
*HW_XG_WATT_UNIT "kW"
*HW_XG_WAVE_LENGTH_ALPHA1 "1.540593"
*HW_XG_WAVE_LENGTH_ALPHA2 "1.544414"
*HW_XG_WAVE_LENGTH_BETA "1.392250"
*MEAS_COND_AXIS_NAME-0 "Theta/2-Theta"
*MEAS_COND_AXIS_NAME-1 "Spin"
*MEAS_COND_AXIS_NAME-2 "Change"
*MEAS_COND_AXIS_NAME-3 "Soller(inc.)"
*MEAS_COND_AXIS_NAME-4 "IHS"
*MEAS_COND_AXIS_NAME-5 "DS"
*MEAS_COND_AXIS_NAME-6 "SS"
*MEAS_COND_AXIS_NAME-7 "Soller(rec.)"
*MEAS_COND_AXIS_NAME-8 "RS"
*MEAS_COND_AXIS_NAME-9 "Filter"
*MEAS_COND_AXIS_NAME-10 "Monochromator"
*MEAS_COND_AXIS_NAME-11 "HV"
*MEAS_COND_AXIS_NAME-12 "PHA"
*MEAS_COND_AXIS_NAME_INTERNAL-0 "TwoThetaTheta"
*MEAS_COND_AXIS_NAME_INTERNAL-1 "Spin"
*MEAS_COND_AXIS_NAME_INTERNAL-2 "Change"
*MEAS_COND_AXIS_NAME_INTERNAL-3 "IncidentSollerSlit"
*MEAS_COND_AXIS_NAME_INTERNAL-4 "IncidentAxdSlit"
*MEAS_COND_AXIS_NAME_INTERNAL-5 "IncidentSlitBox"
*MEAS_COND_AXIS_NAME_INTERNAL-6 "ReceivingSlitBox1"
*MEAS_COND_AXIS_NAME_INTERNAL-7 "ReceivingSollerSlit"
*MEAS_COND_AXIS_NAME_INTERNAL-8 "ReceivingSlitBox2"
*MEAS_COND_AXIS_NAME_INTERNAL-9 "Filter"
*MEAS_COND_AXIS_NAME_INTERNAL-10 "CounterMonochromator"
*MEAS_COND_AXIS_NAME_INTERNAL-11 "HV"
*MEAS_COND_AXIS_NAME_INTERNAL-12 "PHA"
*MEAS_COND_AXIS_NAME_MAGICNO-0 "268632064.0000000000"
*MEAS_COND_AXIS_NAME_MAGICNO-1 "16842752.0000000000"
*MEAS_COND_AXIS_NAME_MAGICNO-2 "16842752.0000000000"
*MEAS_COND_AXIS_NAME_MAGICNO-3 "20971521.0000000000"
*MEAS_COND_AXIS_NAME_MAGICNO-4 "22020097.0000000000"
*MEAS_COND_AXIS_NAME_MAGICNO-5 "22020097.0000000000"
*MEAS_COND_AXIS_NAME_MAGICNO-6 "23068673.0000000000"
*MEAS_COND_AXIS_NAME_MAGICNO-7 "20971521.0000000000"
*MEAS_COND_AXIS_NAME_MAGICNO-8 "23068673.0000000000"
*MEAS_COND_AXIS_NAME_MAGICNO-9 "20971521.0000000000"
*MEAS_COND_AXIS_NAME_MAGICNO-10 "20971521.0000000000"
*MEAS_COND_AXIS_NAME_MAGICNO-11 "0.0000000000"
*MEAS_COND_AXIS_NAME_MAGICNO-12 "0.0000000000"
*MEAS_COND_AXIS_OFFSET-0 "0.0000000000"
*MEAS_COND_AXIS_OFFSET-1 "-"
*MEAS_COND_AXIS_OFFSET-2 "-"
*MEAS_COND_AXIS_OFFSET-3 "-"
*MEAS_COND_AXIS_OFFSET-4 "-"
*MEAS_COND_AXIS_OFFSET-5 "-"
*MEAS_COND_AXIS_OFFSET-6 "-"
*MEAS_COND_AXIS_OFFSET-7 "-"
*MEAS_COND_AXIS_OFFSET-8 "-"
*MEAS_COND_AXIS_OFFSET-9 "-"
*MEAS_COND_AXIS_OFFSET-10 "-"
*MEAS_COND_AXIS_OFFSET-11 "-"
*MEAS_COND_AXIS_OFFSET-12 "-"
*MEAS_COND_AXIS_POSITION-0 "10.0000000000"
*MEAS_COND_AXIS_POSITION-1 "0.0000000000"
*MEAS_COND_AXIS_POSITION-2 "1.0000000000"
*MEAS_COND_AXIS_POSITION-3 "5.0deg"
*MEAS_COND_AXIS_POSITION-4 "10.0mm"
*MEAS_COND_AXIS_POSITION-5 "1.250deg"
*MEAS_COND_AXIS_POSITION-6 "1.250deg"
*MEAS_COND_AXIS_POSITION-7 "5.0deg"
*MEAS_COND_AXIS_POSITION-8 "0.3mm"
*MEAS_COND_AXIS_POSITION-9 "None"
*MEAS_COND_AXIS_POSITION-10 "Bent"
*MEAS_COND_AXIS_POSITION-11 "671.5000000000"
*MEAS_COND_AXIS_POSITION-12 "551.2500000000"
*MEAS_COND_AXIS_UNIT-0 "deg"
*MEAS_COND_AXIS_UNIT-1 ""
*MEAS_COND_AXIS_UNIT-2 ""
*MEAS_COND_AXIS_UNIT-3 ""
*MEAS_COND_AXIS_UNIT-4 ""
*MEAS_COND_AXIS_UNIT-5 ""
*MEAS_COND_AXIS_UNIT-6 ""
*MEAS_COND_AXIS_UNIT-7 ""
*MEAS_COND_AXIS_UNIT-8 ""
*MEAS_COND_AXIS_UNIT-9 ""
*MEAS_COND_AXIS_UNIT-10 ""
*MEAS_COND_AXIS_UNIT-11 "V"
*MEAS_COND_AXIS_UNIT-12 "mV"
*MEAS_COND_CORRECTION_SLIT_COUNTERMONO "None"
*MEAS_COND_CORRECTION_SLIT_DS "1.250deg"
*MEAS_COND_CORRECTION_SLIT_FILTER "None"
*MEAS_COND_CORRECTION_SLIT_IHS "10.0mm"
*MEAS_COND_CORRECTION_SLIT_RS "0.3mm"
*MEAS_COND_CORRECTION_SLIT_SOLLER_INC "5.0deg"
*MEAS_COND_CORRECTION_SLIT_SOLLER_REC "5.0deg"
*MEAS_COND_CORRECTION_SLIT_SS "1.250deg"
*MEAS_COND_COUNTER_CNTLOSS_CORR "0.0000000000"
*MEAS_COND_COUNTER_PHABASE "551.2500000000"
*MEAS_COND_COUNTER_PHAWINDOW "926.2500000000"
*MEAS_COND_COUNTER_PHA_UNIT "mV"
*MEAS_COND_COUNTER_TAUDIFF "0.2500000000"
*MEAS_COND_COUNTER_TAUINT "0.7500000000"
*MEAS_COND_IRRADIATION_MODE "OFF"
*MEAS_COND_IRRADIATION_WIDTH ""
*MEAS_COND_OPT_ATTR " "
*MEAS_COND_OPT_NAME ""
*MEAS_COND_UNSYMMETRIC_MODE "OFF"
*MEAS_COND_XG_CURRENT "15.0000000000"
*MEAS_COND_XG_VOLTAGE "40.0000000000"
*MEAS_COND_XG_WAVE_TYPE "Ka"
*MEAS_DATA_COUNT "3001.0000000000"
*MEAS_SCAN_AXIS_X "Theta/2-Theta"
*MEAS_SCAN_AXIS_X_INTERNAL "TwoThetaTheta"
*MEAS_SCAN_END_TIME "05/09/25 18:15:05"
*MEAS_SCAN_MODE "STEP"
*MEAS_SCAN_MONITOR "0"
*MEAS_SCAN_RESOLUTION_X "0.0025"
*MEAS_SCAN_SPEED "2.00"
*MEAS_SCAN_SPEED_UNIT "sec."
*MEAS_SCAN_SPEED_USER "2.00"
*MEAS_SCAN_START "5.0000000000"
*MEAS_SCAN_START_TIME "05/09/25 16:29:55"
*MEAS_SCAN_STEP "0.0200000000"
*MEAS_SCAN_STOP "65.0000000000"
*MEAS_SCAN_UNIT_X "deg"
*MEAS_SCAN_UNIT_Y "counts"
*SLIT_SYSTEM "0"
*RAS_HEADER_END
*RAS_INT_START
5.0000 1076.0000 1.0000
5.0200 1164.0000 1.0000
5.0400 1034.0000 1.0000
5.0600 1066.0000 1.0000
5.0800 1070.0000 1.0000
5.1000 1095.0000 1.0000
5.1200 996.0000 1.0000
5.1400 1097.0000 1.0000
5.1600 1071.0000 1.0000
5.1800 1063.0000 1.0000
5.2000 1189.0000 1.0000
5.2200 1095.0000 1.0000
5.2400 966.0000 1.0000
5.2600 1033.0000 1.0000
5.2800 1082.0000 1.0000
5.3000 1142.0000 1.0000
5.3200 1064.0000 1.0000
5.3400 1084.0000 1.0000
5.3600 1063.0000 1.0000
5.3800 1007.0000 1.0000
5.4000 1041.0000 1.0000
5.4200 968.0000 1.0000
5.4400 1078.0000 1.0000
5.4600 1006.0000 1.0000
5.4800 998.0000 1.0000
5.5000 968.0000 1.0000
5.5200 1012.0000 1.0000
5.5400 1065.0000 1.0000
5.5600 984.0000 1.0000
5.5800 1021.0000 1.0000
5.6000 1047.0000 1.0000
5.6200 1050.0000 1.0000
5.6400 973.0000 1.0000
5.6600 1000.0000 1.0000
5.6800 1095.0000 1.0000
5.7000 1042.0000 1.0000
5.7200 904.0000 1.0000
5.7400 1012.0000 1.0000
5.7600 1044.0000 1.0000
5.7800 979.0000 1.0000
5.8000 1017.0000 1.0000
5.8200 1004.0000 1.0000
5.8400 991.0000 1.0000
5.8600 972.0000 1.0000
5.8800 1010.0000 1.0000
5.9000 956.0000 1.0000
5.9200 991.0000 1.0000
5.9400 1016.0000 1.0000
5.9600 959.0000 1.0000
5.9800 1034.0000 1.0000
6.0000 1012.0000 1.0000
6.0200 1027.0000 1.0000
6.0400 1073.0000 1.0000
6.0600 1094.0000 1.0000
6.0800 1109.0000 1.0000
6.1000 1004.0000 1.0000
6.1200 989.0000 1.0000
6.1400 931.0000 1.0000
6.1600 891.0000 1.0000
6.1800 970.0000 1.0000
6.2000 994.0000 1.0000
6.2200 958.0000 1.0000
6.2400 871.0000 1.0000
6.2600 904.0000 1.0000
6.2800 919.0000 1.0000
6.3000 892.0000 1.0000
6.3200 869.0000 1.0000
6.3400 866.0000 1.0000
6.3600 913.0000 1.0000
6.3800 849.0000 1.0000
6.4000 788.0000 1.0000
6.4200 794.0000 1.0000
6.4400 774.0000 1.0000
6.4600 778.0000 1.0000
6.4800 830.0000 1.0000
6.5000 816.0000 1.0000
6.5200 799.0000 1.0000
6.5400 817.0000 1.0000
6.5600 786.0000 1.0000
6.5800 747.0000 1.0000
6.6000 753.0000 1.0000
6.6200 776.0000 1.0000
6.6400 782.0000 1.0000
6.6600 774.0000 1.0000
6.6800 752.0000 1.0000
6.7000 758.0000 1.0000
6.7200 784.0000 1.0000
6.7400 784.0000 1.0000
6.7600 743.0000 1.0000
6.7800 719.0000 1.0000
6.8000 747.0000 1.0000
6.8200 764.0000 1.0000
6.8400 740.0000 1.0000
6.8600 694.0000 1.0000
6.8800 714.0000 1.0000
6.9000 744.0000 1.0000
6.9200 729.0000 1.0000
6.9400 686.0000 1.0000
6.9600 714.0000 1.0000
6.9800 720.0000 1.0000
7.0000 723.0000 1.0000
7.0200 742.0000 1.0000
7.0400 719.0000 1.0000
7.0600 746.0000 1.0000
7.0800 726.0000 1.0000
7.1000 729.0000 1.0000
7.1200 774.0000 1.0000
7.1400 722.0000 1.0000
7.1600 697.0000 1.0000
7.1800 736.0000 1.0000
7.2000 742.0000 1.0000
7.2200 693.0000 1.0000
7.2400 671.0000 1.0000
7.2600 659.0000 1.0000
7.2800 634.0000 1.0000
7.3000 678.0000 1.0000
7.3200 689.0000 1.0000
7.3400 677.0000 1.0000
7.3600 711.0000 1.0000
7.3800 742.0000 1.0000
7.4000 740.0000 1.0000
7.4200 710.0000 1.0000
7.4400 678.0000 1.0000
7.4600 689.0000 1.0000
7.4800 727.0000 1.0000
7.5000 687.0000 1.0000
7.5200 701.0000 1.0000
7.5400 669.0000 1.0000
7.5600 625.0000 1.0000
7.5800 683.0000 1.0000
7.6000 720.0000 1.0000
7.6200 709.0000 1.0000
7.6400 746.0000 1.0000
7.6600 702.0000 1.0000
7.6800 671.0000 1.0000
7.7000 682.0000 1.0000
7.7200 670.0000 1.0000
7.7400 688.0000 1.0000
7.7600 681.0000 1.0000
7.7800 708.0000 1.0000
7.8000 702.0000 1.0000
7.8200 693.0000 1.0000
7.8400 715.0000 1.0000
7.8600 692.0000 1.0000
7.8800 711.0000 1.0000
7.9000 691.0000 1.0000
7.9200 694.0000 1.0000
7.9400 696.0000 1.0000
7.9600 739.0000 1.0000
7.9800 716.0000 1.0000
8.0000 717.0000 1.0000
8.0200 706.0000 1.0000
8.0400 669.0000 1.0000
8.0600 723.0000 1.0000
8.0800 751.0000 1.0000
8.1000 789.0000 1.0000
8.1200 778.0000 1.0000
8.1400 728.0000 1.0000
8.1600 733.0000 1.0000
8.1800 742.0000 1.0000
8.2000 752.0000 1.0000
8.2200 773.0000 1.0000
8.2400 764.0000 1.0000
8.2600 733.0000 1.0000
8.2800 742.0000 1.0000
8.3000 797.0000 1.0000
8.3200 831.0000 1.0000
8.3400 793.0000 1.0000
8.3600 782.0000 1.0000
8.3800 765.0000 1.0000
8.4000 754.0000 1.0000
8.4200 790.0000 1.0000
8.4400 859.0000 1.0000
8.4600 908.0000 1.0000
8.4800 850.0000 1.0000
8.5000 866.0000 1.0000
8.5200 945.0000 1.0000
8.5400 939.0000 1.0000
8.5600 945.0000 1.0000
8.5800 939.0000 1.0000
8.6000 921.0000 1.0000
8.6200 956.0000 1.0000
8.6400 1049.0000 1.0000
8.6600 1001.0000 1.0000
8.6800 979.0000 1.0000
8.7000 915.0000 1.0000
8.7200 797.0000 1.0000
8.7400 718.0000 1.0000
8.7600 663.0000 1.0000
8.7800 564.0000 1.0000
8.8000 544.0000 1.0000
8.8200 534.0000 1.0000
8.8400 541.0000 1.0000
8.8600 517.0000 1.0000
8.8800 478.0000 1.0000
8.9000 439.0000 1.0000
8.9200 465.0000 1.0000
8.9400 426.0000 1.0000
8.9600 453.0000 1.0000
8.9800 468.0000 1.0000
9.0000 469.0000 1.0000
9.0200 466.0000 1.0000
9.0400 459.0000 1.0000
9.0600 450.0000 1.0000
9.0800 447.0000 1.0000
9.1000 485.0000 1.0000
9.1200 520.0000 1.0000
9.1400 493.0000 1.0000
9.1600 508.0000 1.0000
9.1800 446.0000 1.0000
9.2000 378.0000 1.0000
9.2200 357.0000 1.0000
9.2400 354.0000 1.0000
9.2600 343.0000 1.0000
9.2800 326.0000 1.0000
9.3000 281.0000 1.0000
9.3200 305.0000 1.0000
9.3400 304.0000 1.0000
9.3600 297.0000 1.0000
9.3800 293.0000 1.0000
9.4000 314.0000 1.0000
9.4200 296.0000 1.0000
9.4400 325.0000 1.0000
9.4600 283.0000 1.0000
9.4800 292.0000 1.0000
9.5000 279.0000 1.0000
9.5200 298.0000 1.0000
9.5400 311.0000 1.0000
9.5600 344.0000 1.0000
9.5800 295.0000 1.0000
9.6000 302.0000 1.0000
9.6200 278.0000 1.0000
9.6400 308.0000 1.0000
9.6600 281.0000 1.0000
9.6800 266.0000 1.0000
9.7000 287.0000 1.0000
9.7200 279.0000 1.0000
9.7400 257.0000 1.0000
9.7600 245.0000 1.0000
9.7800 273.0000 1.0000
9.8000 290.0000 1.0000
9.8200 268.0000 1.0000
9.8400 260.0000 1.0000
9.8600 252.0000 1.0000
9.8800 267.0000 1.0000
9.9000 266.0000 1.0000
9.9200 256.0000 1.0000
9.9400 273.0000 1.0000
9.9600 263.0000 1.0000
9.9800 279.0000 1.0000
10.0000 243.0000 1.0000
10.0200 269.0000 1.0000
10.0400 259.0000 1.0000
10.0600 249.0000 1.0000
10.0800 254.0000 1.0000
10.1000 204.0000 1.0000
10.1200 223.0000 1.0000
10.1400 251.0000 1.0000
10.1600 241.0000 1.0000
10.1800 257.0000 1.0000
10.2000 233.0000 1.0000
10.2200 278.0000 1.0000
10.2400 246.0000 1.0000
10.2600 264.0000 1.0000
10.2800 249.0000 1.0000
10.3000 272.0000 1.0000
10.3200 243.0000 1.0000
10.3400 230.0000 1.0000
10.3600 260.0000 1.0000
10.3800 252.0000 1.0000
10.4000 257.0000 1.0000
10.4200 262.0000 1.0000
10.4400 242.0000 1.0000
10.4600 241.0000 1.0000
10.4800 246.0000 1.0000
10.5000 237.0000 1.0000
10.5200 245.0000 1.0000
10.5400 270.0000 1.0000
10.5600 266.0000 1.0000
10.5800 223.0000 1.0000
10.6000 254.0000 1.0000
10.6200 227.0000 1.0000
10.6400 211.0000 1.0000
10.6600 244.0000 1.0000
10.6800 256.0000 1.0000
10.7000 217.0000 1.0000
10.7200 246.0000 1.0000
10.7400 198.0000 1.0000
10.7600 240.0000 1.0000
10.7800 257.0000 1.0000
10.8000 220.0000 1.0000
10.8200 228.0000 1.0000
10.8400 229.0000 1.0000
10.8600 227.0000 1.0000
10.8800 223.0000 1.0000
10.9000 213.0000 1.0000
10.9200 219.0000 1.0000
10.9400 234.0000 1.0000
10.9600 232.0000 1.0000
10.9800 221.0000 1.0000
11.0000 233.0000 1.0000
11.0200 212.0000 1.0000
11.0400 232.0000 1.0000
11.0600 198.0000 1.0000
11.0800 241.0000 1.0000
11.1000 211.0000 1.0000
11.1200 198.0000 1.0000
11.1400 200.0000 1.0000
11.1600 211.0000 1.0000
11.1800 239.0000 1.0000
11.2000 235.0000 1.0000
11.2200 223.0000 1.0000
11.2400 241.0000 1.0000
11.2600 209.0000 1.0000
11.2800 224.0000 1.0000
11.3000 227.0000 1.0000
11.3200 210.0000 1.0000
11.3400 224.0000 1.0000
11.3600 240.0000 1.0000
11.3800 202.0000 1.0000
11.4000 239.0000 1.0000
11.4200 229.0000 1.0000
11.4400 229.0000 1.0000
11.4600 253.0000 1.0000
11.4800 228.0000 1.0000
11.5000 221.0000 1.0000
11.5200 221.0000 1.0000
11.5400 232.0000 1.0000
11.5600 244.0000 1.0000
11.5800 216.0000 1.0000
11.6000 193.0000 1.0000
11.6200 241.0000 1.0000
11.6400 244.0000 1.0000
11.6600 221.0000 1.0000
11.6800 235.0000 1.0000
11.7000 237.0000 1.0000
11.7200 231.0000 1.0000
11.7400 256.0000 1.0000
11.7600 270.0000 1.0000
11.7800 264.0000 1.0000
11.8000 236.0000 1.0000
11.8200 247.0000 1.0000
11.8400 235.0000 1.0000
11.8600 266.0000 1.0000
11.8800 239.0000 1.0000
11.9000 242.0000 1.0000
11.9200 259.0000 1.0000
11.9400 301.0000 1.0000
11.9600 317.0000 1.0000
11.9800 293.0000 1.0000
12.0000 298.0000 1.0000
12.0200 285.0000 1.0000
12.0400 294.0000 1.0000
12.0600 337.0000 1.0000
12.0800 314.0000 1.0000
12.1000 382.0000 1.0000
12.1200 373.0000 1.0000
12.1400 379.0000 1.0000
12.1600 361.0000 1.0000
12.1800 367.0000 1.0000
12.2000 380.0000 1.0000
12.2200 424.0000 1.0000
12.2400 431.0000 1.0000
12.2600 458.0000 1.0000
12.2800 492.0000 1.0000
12.3000 499.0000 1.0000
12.3200 433.0000 1.0000
12.3400 423.0000 1.0000
12.3600 400.0000 1.0000
12.3800 375.0000 1.0000
12.4000 367.0000 1.0000
12.4200 313.0000 1.0000
12.4400 313.0000 1.0000
12.4600 305.0000 1.0000
12.4800 309.0000 1.0000
12.5000 256.0000 1.0000
12.5200 233.0000 1.0000
12.5400 233.0000 1.0000
12.5600 258.0000 1.0000
12.5800 245.0000 1.0000
12.6000 226.0000 1.0000
12.6200 225.0000 1.0000
12.6400 226.0000 1.0000
12.6600 222.0000 1.0000
12.6800 227.0000 1.0000
12.7000 255.0000 1.0000
12.7200 254.0000 1.0000
12.7400 235.0000 1.0000
12.7600 251.0000 1.0000
12.7800 230.0000 1.0000
12.8000 224.0000 1.0000
12.8200 193.0000 1.0000
12.8400 173.0000 1.0000
12.8600 189.0000 1.0000
12.8800 196.0000 1.0000
12.9000 193.0000 1.0000
12.9200 194.0000 1.0000
12.9400 191.0000 1.0000
12.9600 180.0000 1.0000
12.9800 172.0000 1.0000
13.0000 176.0000 1.0000
13.0200 172.0000 1.0000
13.0400 151.0000 1.0000
13.0600 143.0000 1.0000
13.0800 163.0000 1.0000
13.1000 186.0000 1.0000
13.1200 205.0000 1.0000
13.1400 195.0000 1.0000
13.1600 176.0000 1.0000
13.1800 193.0000 1.0000
13.2000 204.0000 1.0000
13.2200 200.0000 1.0000
13.2400 188.0000 1.0000
13.2600 182.0000 1.0000
13.2800 189.0000 1.0000
13.3000 190.0000 1.0000
13.3200 199.0000 1.0000
13.3400 202.0000 1.0000
13.3600 211.0000 1.0000
13.3800 211.0000 1.0000
13.4000 204.0000 1.0000
13.4200 224.0000 1.0000
13.4400 260.0000 1.0000
13.4600 263.0000 1.0000
13.4800 250.0000 1.0000
13.5000 261.0000 1.0000
13.5200 266.0000 1.0000
13.5400 263.0000 1.0000
13.5600 244.0000 1.0000
13.5800 260.0000 1.0000
13.6000 292.0000 1.0000
13.6200 278.0000 1.0000
13.6400 287.0000 1.0000
13.6600 308.0000 1.0000
13.6800 291.0000 1.0000
13.7000 305.0000 1.0000
13.7200 297.0000 1.0000
13.7400 249.0000 1.0000
13.7600 223.0000 1.0000
13.7800 227.0000 1.0000
13.8000 214.0000 1.0000
13.8200 192.0000 1.0000
13.8400 176.0000 1.0000
13.8600 176.0000 1.0000
13.8800 154.0000 1.0000
13.9000 155.0000 1.0000
13.9200 152.0000 1.0000
13.9400 165.0000 1.0000
13.9600 162.0000 1.0000
13.9800 147.0000 1.0000
14.0000 154.0000 1.0000
14.0200 162.0000 1.0000
14.0400 167.0000 1.0000
14.0600 170.0000 1.0000
14.0800 165.0000 1.0000
14.1000 174.0000 1.0000
14.1200 163.0000 1.0000
14.1400 155.0000 1.0000
14.1600 143.0000 1.0000
14.1800 149.0000 1.0000
14.2000 167.0000 1.0000
14.2200 172.0000 1.0000
14.2400 167.0000 1.0000
14.2600 161.0000 1.0000
14.2800 168.0000 1.0000
14.3000 157.0000 1.0000
14.3200 162.0000 1.0000
14.3400 164.0000 1.0000
14.3600 164.0000 1.0000
14.3800 144.0000 1.0000
14.4000 133.0000 1.0000
14.4200 152.0000 1.0000
14.4400 154.0000 1.0000
14.4600 155.0000 1.0000
14.4800 147.0000 1.0000
14.5000 148.0000 1.0000
14.5200 164.0000 1.0000
14.5400 153.0000 1.0000
14.5600 154.0000 1.0000
14.5800 167.0000 1.0000
14.6000 174.0000 1.0000
14.6200 177.0000 1.0000
14.6400 182.0000 1.0000
14.6600 177.0000 1.0000
14.6800 168.0000 1.0000
14.7000 148.0000 1.0000
14.7200 155.0000 1.0000
14.7400 180.0000 1.0000
14.7600 186.0000 1.0000
14.7800 195.0000 1.0000
14.8000 199.0000 1.0000
14.8200 208.0000 1.0000
14.8400 211.0000 1.0000
14.8600 191.0000 1.0000
14.8800 176.0000 1.0000
14.9000 181.0000 1.0000
14.9200 174.0000 1.0000
14.9400 168.0000 1.0000
14.9600 176.0000 1.0000
14.9800 169.0000 1.0000
15.0000 152.0000 1.0000
15.0200 156.0000 1.0000
15.0400 163.0000 1.0000
15.0600 153.0000 1.0000
15.0800 158.0000 1.0000
15.1000 161.0000 1.0000
15.1200 139.0000 1.0000
15.1400 132.0000 1.0000
15.1600 137.0000 1.0000
15.1800 141.0000 1.0000
15.2000 153.0000 1.0000
15.2200 151.0000 1.0000
15.2400 144.0000 1.0000
15.2600 141.0000 1.0000
15.2800 136.0000 1.0000
15.3000 154.0000 1.0000
15.3200 158.0000 1.0000
15.3400 139.0000 1.0000
15.3600 139.0000 1.0000
15.3800 146.0000 1.0000
15.4000 151.0000 1.0000
15.4200 137.0000 1.0000
15.4400 131.0000 1.0000
15.4600 138.0000 1.0000
15.4800 138.0000 1.0000
15.5000 151.0000 1.0000
15.5200 162.0000 1.0000
15.5400 159.0000 1.0000
15.5600 148.0000 1.0000
15.5800 162.0000 1.0000
15.6000 167.0000 1.0000
15.6200 162.0000 1.0000
15.6400 166.0000 1.0000
15.6600 140.0000 1.0000
15.6800 134.0000 1.0000
15.7000 140.0000 1.0000
15.7200 123.0000 1.0000
15.7400 117.0000 1.0000
15.7600 114.0000 1.0000
15.7800 128.0000 1.0000
15.8000 127.0000 1.0000
15.8200 131.0000 1.0000
15.8400 137.0000 1.0000
15.8600 125.0000 1.0000
15.8800 130.0000 1.0000
15.9000 143.0000 1.0000
15.9200 140.0000 1.0000
15.9400 130.0000 1.0000
15.9600 133.0000 1.0000
15.9800 117.0000 1.0000
16.0000 133.0000 1.0000
16.0200 145.0000 1.0000
16.0400 123.0000 1.0000
16.0600 132.0000 1.0000
16.0800 129.0000 1.0000
16.1000 127.0000 1.0000
16.1200 134.0000 1.0000
16.1400 152.0000 1.0000
16.1600 152.0000 1.0000
16.1800 152.0000 1.0000
16.2000 141.0000 1.0000
16.2200 129.0000 1.0000
16.2400 130.0000 1.0000
16.2600 137.0000 1.0000
16.2800 152.0000 1.0000
16.3000 149.0000 1.0000
16.3200 132.0000 1.0000
16.3400 140.0000 1.0000
16.3600 134.0000 1.0000
16.3800 134.0000 1.0000
16.4000 134.0000 1.0000
16.4200 129.0000 1.0000
16.4400 137.0000 1.0000
16.4600 157.0000 1.0000
16.4800 161.0000 1.0000
16.5000 148.0000 1.0000
16.5200 130.0000 1.0000
16.5400 126.0000 1.0000
16.5600 122.0000 1.0000
16.5800 137.0000 1.0000
16.6000 155.0000 1.0000
16.6200 140.0000 1.0000
16.6400 143.0000 1.0000
16.6600 150.0000 1.0000
16.6800 152.0000 1.0000
16.7000 138.0000 1.0000
16.7200 134.0000 1.0000
16.7400 152.0000 1.0000
16.7600 149.0000 1.0000
16.7800 130.0000 1.0000
16.8000 141.0000 1.0000
16.8200 145.0000 1.0000
16.8400 146.0000 1.0000
16.8600 131.0000 1.0000
16.8800 133.0000 1.0000
16.9000 141.0000 1.0000
16.9200 147.0000 1.0000
16.9400 159.0000 1.0000
16.9600 152.0000 1.0000
16.9800 141.0000 1.0000
17.0000 143.0000 1.0000
17.0200 144.0000 1.0000
17.0400 145.0000 1.0000
17.0600 149.0000 1.0000
17.0800 152.0000 1.0000
17.1000 140.0000 1.0000
17.1200 157.0000 1.0000
17.1400 155.0000 1.0000
17.1600 139.0000 1.0000
17.1800 166.0000 1.0000
17.2000 167.0000 1.0000
17.2200 180.0000 1.0000
17.2400 189.0000 1.0000
17.2600 182.0000 1.0000
17.2800 191.0000 1.0000
17.3000 181.0000 1.0000
17.3200 192.0000 1.0000
17.3400 201.0000 1.0000
17.3600 199.0000 1.0000
17.3800 221.0000 1.0000
17.4000 220.0000 1.0000
17.4200 221.0000 1.0000
17.4400 228.0000 1.0000
17.4600 239.0000 1.0000
17.4800 243.0000 1.0000
17.5000 251.0000 1.0000
17.5200 231.0000 1.0000
17.5400 247.0000 1.0000
17.5600 245.0000 1.0000
17.5800 237.0000 1.0000
17.6000 230.0000 1.0000
17.6200 236.0000 1.0000
17.6400 249.0000 1.0000
17.6600 230.0000 1.0000
17.6800 196.0000 1.0000
17.7000 192.0000 1.0000
17.7200 193.0000 1.0000
17.7400 188.0000 1.0000
17.7600 182.0000 1.0000
17.7800 188.0000 1.0000
17.8000 199.0000 1.0000
17.8200 169.0000 1.0000
17.8400 158.0000 1.0000
17.8600 160.0000 1.0000
17.8800 166.0000 1.0000
17.9000 168.0000 1.0000
17.9200 167.0000 1.0000
17.9400 173.0000 1.0000
17.9600 166.0000 1.0000
17.9800 162.0000 1.0000
18.0000 170.0000 1.0000
18.0200 156.0000 1.0000
18.0400 160.0000 1.0000
18.0600 160.0000 1.0000
18.0800 142.0000 1.0000
18.1000 148.0000 1.0000
18.1200 159.0000 1.0000
18.1400 137.0000 1.0000
18.1600 135.0000 1.0000
18.1800 153.0000 1.0000
18.2000 147.0000 1.0000
18.2200 160.0000 1.0000
18.2400 158.0000 1.0000
18.2600 155.0000 1.0000
18.2800 166.0000 1.0000
18.3000 165.0000 1.0000
18.3200 145.0000 1.0000
18.3400 153.0000 1.0000
18.3600 161.0000 1.0000
18.3800 167.0000 1.0000
18.4000 143.0000 1.0000
18.4200 154.0000 1.0000
18.4400 175.0000 1.0000
18.4600 182.0000 1.0000
18.4800 160.0000 1.0000
18.5000 162.0000 1.0000
18.5200 190.0000 1.0000
18.5400 165.0000 1.0000
18.5600 189.0000 1.0000
18.5800 197.0000 1.0000
18.6000 208.0000 1.0000
18.6200 191.0000 1.0000
18.6400 193.0000 1.0000
18.6600 198.0000 1.0000
18.6800 206.0000 1.0000
18.7000 187.0000 1.0000
18.7200 172.0000 1.0000
18.7400 191.0000 1.0000
18.7600 157.0000 1.0000
18.7800 182.0000 1.0000
18.8000 158.0000 1.0000
18.8200 168.0000 1.0000
18.8400 161.0000 1.0000
18.8600 168.0000 1.0000
18.8800 164.0000 1.0000
18.9000 169.0000 1.0000
18.9200 164.0000 1.0000
18.9400 158.0000 1.0000
18.9600 185.0000 1.0000
18.9800 170.0000 1.0000
19.0000 174.0000 1.0000
19.0200 183.0000 1.0000
19.0400 184.0000 1.0000
19.0600 179.0000 1.0000
19.0800 189.0000 1.0000
19.1000 189.0000 1.0000
19.1200 192.0000 1.0000
19.1400 204.0000 1.0000
19.1600 199.0000 1.0000
19.1800 191.0000 1.0000
19.2000 187.0000 1.0000
19.2200 196.0000 1.0000
19.2400 205.0000 1.0000
19.2600 224.0000 1.0000
19.2800 228.0000 1.0000
19.3000 220.0000 1.0000
19.3200 236.0000 1.0000
19.3400 234.0000 1.0000
19.3600 219.0000 1.0000
19.3800 247.0000 1.0000
19.4000 269.0000 1.0000
19.4200 301.0000 1.0000
19.4400 341.0000 1.0000
19.4600 367.0000 1.0000
19.4800 389.0000 1.0000
19.5000 467.0000 1.0000
19.5200 456.0000 1.0000
19.5400 497.0000 1.0000
19.5600 505.0000 1.0000
19.5800 511.0000 1.0000
19.6000 533.0000 1.0000
19.6200 528.0000 1.0000
19.6400 496.0000 1.0000
19.6600 508.0000 1.0000
19.6800 527.0000 1.0000
19.7000 471.0000 1.0000
19.7200 470.0000 1.0000
19.7400 431.0000 1.0000
19.7600 422.0000 1.0000
19.7800 421.0000 1.0000
19.8000 334.0000 1.0000
19.8200 343.0000 1.0000
19.8400 369.0000 1.0000
19.8600 347.0000 1.0000
19.8800 304.0000 1.0000
19.9000 328.0000 1.0000
19.9200 312.0000 1.0000
19.9400 321.0000 1.0000
19.9600 326.0000 1.0000
19.9800 299.0000 1.0000
20.0000 308.0000 1.0000
20.0200 284.0000 1.0000
20.0400 276.0000 1.0000
20.0600 300.0000 1.0000
20.0800 279.0000 1.0000
20.1000 260.0000 1.0000
20.1200 294.0000 1.0000
20.1400 311.0000 1.0000
20.1600 271.0000 1.0000
20.1800 280.0000 1.0000
20.2000 301.0000 1.0000
20.2200 345.0000 1.0000
20.2400 336.0000 1.0000
20.2600 340.0000 1.0000
20.2800 298.0000 1.0000
20.3000 333.0000 1.0000
20.3200 338.0000 1.0000
20.3400 395.0000 1.0000
20.3600 392.0000 1.0000
20.3800 416.0000 1.0000
20.4000 425.0000 1.0000
20.4200 482.0000 1.0000
20.4400 484.0000 1.0000
20.4600 568.0000 1.0000
20.4800 581.0000 1.0000
20.5000 667.0000 1.0000
20.5200 772.0000 1.0000
20.5400 936.0000 1.0000
20.5600 1074.0000 1.0000
20.5800 1308.0000 1.0000
20.6000 1605.0000 1.0000
20.6200 1904.0000 1.0000
20.6400 2259.0000 1.0000
20.6600 2484.0000 1.0000
20.6800 2510.0000 1.0000
20.7000 2307.0000 1.0000
20.7200 2097.0000 1.0000
20.7400 1614.0000 1.0000
20.7600 1324.0000 1.0000
20.7800 908.0000 1.0000
20.8000 692.0000 1.0000
20.8200 579.0000 1.0000
20.8400 509.0000 1.0000
20.8600 406.0000 1.0000
20.8800 412.0000 1.0000
20.9000 394.0000 1.0000
20.9200 367.0000 1.0000
20.9400 347.0000 1.0000
20.9600 345.0000 1.0000
20.9800 283.0000 1.0000
21.0000 273.0000 1.0000
21.0200 284.0000 1.0000
21.0400 300.0000 1.0000
21.0600 263.0000 1.0000
21.0800 281.0000 1.0000
21.1000 242.0000 1.0000
21.1200 276.0000 1.0000
21.1400 290.0000 1.0000
21.1600 274.0000 1.0000
21.1800 284.0000 1.0000
21.2000 270.0000 1.0000
21.2200 257.0000 1.0000
21.2400 245.0000 1.0000
21.2600 234.0000 1.0000
21.2800 235.0000 1.0000
21.3000 233.0000 1.0000
21.3200 245.0000 1.0000
21.3400 237.0000 1.0000
21.3600 213.0000 1.0000
21.3800 211.0000 1.0000
21.4000 226.0000 1.0000
21.4200 192.0000 1.0000
21.4400 211.0000 1.0000
21.4600 217.0000 1.0000
21.4800 217.0000 1.0000
21.5000 216.0000 1.0000
21.5200 246.0000 1.0000
21.5400 242.0000 1.0000
21.5600 226.0000 1.0000
21.5800 237.0000 1.0000
21.6000 238.0000 1.0000
21.6200 289.0000 1.0000
21.6400 264.0000 1.0000
21.6600 293.0000 1.0000
21.6800 320.0000 1.0000
21.7000 382.0000 1.0000
21.7200 380.0000 1.0000
21.7400 432.0000 1.0000
21.7600 509.0000 1.0000
21.7800 588.0000 1.0000
21.8000 628.0000 1.0000
21.8200 727.0000 1.0000
21.8400 696.0000 1.0000
21.8600 661.0000 1.0000
21.8800 588.0000 1.0000
21.9000 571.0000 1.0000
21.9200 465.0000 1.0000
21.9400 368.0000 1.0000
21.9600 282.0000 1.0000
21.9800 295.0000 1.0000
22.0000 264.0000 1.0000
22.0200 227.0000 1.0000
22.0400 217.0000 1.0000
22.0600 199.0000 1.0000
22.0800 205.0000 1.0000
22.1000 202.0000 1.0000
22.1200 210.0000 1.0000
22.1400 194.0000 1.0000
22.1600 209.0000 1.0000
22.1800 210.0000 1.0000
22.2000 229.0000 1.0000
22.2200 228.0000 1.0000
22.2400 222.0000 1.0000
22.2600 210.0000 1.0000
22.2800 230.0000 1.0000
22.3000 229.0000 1.0000
22.3200 212.0000 1.0000
22.3400 211.0000 1.0000
22.3600 206.0000 1.0000
22.3800 202.0000 1.0000
22.4000 206.0000 1.0000
22.4200 198.0000 1.0000
22.4400 207.0000 1.0000
22.4600 208.0000 1.0000
22.4800 215.0000 1.0000
22.5000 216.0000 1.0000
22.5200 215.0000 1.0000
22.5400 202.0000 1.0000
22.5600 223.0000 1.0000
22.5800 237.0000 1.0000
22.6000 234.0000 1.0000
22.6200 234.0000 1.0000
22.6400 231.0000 1.0000
22.6600 210.0000 1.0000
22.6800 230.0000 1.0000
22.7000 248.0000 1.0000
22.7200 241.0000 1.0000
22.7400 257.0000 1.0000
22.7600 267.0000 1.0000
22.7800 291.0000 1.0000
22.8000 311.0000 1.0000
22.8200 292.0000 1.0000
22.8400 310.0000 1.0000
22.8600 317.0000 1.0000
22.8800 259.0000 1.0000
22.9000 240.0000 1.0000
22.9200 268.0000 1.0000
22.9400 242.0000 1.0000
22.9600 232.0000 1.0000
22.9800 226.0000 1.0000
23.0000 246.0000 1.0000
23.0200 254.0000 1.0000
23.0400 243.0000 1.0000
23.0600 232.0000 1.0000
23.0800 235.0000 1.0000
23.1000 242.0000 1.0000
23.1200 260.0000 1.0000
23.1400 263.0000 1.0000
23.1600 285.0000 1.0000
23.1800 289.0000 1.0000
23.2000 296.0000 1.0000
23.2200 366.0000 1.0000
23.2400 385.0000 1.0000
23.2600 378.0000 1.0000
23.2800 424.0000 1.0000
23.3000 475.0000 1.0000
23.3200 510.0000 1.0000
23.3400 528.0000 1.0000
23.3600 581.0000 1.0000
23.3800 601.0000 1.0000
23.4000 563.0000 1.0000
23.4200 561.0000 1.0000
23.4400 559.0000 1.0000
23.4600 497.0000 1.0000
23.4800 456.0000 1.0000
23.5000 426.0000 1.0000
23.5200 364.0000 1.0000
23.5400 340.0000 1.0000
23.5600 339.0000 1.0000
23.5800 308.0000 1.0000
23.6000 308.0000 1.0000
23.6200 295.0000 1.0000
23.6400 282.0000 1.0000
23.6600 300.0000 1.0000
23.6800 301.0000 1.0000
23.7000 278.0000 1.0000
23.7200 283.0000 1.0000
23.7400 295.0000 1.0000
23.7600 297.0000 1.0000
23.7800 291.0000 1.0000
23.8000 313.0000 1.0000
23.8200 328.0000 1.0000
23.8400 360.0000 1.0000
23.8600 361.0000 1.0000
23.8800 375.0000 1.0000
23.9000 389.0000 1.0000
23.9200 409.0000 1.0000
23.9400 470.0000 1.0000
23.9600 461.0000 1.0000
23.9800 486.0000 1.0000
24.0000 530.0000 1.0000
24.0200 570.0000 1.0000
24.0400 603.0000 1.0000
24.0600 568.0000 1.0000
24.0800 532.0000 1.0000
24.1000 543.0000 1.0000
24.1200 551.0000 1.0000
24.1400 534.0000 1.0000
24.1600 482.0000 1.0000
24.1800 452.0000 1.0000
24.2000 416.0000 1.0000
24.2200 363.0000 1.0000
24.2400 355.0000 1.0000
24.2600 342.0000 1.0000
24.2800 332.0000 1.0000
24.3000 312.0000 1.0000
24.3200 310.0000 1.0000
24.3400 308.0000 1.0000
24.3600 309.0000 1.0000
24.3800 299.0000 1.0000
24.4000 294.0000 1.0000
24.4200 285.0000 1.0000
24.4400 274.0000 1.0000
24.4600 249.0000 1.0000
24.4800 271.0000 1.0000
24.5000 257.0000 1.0000
24.5200 248.0000 1.0000
24.5400 250.0000 1.0000
24.5600 258.0000 1.0000
24.5800 244.0000 1.0000
24.6000 220.0000 1.0000
24.6200 228.0000 1.0000
24.6400 231.0000 1.0000
24.6600 252.0000 1.0000
24.6800 264.0000 1.0000
24.7000 248.0000 1.0000
24.7200 251.0000 1.0000
24.7400 256.0000 1.0000
24.7600 266.0000 1.0000
24.7800 269.0000 1.0000
24.8000 283.0000 1.0000
24.8200 282.0000 1.0000
24.8400 308.0000 1.0000
24.8600 302.0000 1.0000
24.8800 326.0000 1.0000
24.9000 359.0000 1.0000
24.9200 351.0000 1.0000
24.9400 372.0000 1.0000
24.9600 382.0000 1.0000
24.9800 399.0000 1.0000
25.0000 443.0000 1.0000
25.0200 432.0000 1.0000
25.0400 453.0000 1.0000
25.0600 435.0000 1.0000
25.0800 444.0000 1.0000
25.1000 477.0000 1.0000
25.1200 484.0000 1.0000
25.1400 504.0000 1.0000
25.1600 544.0000 1.0000
25.1800 567.0000 1.0000
25.2000 587.0000 1.0000
25.2200 591.0000 1.0000
25.2400 664.0000 1.0000
25.2600 793.0000 1.0000
25.2800 875.0000 1.0000
25.3000 977.0000 1.0000
25.3200 1131.0000 1.0000
25.3400 1322.0000 1.0000
25.3600 1498.0000 1.0000
25.3800 1539.0000 1.0000
25.4000 1549.0000 1.0000
25.4200 1461.0000 1.0000
25.4400 1299.0000 1.0000
25.4600 1088.0000 1.0000
25.4800 901.0000 1.0000
25.5000 746.0000 1.0000
25.5200 654.0000 1.0000
25.5400 562.0000 1.0000
25.5600 484.0000 1.0000
25.5800 442.0000 1.0000
25.6000 425.0000 1.0000
25.6200 429.0000 1.0000
25.6400 391.0000 1.0000
25.6600 367.0000 1.0000
25.6800 340.0000 1.0000
25.7000 330.0000 1.0000
25.7200 335.0000 1.0000
25.7400 347.0000 1.0000
25.7600 331.0000 1.0000
25.7800 321.0000 1.0000
25.8000 347.0000 1.0000
25.8200 366.0000 1.0000
25.8400 373.0000 1.0000
25.8600 379.0000 1.0000
25.8800 385.0000 1.0000
25.9000 426.0000 1.0000
25.9200 434.0000 1.0000
25.9400 436.0000 1.0000
25.9600 424.0000 1.0000
25.9800 464.0000 1.0000
26.0000 517.0000 1.0000
26.0200 575.0000 1.0000
26.0400 575.0000 1.0000
26.0600 622.0000 1.0000
26.0800 684.0000 1.0000
26.1000 745.0000 1.0000
26.1200 812.0000 1.0000
26.1400 867.0000 1.0000
26.1600 956.0000 1.0000
26.1800 1092.0000 1.0000
26.2000 1296.0000 1.0000
26.2200 1487.0000 1.0000
26.2400 1743.0000 1.0000
26.2600 2005.0000 1.0000
26.2800 2378.0000 1.0000
26.3000 2940.0000 1.0000
26.3200 3625.0000 1.0000
26.3400 4554.0000 1.0000
26.3600 5675.0000 1.0000
26.3800 7139.0000 1.0000
26.4000 8968.0000 1.0000
26.4200 10544.0000 1.0000
26.4400 11414.0000 1.0000
26.4600 11416.0000 1.0000
26.4800 10723.0000 1.0000
26.5000 9376.0000 1.0000
26.5200 7598.0000 1.0000
26.5400 5802.0000 1.0000
26.5600 4336.0000 1.0000
26.5800 3176.0000 1.0000
26.6000 2251.0000 1.0000
26.6200 1665.0000 1.0000
26.6400 1381.0000 1.0000
26.6600 1233.0000 1.0000
26.6800 1088.0000 1.0000
26.7000 980.0000 1.0000
26.7200 893.0000 1.0000
26.7400 853.0000 1.0000
26.7600 812.0000 1.0000
26.7800 779.0000 1.0000
26.8000 732.0000 1.0000
26.8200 703.0000 1.0000
26.8400 687.0000 1.0000
26.8600 658.0000 1.0000
26.8800 647.0000 1.0000
26.9000 637.0000 1.0000
26.9200 598.0000 1.0000
26.9400 551.0000 1.0000
26.9600 547.0000 1.0000
26.9800 553.0000 1.0000
27.0000 522.0000 1.0000
27.0200 488.0000 1.0000
27.0400 456.0000 1.0000
27.0600 439.0000 1.0000
27.0800 414.0000 1.0000
27.1000 410.0000 1.0000
27.1200 418.0000 1.0000
27.1400 408.0000 1.0000
27.1600 457.0000 1.0000
27.1800 490.0000 1.0000
27.2000 499.0000 1.0000
27.2200 529.0000 1.0000
27.2400 556.0000 1.0000
27.2600 592.0000 1.0000
27.2800 634.0000 1.0000
27.3000 649.0000 1.0000
27.3200 708.0000 1.0000
27.3400 774.0000 1.0000
27.3600 755.0000 1.0000
27.3800 738.0000 1.0000
27.4000 763.0000 1.0000
27.4200 769.0000 1.0000
27.4400 798.0000 1.0000
27.4600 836.0000 1.0000
27.4800 852.0000 1.0000
27.5000 855.0000 1.0000
27.5200 893.0000 1.0000
27.5400 942.0000 1.0000
27.5600 989.0000 1.0000
27.5800 1028.0000 1.0000
27.6000 1038.0000 1.0000
27.6200 1056.0000 1.0000
27.6400 1097.0000 1.0000
27.6600 1159.0000 1.0000
27.6800 1202.0000 1.0000
27.7000 1297.0000 1.0000
27.7200 1436.0000 1.0000
27.7400 1490.0000 1.0000
27.7600 1465.0000 1.0000
27.7800 1456.0000 1.0000
27.8000 1355.0000 1.0000
27.8200 1217.0000 1.0000
27.8400 1106.0000 1.0000
27.8600 968.0000 1.0000
27.8800 848.0000 1.0000
27.9000 752.0000 1.0000
27.9200 678.0000 1.0000
27.9400 623.0000 1.0000
27.9600 593.0000 1.0000
27.9800 551.0000 1.0000
28.0000 554.0000 1.0000
28.0200 578.0000 1.0000
28.0400 541.0000 1.0000
28.0600 537.0000 1.0000
28.0800 500.0000 1.0000
28.1000 447.0000 1.0000
28.1200 421.0000 1.0000
28.1400 411.0000 1.0000
28.1600 389.0000 1.0000
28.1800 351.0000 1.0000
28.2000 331.0000 1.0000
28.2200 316.0000 1.0000
28.2400 291.0000 1.0000
28.2600 274.0000 1.0000
28.2800 270.0000 1.0000
28.3000 255.0000 1.0000
28.3200 253.0000 1.0000
28.3400 232.0000 1.0000
28.3600 217.0000 1.0000
28.3800 231.0000 1.0000
28.4000 216.0000 1.0000
28.4200 213.0000 1.0000
28.4400 231.0000 1.0000
28.4600 247.0000 1.0000
28.4800 216.0000 1.0000
28.5000 187.0000 1.0000
28.5200 201.0000 1.0000
28.5400 208.0000 1.0000
28.5600 207.0000 1.0000
28.5800 213.0000 1.0000
28.6000 219.0000 1.0000
28.6200 204.0000 1.0000
28.6400 193.0000 1.0000
28.6600 195.0000 1.0000
28.6800 199.0000 1.0000
28.7000 196.0000 1.0000
28.7200 207.0000 1.0000
28.7400 215.0000 1.0000
28.7600 223.0000 1.0000
28.7800 219.0000 1.0000
28.8000 223.0000 1.0000
28.8200 214.0000 1.0000
28.8400 209.0000 1.0000
28.8600 220.0000 1.0000
28.8800 234.0000 1.0000
28.9000 240.0000 1.0000
28.9200 232.0000 1.0000
28.9400 235.0000 1.0000
28.9600 255.0000 1.0000
28.9800 265.0000 1.0000
29.0000 241.0000 1.0000
29.0200 232.0000 1.0000
29.0400 246.0000 1.0000
29.0600 246.0000 1.0000
29.0800 262.0000 1.0000
29.1000 263.0000 1.0000
29.1200 256.0000 1.0000
29.1400 278.0000 1.0000
29.1600 279.0000 1.0000
29.1800 275.0000 1.0000
29.2000 286.0000 1.0000
29.2200 294.0000 1.0000
29.2400 283.0000 1.0000
29.2600 304.0000 1.0000
29.2800 314.0000 1.0000
29.3000 308.0000 1.0000
29.3200 299.0000 1.0000
29.3400 287.0000 1.0000
29.3600 292.0000 1.0000
29.3800 325.0000 1.0000
29.4000 327.0000 1.0000
29.4200 324.0000 1.0000
29.4400 315.0000 1.0000
29.4600 323.0000 1.0000
29.4800 349.0000 1.0000
29.5000 347.0000 1.0000
29.5200 367.0000 1.0000
29.5400 365.0000 1.0000
29.5600 393.0000 1.0000
29.5800 407.0000 1.0000
29.6000 396.0000 1.0000
29.6200 434.0000 1.0000
29.6400 457.0000 1.0000
29.6600 440.0000 1.0000
29.6800 451.0000 1.0000
29.7000 432.0000 1.0000
29.7200 426.0000 1.0000
29.7400 419.0000 1.0000
29.7600 414.0000 1.0000
29.7800 401.0000 1.0000
29.8000 396.0000 1.0000
29.8200 377.0000 1.0000
29.8400 376.0000 1.0000
29.8600 403.0000 1.0000
29.8800 362.0000 1.0000
29.9000 323.0000 1.0000
29.9200 327.0000 1.0000
29.9400 355.0000 1.0000
29.9600 355.0000 1.0000
29.9800 368.0000 1.0000
30.0000 359.0000 1.0000
30.0200 352.0000 1.0000
30.0400 360.0000 1.0000
30.0600 356.0000 1.0000
30.0800 363.0000 1.0000
30.1000 360.0000 1.0000
30.1200 336.0000 1.0000
30.1400 331.0000 1.0000
30.1600 345.0000 1.0000
30.1800 350.0000 1.0000
30.2000 366.0000 1.0000
30.2200 380.0000 1.0000
30.2400 387.0000 1.0000
30.2600 402.0000 1.0000
30.2800 403.0000 1.0000
30.3000 394.0000 1.0000
30.3200 386.0000 1.0000
30.3400 389.0000 1.0000
30.3600 361.0000 1.0000
30.3800 331.0000 1.0000
30.4000 331.0000 1.0000
30.4200 302.0000 1.0000
30.4400 286.0000 1.0000
30.4600 277.0000 1.0000
30.4800 286.0000 1.0000
30.5000 280.0000 1.0000
30.5200 278.0000 1.0000
30.5400 289.0000 1.0000
30.5600 290.0000 1.0000
30.5800 272.0000 1.0000
30.6000 287.0000 1.0000
30.6200 289.0000 1.0000
30.6400 295.0000 1.0000
30.6600 294.0000 1.0000
30.6800 290.0000 1.0000
30.7000 269.0000 1.0000
30.7200 254.0000 1.0000
30.7400 246.0000 1.0000
30.7600 217.0000 1.0000
30.7800 212.0000 1.0000
30.8000 202.0000 1.0000
30.8200 220.0000 1.0000
30.8400 218.0000 1.0000
30.8600 202.0000 1.0000
30.8800 203.0000 1.0000
30.9000 208.0000 1.0000
30.9200 209.0000 1.0000
30.9400 219.0000 1.0000
30.9600 211.0000 1.0000
30.9800 210.0000 1.0000
31.0000 225.0000 1.0000
31.0200 254.0000 1.0000
31.0400 252.0000 1.0000
31.0600 259.0000 1.0000
31.0800 264.0000 1.0000
31.1000 260.0000 1.0000
31.1200 276.0000 1.0000
31.1400 285.0000 1.0000
31.1600 264.0000 1.0000
31.1800 265.0000 1.0000
31.2000 243.0000 1.0000
31.2200 217.0000 1.0000
31.2400 236.0000 1.0000
31.2600 234.0000 1.0000
31.2800 242.0000 1.0000
31.3000 256.0000 1.0000
31.3200 225.0000 1.0000
31.3400 219.0000 1.0000
31.3600 187.0000 1.0000
31.3800 222.0000 1.0000
31.4000 227.0000 1.0000
31.4200 226.0000 1.0000
31.4400 196.0000 1.0000
31.4600 203.0000 1.0000
31.4800 213.0000 1.0000
31.5000 216.0000 1.0000
31.5200 209.0000 1.0000
31.5400 211.0000 1.0000
31.5600 224.0000 1.0000
31.5800 208.0000 1.0000
31.6000 209.0000 1.0000
31.6200 193.0000 1.0000
31.6400 191.0000 1.0000
31.6600 207.0000 1.0000
31.6800 179.0000 1.0000
31.7000 188.0000 1.0000
31.7200 197.0000 1.0000
31.7400 197.0000 1.0000
31.7600 192.0000 1.0000
31.7800 192.0000 1.0000
31.8000 185.0000 1.0000
31.8200 187.0000 1.0000
31.8400 190.0000 1.0000
31.8600 177.0000 1.0000
31.8800 170.0000 1.0000
31.9000 181.0000 1.0000
31.9200 182.0000 1.0000
31.9400 177.0000 1.0000
31.9600 166.0000 1.0000
31.9800 174.0000 1.0000
32.0000 197.0000 1.0000
32.0200 186.0000 1.0000
32.0400 197.0000 1.0000
32.0600 201.0000 1.0000
32.0800 198.0000 1.0000
32.1000 172.0000 1.0000
32.1200 179.0000 1.0000
32.1400 174.0000 1.0000
32.1600 187.0000 1.0000
32.1800 192.0000 1.0000
32.2000 183.0000 1.0000
32.2200 183.0000 1.0000
32.2400 172.0000 1.0000
32.2600 148.0000 1.0000
32.2800 139.0000 1.0000
32.3000 167.0000 1.0000
32.3200 176.0000 1.0000
32.3400 151.0000 1.0000
32.3600 152.0000 1.0000
32.3800 157.0000 1.0000
32.4000 137.0000 1.0000
32.4200 134.0000 1.0000
32.4400 148.0000 1.0000
32.4600 146.0000 1.0000
32.4800 135.0000 1.0000
32.5000 142.0000 1.0000
32.5200 139.0000 1.0000
32.5400 156.0000 1.0000
32.5600 133.0000 1.0000
32.5800 131.0000 1.0000
32.6000 123.0000 1.0000
32.6200 135.0000 1.0000
32.6400 152.0000 1.0000
32.6600 141.0000 1.0000
32.6800 121.0000 1.0000
32.7000 121.0000 1.0000
32.7200 125.0000 1.0000
32.7400 129.0000 1.0000
32.7600 128.0000 1.0000
32.7800 129.0000 1.0000
32.8000 135.0000 1.0000
32.8200 145.0000 1.0000
32.8400 112.0000 1.0000
32.8600 145.0000 1.0000
32.8800 129.0000 1.0000
32.9000 124.0000 1.0000
32.9200 144.0000 1.0000
32.9400 135.0000 1.0000
32.9600 124.0000 1.0000
32.9800 126.0000 1.0000
33.0000 140.0000 1.0000
33.0200 134.0000 1.0000
33.0400 127.0000 1.0000
33.0600 155.0000 1.0000
33.0800 119.0000 1.0000
33.1000 134.0000 1.0000
33.1200 145.0000 1.0000
33.1400 136.0000 1.0000
33.1600 139.0000 1.0000
33.1800 142.0000 1.0000
33.2000 137.0000 1.0000
33.2200 164.0000 1.0000
33.2400 175.0000 1.0000
33.2600 158.0000 1.0000
33.2800 162.0000 1.0000
33.3000 139.0000 1.0000
33.3200 146.0000 1.0000
33.3400 160.0000 1.0000
33.3600 149.0000 1.0000
33.3800 164.0000 1.0000
33.4000 187.0000 1.0000
33.4200 155.0000 1.0000
33.4400 148.0000 1.0000
33.4600 183.0000 1.0000
33.4800 154.0000 1.0000
33.5000 176.0000 1.0000
33.5200 192.0000 1.0000
33.5400 182.0000 1.0000
33.5600 169.0000 1.0000
33.5800 182.0000 1.0000
33.6000 176.0000 1.0000
33.6200 183.0000 1.0000
33.6400 181.0000 1.0000
33.6600 185.0000 1.0000
33.6800 191.0000 1.0000
33.7000 185.0000 1.0000
33.7200 213.0000 1.0000
33.7400 197.0000 1.0000
33.7600 206.0000 1.0000
33.7800 191.0000 1.0000
33.8000 164.0000 1.0000
33.8200 194.0000 1.0000
33.8400 200.0000 1.0000
33.8600 180.0000 1.0000
33.8800 166.0000 1.0000
33.9000 183.0000 1.0000
33.9200 192.0000 1.0000
33.9400 164.0000 1.0000
33.9600 197.0000 1.0000
33.9800 159.0000 1.0000
34.0000 186.0000 1.0000
34.0200 201.0000 1.0000
34.0400 201.0000 1.0000
34.0600 233.0000 1.0000
34.0800 217.0000 1.0000
34.1000 216.0000 1.0000
34.1200 220.0000 1.0000
34.1400 242.0000 1.0000
34.1600 220.0000 1.0000
34.1800 266.0000 1.0000
34.2000 272.0000 1.0000
34.2200 277.0000 1.0000
34.2400 301.0000 1.0000
34.2600 280.0000 1.0000
34.2800 371.0000 1.0000
34.3000 345.0000 1.0000
34.3200 326.0000 1.0000
34.3400 345.0000 1.0000
34.3600 328.0000 1.0000
34.3800 337.0000 1.0000
34.4000 369.0000 1.0000
34.4200 386.0000 1.0000
34.4400 390.0000 1.0000
34.4600 439.0000 1.0000
34.4800 433.0000 1.0000
34.5000 431.0000 1.0000
34.5200 463.0000 1.0000
34.5400 479.0000 1.0000
34.5600 491.0000 1.0000
34.5800 509.0000 1.0000
34.6000 464.0000 1.0000
34.6200 546.0000 1.0000
34.6400 512.0000 1.0000
34.6600 540.0000 1.0000
34.6800 550.0000 1.0000
34.7000 603.0000 1.0000
34.7200 629.0000 1.0000
34.7400 641.0000 1.0000
34.7600 696.0000 1.0000
34.7800 747.0000 1.0000
34.8000 813.0000 1.0000
34.8200 867.0000 1.0000
34.8400 952.0000 1.0000
34.8600 1117.0000 1.0000
34.8800 1255.0000 1.0000
34.9000 1493.0000 1.0000
34.9200 1739.0000 1.0000
34.9400 1904.0000 1.0000
34.9600 2013.0000 1.0000
34.9800 2101.0000 1.0000
35.0000 1911.0000 1.0000
35.0200 1738.0000 1.0000
35.0400 1582.0000 1.0000
35.0600 1279.0000 1.0000
35.0800 1083.0000 1.0000
35.1000 954.0000 1.0000
35.1200 730.0000 1.0000
35.1400 594.0000 1.0000
35.1600 496.0000 1.0000
35.1800 447.0000 1.0000
35.2000 441.0000 1.0000
35.2200 359.0000 1.0000
35.2400 342.0000 1.0000
35.2600 351.0000 1.0000
35.2800 379.0000 1.0000
35.3000 361.0000 1.0000
35.3200 348.0000 1.0000
35.3400 302.0000 1.0000
35.3600 337.0000 1.0000
35.3800 305.0000 1.0000
35.4000 319.0000 1.0000
35.4200 290.0000 1.0000
35.4400 323.0000 1.0000
35.4600 296.0000 1.0000
35.4800 318.0000 1.0000
35.5000 301.0000 1.0000
35.5200 264.0000 1.0000
35.5400 280.0000 1.0000
35.5600 262.0000 1.0000
35.5800 256.0000 1.0000
35.6000 268.0000 1.0000
35.6200 237.0000 1.0000
35.6400 255.0000 1.0000
35.6600 236.0000 1.0000
35.6800 255.0000 1.0000
35.7000 234.0000 1.0000
35.7200 259.0000 1.0000
35.7400 242.0000 1.0000
35.7600 225.0000 1.0000
35.7800 197.0000 1.0000
35.8000 216.0000 1.0000
35.8200 222.0000 1.0000
35.8400 228.0000 1.0000
35.8600 235.0000 1.0000
35.8800 229.0000 1.0000
35.9000 219.0000 1.0000
35.9200 235.0000 1.0000
35.9400 254.0000 1.0000
35.9600 254.0000 1.0000
35.9800 226.0000 1.0000
36.0000 262.0000 1.0000
36.0200 254.0000 1.0000
36.0400 269.0000 1.0000
36.0600 257.0000 1.0000
36.0800 267.0000 1.0000
36.1000 262.0000 1.0000
36.1200 301.0000 1.0000
36.1400 291.0000 1.0000
36.1600 335.0000 1.0000
36.1800 329.0000 1.0000
36.2000 343.0000 1.0000
36.2200 430.0000 1.0000
36.2400 499.0000 1.0000
36.2600 505.0000 1.0000
36.2800 620.0000 1.0000
36.3000 740.0000 1.0000
36.3200 872.0000 1.0000
36.3400 957.0000 1.0000
36.3600 990.0000 1.0000
36.3800 1009.0000 1.0000
36.4000 924.0000 1.0000
36.4200 889.0000 1.0000
36.4400 797.0000 1.0000
36.4600 702.0000 1.0000
36.4800 671.0000 1.0000
36.5000 574.0000 1.0000
36.5200 477.0000 1.0000
36.5400 416.0000 1.0000
36.5600 393.0000 1.0000
36.5800 337.0000 1.0000
36.6000 300.0000 1.0000
36.6200 292.0000 1.0000
36.6400 306.0000 1.0000
36.6600 273.0000 1.0000
36.6800 269.0000 1.0000
36.7000 279.0000 1.0000
36.7200 297.0000 1.0000
36.7400 307.0000 1.0000
36.7600 290.0000 1.0000
36.7800 275.0000 1.0000
36.8000 286.0000 1.0000
36.8200 256.0000 1.0000
36.8400 267.0000 1.0000
36.8600 274.0000 1.0000
36.8800 264.0000 1.0000
36.9000 237.0000 1.0000
36.9200 214.0000 1.0000
36.9400 242.0000 1.0000
36.9600 243.0000 1.0000
36.9800 230.0000 1.0000
37.0000 238.0000 1.0000
37.0200 253.0000 1.0000
37.0400 246.0000 1.0000
37.0600 218.0000 1.0000
37.0800 227.0000 1.0000
37.1000 249.0000 1.0000
37.1200 240.0000 1.0000
37.1400 246.0000 1.0000
37.1600 247.0000 1.0000
37.1800 254.0000 1.0000
37.2000 284.0000 1.0000
37.2200 287.0000 1.0000
37.2400 275.0000 1.0000
37.2600 290.0000 1.0000
37.2800 297.0000 1.0000
37.3000 278.0000 1.0000
37.3200 309.0000 1.0000
37.3400 314.0000 1.0000
37.3600 314.0000 1.0000
37.3800 317.0000 1.0000
37.4000 342.0000 1.0000
37.4200 354.0000 1.0000
37.4400 390.0000 1.0000
37.4600 428.0000 1.0000
37.4800 490.0000 1.0000
37.5000 561.0000 1.0000
37.5200 658.0000 1.0000
37.5400 725.0000 1.0000
37.5600 833.0000 1.0000
37.5800 919.0000 1.0000
37.6000 939.0000 1.0000
37.6200 873.0000 1.0000
37.6400 804.0000 1.0000
37.6600 722.0000 1.0000
37.6800 644.0000 1.0000
37.7000 585.0000 1.0000
37.7200 501.0000 1.0000
37.7400 423.0000 1.0000
37.7600 376.0000 1.0000
37.7800 301.0000 1.0000
37.8000 239.0000 1.0000
37.8200 208.0000 1.0000
37.8400 205.0000 1.0000
37.8600 205.0000 1.0000
37.8800 195.0000 1.0000
37.9000 205.0000 1.0000
37.9200 170.0000 1.0000
37.9400 177.0000 1.0000
37.9600 159.0000 1.0000
37.9800 177.0000 1.0000
38.0000 176.0000 1.0000
38.0200 166.0000 1.0000
38.0400 154.0000 1.0000
38.0600 148.0000 1.0000
38.0800 156.0000 1.0000
38.1000 150.0000 1.0000
38.1200 137.0000 1.0000
38.1400 145.0000 1.0000
38.1600 149.0000 1.0000
38.1800 156.0000 1.0000
38.2000 157.0000 1.0000
38.2200 152.0000 1.0000
38.2400 137.0000 1.0000
38.2600 137.0000 1.0000
38.2800 140.0000 1.0000
38.3000 133.0000 1.0000
38.3200 148.0000 1.0000
38.3400 155.0000 1.0000
38.3600 152.0000 1.0000
38.3800 142.0000 1.0000
38.4000 150.0000 1.0000
38.4200 139.0000 1.0000
38.4400 146.0000 1.0000
38.4600 155.0000 1.0000
38.4800 156.0000 1.0000
38.5000 157.0000 1.0000
38.5200 154.0000 1.0000
38.5400 154.0000 1.0000
38.5600 154.0000 1.0000
38.5800 150.0000 1.0000
38.6000 172.0000 1.0000
38.6200 176.0000 1.0000
38.6400 174.0000 1.0000
38.6600 180.0000 1.0000
38.6800 177.0000 1.0000
38.7000 173.0000 1.0000
38.7200 155.0000 1.0000
38.7400 151.0000 1.0000
38.7600 163.0000 1.0000
38.7800 180.0000 1.0000
38.8000 175.0000 1.0000
38.8200 165.0000 1.0000
38.8400 154.0000 1.0000
38.8600 168.0000 1.0000
38.8800 173.0000 1.0000
38.9000 177.0000 1.0000
38.9200 169.0000 1.0000
38.9400 170.0000 1.0000
38.9600 165.0000 1.0000
38.9800 164.0000 1.0000
39.0000 167.0000 1.0000
39.0200 169.0000 1.0000
39.0400 186.0000 1.0000
39.0600 187.0000 1.0000
39.0800 185.0000 1.0000
39.1000 214.0000 1.0000
39.1200 264.0000 1.0000
39.1400 271.0000 1.0000
39.1600 284.0000 1.0000
39.1800 351.0000 1.0000
39.2000 429.0000 1.0000
39.2200 525.0000 1.0000
39.2400 648.0000 1.0000
39.2600 733.0000 1.0000
39.2800 768.0000 1.0000
39.3000 802.0000 1.0000
39.3200 771.0000 1.0000
39.3400 709.0000 1.0000
39.3600 661.0000 1.0000
39.3800 592.0000 1.0000
39.4000 507.0000 1.0000
39.4200 447.0000 1.0000
39.4400 381.0000 1.0000
39.4600 299.0000 1.0000
39.4800 257.0000 1.0000
39.5000 247.0000 1.0000
39.5200 226.0000 1.0000
39.5400 196.0000 1.0000
39.5600 186.0000 1.0000
39.5800 190.0000 1.0000
39.6000 186.0000 1.0000
39.6200 178.0000 1.0000
39.6400 169.0000 1.0000
39.6600 169.0000 1.0000
39.6800 187.0000 1.0000
39.7000 186.0000 1.0000
39.7200 168.0000 1.0000
39.7400 164.0000 1.0000
39.7600 175.0000 1.0000
39.7800 179.0000 1.0000
39.8000 182.0000 1.0000
39.8200 189.0000 1.0000
39.8400 177.0000 1.0000
39.8600 170.0000 1.0000
39.8800 190.0000 1.0000
39.9000 192.0000 1.0000
39.9200 221.0000 1.0000
39.9400 255.0000 1.0000
39.9600 249.0000 1.0000
39.9800 261.0000 1.0000
40.0000 287.0000 1.0000
40.0200 324.0000 1.0000
40.0400 375.0000 1.0000
40.0600 421.0000 1.0000
40.0800 460.0000 1.0000
40.1000 467.0000 1.0000
40.1200 480.0000 1.0000
40.1400 481.0000 1.0000
40.1600 460.0000 1.0000
40.1800 437.0000 1.0000
40.2000 384.0000 1.0000
40.2200 330.0000 1.0000
40.2400 303.0000 1.0000
40.2600 268.0000 1.0000
40.2800 231.0000 1.0000
40.3000 226.0000 1.0000
40.3200 210.0000 1.0000
40.3400 184.0000 1.0000
40.3600 178.0000 1.0000
40.3800 187.0000 1.0000
40.4000 186.0000 1.0000
40.4200 165.0000 1.0000
40.4400 159.0000 1.0000
40.4600 169.0000 1.0000
40.4800 176.0000 1.0000
40.5000 168.0000 1.0000
40.5200 175.0000 1.0000
40.5400 174.0000 1.0000
40.5600 167.0000 1.0000
40.5800 167.0000 1.0000
40.6000 163.0000 1.0000
40.6200 170.0000 1.0000
40.6400 161.0000 1.0000
40.6600 155.0000 1.0000
40.6800 162.0000 1.0000
40.7000 163.0000 1.0000
40.7200 154.0000 1.0000
40.7400 168.0000 1.0000
40.7600 191.0000 1.0000
40.7800 198.0000 1.0000
40.8000 193.0000 1.0000
40.8200 184.0000 1.0000
40.8400 183.0000 1.0000
40.8600 164.0000 1.0000
40.8800 163.0000 1.0000
40.9000 169.0000 1.0000
40.9200 161.0000 1.0000
40.9400 165.0000 1.0000
40.9600 173.0000 1.0000
40.9800 190.0000 1.0000
41.0000 187.0000 1.0000
41.0200 175.0000 1.0000
41.0400 181.0000 1.0000
41.0600 166.0000 1.0000
41.0800 158.0000 1.0000
41.1000 164.0000 1.0000
41.1200 163.0000 1.0000
41.1400 165.0000 1.0000
41.1600 160.0000 1.0000
41.1800 168.0000 1.0000
41.2000 176.0000 1.0000
41.2200 163.0000 1.0000
41.2400 164.0000 1.0000
41.2600 160.0000 1.0000
41.2800 162.0000 1.0000
41.3000 152.0000 1.0000
41.3200 165.0000 1.0000
41.3400 180.0000 1.0000
41.3600 176.0000 1.0000
41.3800 171.0000 1.0000
41.4000 177.0000 1.0000
41.4200 172.0000 1.0000
41.4400 194.0000 1.0000
41.4600 210.0000 1.0000
41.4800 223.0000 1.0000
41.5000 229.0000 1.0000
41.5200 213.0000 1.0000
41.5400 206.0000 1.0000
41.5600 215.0000 1.0000
41.5800 210.0000 1.0000
41.6000 212.0000 1.0000
41.6200 232.0000 1.0000
41.6400 237.0000 1.0000
41.6600 225.0000 1.0000
41.6800 219.0000 1.0000
41.7000 217.0000 1.0000
41.7200 215.0000 1.0000
41.7400 222.0000 1.0000
41.7600 224.0000 1.0000
41.7800 211.0000 1.0000
41.8000 235.0000 1.0000
41.8200 229.0000 1.0000
41.8400 236.0000 1.0000
41.8600 231.0000 1.0000
41.8800 234.0000 1.0000
41.9000 226.0000 1.0000
41.9200 222.0000 1.0000
41.9400 224.0000 1.0000
41.9600 249.0000 1.0000
41.9800 235.0000 1.0000
42.0000 240.0000 1.0000
42.0200 260.0000 1.0000
42.0400 268.0000 1.0000
42.0600 275.0000 1.0000
42.0800 280.0000 1.0000
42.1000 304.0000 1.0000
42.1200 326.0000 1.0000
42.1400 351.0000 1.0000
42.1600 399.0000 1.0000
42.1800 494.0000 1.0000
42.2000 520.0000 1.0000
42.2200 560.0000 1.0000
42.2400 658.0000 1.0000
42.2600 703.0000 1.0000
42.2800 680.0000 1.0000
42.3000 695.0000 1.0000
42.3200 685.0000 1.0000
42.3400 647.0000 1.0000
42.3600 593.0000 1.0000
42.3800 536.0000 1.0000
42.4000 489.0000 1.0000
42.4200 409.0000 1.0000
42.4400 361.0000 1.0000
42.4600 322.0000 1.0000
42.4800 294.0000 1.0000
42.5000 270.0000 1.0000
42.5200 256.0000 1.0000
42.5400 243.0000 1.0000
42.5600 254.0000 1.0000
42.5800 225.0000 1.0000
42.6000 218.0000 1.0000
42.6200 211.0000 1.0000
42.6400 210.0000 1.0000
42.6600 215.0000 1.0000
42.6800 223.0000 1.0000
42.7000 229.0000 1.0000
42.7200 217.0000 1.0000
42.7400 215.0000 1.0000
42.7600 207.0000 1.0000
42.7800 203.0000 1.0000
42.8000 203.0000 1.0000
42.8200 213.0000 1.0000
42.8400 237.0000 1.0000
42.8600 232.0000 1.0000
42.8800 245.0000 1.0000
42.9000 250.0000 1.0000
42.9200 266.0000 1.0000
42.9400 285.0000 1.0000
42.9600 300.0000 1.0000
42.9800 331.0000 1.0000
43.0000 348.0000 1.0000
43.0200 442.0000 1.0000
43.0400 538.0000 1.0000
43.0600 653.0000 1.0000
43.0800 826.0000 1.0000
43.1000 1052.0000 1.0000
43.1200 1310.0000 1.0000
43.1400 1531.0000 1.0000
43.1600 1704.0000 1.0000
43.1800 1734.0000 1.0000
43.2000 1766.0000 1.0000
43.2200 1637.0000 1.0000
43.2400 1523.0000 1.0000
43.2600 1322.0000 1.0000
43.2800 1147.0000 1.0000
43.3000 1033.0000 1.0000
43.3200 940.0000 1.0000
43.3400 762.0000 1.0000
43.3600 608.0000 1.0000
43.3800 467.0000 1.0000
43.4000 353.0000 1.0000
43.4200 299.0000 1.0000
43.4400 286.0000 1.0000
43.4600 255.0000 1.0000
43.4800 237.0000 1.0000
43.5000 215.0000 1.0000
43.5200 217.0000 1.0000
43.5400 194.0000 1.0000
43.5600 197.0000 1.0000
43.5800 187.0000 1.0000
43.6000 185.0000 1.0000
43.6200 189.0000 1.0000
43.6400 176.0000 1.0000
43.6600 182.0000 1.0000
43.6800 177.0000 1.0000
43.7000 162.0000 1.0000
43.7200 158.0000 1.0000
43.7400 144.0000 1.0000
43.7600 150.0000 1.0000
43.7800 164.0000 1.0000
43.8000 157.0000 1.0000
43.8200 149.0000 1.0000
43.8400 136.0000 1.0000
43.8600 147.0000 1.0000
43.8800 156.0000 1.0000
43.9000 143.0000 1.0000
43.9200 150.0000 1.0000
43.9400 140.0000 1.0000
43.9600 138.0000 1.0000
43.9800 150.0000 1.0000
44.0000 146.0000 1.0000
44.0200 146.0000 1.0000
44.0400 139.0000 1.0000
44.0600 139.0000 1.0000
44.0800 137.0000 1.0000
44.1000 123.0000 1.0000
44.1200 155.0000 1.0000
44.1400 150.0000 1.0000
44.1600 149.0000 1.0000
44.1800 128.0000 1.0000
44.2000 127.0000 1.0000
44.2200 125.0000 1.0000
44.2400 138.0000 1.0000
44.2600 126.0000 1.0000
44.2800 140.0000 1.0000
44.3000 120.0000 1.0000
44.3200 140.0000 1.0000
44.3400 152.0000 1.0000
44.3600 165.0000 1.0000
44.3800 113.0000 1.0000
44.4000 147.0000 1.0000
44.4200 149.0000 1.0000
44.4400 147.0000 1.0000
44.4600 156.0000 1.0000
44.4800 152.0000 1.0000
44.5000 134.0000 1.0000
44.5200 142.0000 1.0000
44.5400 136.0000 1.0000
44.5600 147.0000 1.0000
44.5800 153.0000 1.0000
44.6000 156.0000 1.0000
44.6200 151.0000 1.0000
44.6400 160.0000 1.0000
44.6600 164.0000 1.0000
44.6800 148.0000 1.0000
44.7000 159.0000 1.0000
44.7200 170.0000 1.0000
44.7400 170.0000 1.0000
44.7600 174.0000 1.0000
44.7800 170.0000 1.0000
44.8000 182.0000 1.0000
44.8200 171.0000 1.0000
44.8400 176.0000 1.0000
44.8600 168.0000 1.0000
44.8800 170.0000 1.0000
44.9000 178.0000 1.0000
44.9200 187.0000 1.0000
44.9400 185.0000 1.0000
44.9600 173.0000 1.0000
44.9800 180.0000 1.0000
45.0000 189.0000 1.0000
45.0200 210.0000 1.0000
45.0400 205.0000 1.0000
45.0600 179.0000 1.0000
45.0800 195.0000 1.0000
45.1000 201.0000 1.0000
45.1200 207.0000 1.0000
45.1400 226.0000 1.0000
45.1600 208.0000 1.0000
45.1800 192.0000 1.0000
45.2000 211.0000 1.0000
45.2200 199.0000 1.0000
45.2400 228.0000 1.0000
45.2600 207.0000 1.0000
45.2800 216.0000 1.0000
45.3000 221.0000 1.0000
45.3200 213.0000 1.0000
45.3400 231.0000 1.0000
45.3600 218.0000 1.0000
45.3800 183.0000 1.0000
45.4000 221.0000 1.0000
45.4200 227.0000 1.0000
45.4400 250.0000 1.0000
45.4600 273.0000 1.0000
45.4800 284.0000 1.0000
45.5000 255.0000 1.0000
45.5200 316.0000 1.0000
45.5400 359.0000 1.0000
45.5600 371.0000 1.0000
45.5800 437.0000 1.0000
45.6000 525.0000 1.0000
45.6200 479.0000 1.0000
45.6400 461.0000 1.0000
45.6600 440.0000 1.0000
45.6800 430.0000 1.0000
45.7000 363.0000 1.0000
45.7200 387.0000 1.0000
45.7400 322.0000 1.0000
45.7600 317.0000 1.0000
45.7800 274.0000 1.0000
45.8000 257.0000 1.0000
45.8200 219.0000 1.0000
45.8400 195.0000 1.0000
45.8600 192.0000 1.0000
45.8800 188.0000 1.0000
45.9000 192.0000 1.0000
45.9200 179.0000 1.0000
45.9400 171.0000 1.0000
45.9600 196.0000 1.0000
45.9800 176.0000 1.0000
46.0000 204.0000 1.0000
46.0200 180.0000 1.0000
46.0400 170.0000 1.0000
46.0600 162.0000 1.0000
46.0800 138.0000 1.0000
46.1000 156.0000 1.0000
46.1200 161.0000 1.0000
46.1400 138.0000 1.0000
46.1600 145.0000 1.0000
46.1800 128.0000 1.0000
46.2000 134.0000 1.0000
46.2200 120.0000 1.0000
46.2400 129.0000 1.0000
46.2600 134.0000 1.0000
46.2800 126.0000 1.0000
46.3000 144.0000 1.0000
46.3200 113.0000 1.0000
46.3400 136.0000 1.0000
46.3600 123.0000 1.0000
46.3800 122.0000 1.0000
46.4000 120.0000 1.0000
46.4200 141.0000 1.0000
46.4400 129.0000 1.0000
46.4600 128.0000 1.0000
46.4800 126.0000 1.0000
46.5000 125.0000 1.0000
46.5200 113.0000 1.0000
46.5400 118.0000 1.0000
46.5600 127.0000 1.0000
46.5800 114.0000 1.0000
46.6000 120.0000 1.0000
46.6200 120.0000 1.0000
46.6400 119.0000 1.0000
46.6600 131.0000 1.0000
46.6800 120.0000 1.0000
46.7000 96.0000 1.0000
46.7200 108.0000 1.0000
46.7400 124.0000 1.0000
46.7600 129.0000 1.0000
46.7800 127.0000 1.0000
46.8000 122.0000 1.0000
46.8200 132.0000 1.0000
46.8400 134.0000 1.0000
46.8600 133.0000 1.0000
46.8800 129.0000 1.0000
46.9000 112.0000 1.0000
46.9200 117.0000 1.0000
46.9400 132.0000 1.0000
46.9600 127.0000 1.0000
46.9800 126.0000 1.0000
47.0000 124.0000 1.0000
47.0200 131.0000 1.0000
47.0400 136.0000 1.0000
47.0600 137.0000 1.0000
47.0800 127.0000 1.0000
47.1000 136.0000 1.0000
47.1200 123.0000 1.0000
47.1400 108.0000 1.0000
47.1600 110.0000 1.0000
47.1800 108.0000 1.0000
47.2000 115.0000 1.0000
47.2200 125.0000 1.0000
47.2400 109.0000 1.0000
47.2600 109.0000 1.0000
47.2800 115.0000 1.0000
47.3000 122.0000 1.0000
47.3200 115.0000 1.0000
47.3400 115.0000 1.0000
47.3600 126.0000 1.0000
47.3800 128.0000 1.0000
47.4000 107.0000 1.0000
47.4200 127.0000 1.0000
47.4400 123.0000 1.0000
47.4600 111.0000 1.0000
47.4800 116.0000 1.0000
47.5000 129.0000 1.0000
47.5200 137.0000 1.0000
47.5400 134.0000 1.0000
47.5600 127.0000 1.0000
47.5800 119.0000 1.0000
47.6000 131.0000 1.0000
47.6200 142.0000 1.0000
47.6400 135.0000 1.0000
47.6600 136.0000 1.0000
47.6800 140.0000 1.0000
47.7000 143.0000 1.0000
47.7200 145.0000 1.0000
47.7400 140.0000 1.0000
47.7600 130.0000 1.0000
47.7800 136.0000 1.0000
47.8000 141.0000 1.0000
47.8200 141.0000 1.0000
47.8400 140.0000 1.0000
47.8600 154.0000 1.0000
47.8800 142.0000 1.0000
47.9000 142.0000 1.0000
47.9200 154.0000 1.0000
47.9400 141.0000 1.0000
47.9600 138.0000 1.0000
47.9800 143.0000 1.0000
48.0000 155.0000 1.0000
48.0200 153.0000 1.0000
48.0400 147.0000 1.0000
48.0600 156.0000 1.0000
48.0800 144.0000 1.0000
48.1000 123.0000 1.0000
48.1200 132.0000 1.0000
48.1400 141.0000 1.0000
48.1600 150.0000 1.0000
48.1800 136.0000 1.0000
48.2000 130.0000 1.0000
48.2200 136.0000 1.0000
48.2400 130.0000 1.0000
48.2600 132.0000 1.0000
48.2800 125.0000 1.0000
48.3000 119.0000 1.0000
48.3200 122.0000 1.0000
48.3400 119.0000 1.0000
48.3600 124.0000 1.0000
48.3800 127.0000 1.0000
48.4000 112.0000 1.0000
48.4200 116.0000 1.0000
48.4400 112.0000 1.0000
48.4600 109.0000 1.0000
48.4800 120.0000 1.0000
48.5000 115.0000 1.0000
48.5200 113.0000 1.0000
48.5400 126.0000 1.0000
48.5600 124.0000 1.0000
48.5800 112.0000 1.0000
48.6000 120.0000 1.0000
48.6200 120.0000 1.0000
48.6400 112.0000 1.0000
48.6600 111.0000 1.0000
48.6800 127.0000 1.0000
48.7000 135.0000 1.0000
48.7200 136.0000 1.0000
48.7400 140.0000 1.0000
48.7600 137.0000 1.0000
48.7800 132.0000 1.0000
48.8000 137.0000 1.0000
48.8200 146.0000 1.0000
48.8400 154.0000 1.0000
48.8600 153.0000 1.0000
48.8800 147.0000 1.0000
48.9000 157.0000 1.0000
48.9200 161.0000 1.0000
48.9400 152.0000 1.0000
48.9600 164.0000 1.0000
48.9800 197.0000 1.0000
49.0000 195.0000 1.0000
49.0200 186.0000 1.0000
49.0400 183.0000 1.0000
49.0600 177.0000 1.0000
49.0800 196.0000 1.0000
49.1000 198.0000 1.0000
49.1200 183.0000 1.0000
49.1400 187.0000 1.0000
49.1600 191.0000 1.0000
49.1800 180.0000 1.0000
49.2000 172.0000 1.0000
49.2200 165.0000 1.0000
49.2400 156.0000 1.0000
49.2600 165.0000 1.0000
49.2800 169.0000 1.0000
49.3000 166.0000 1.0000
49.3200 179.0000 1.0000
49.3400 184.0000 1.0000
49.3600 176.0000 1.0000
49.3800 189.0000 1.0000
49.4000 172.0000 1.0000
49.4200 169.0000 1.0000
49.4400 188.0000 1.0000
49.4600 186.0000 1.0000
49.4800 190.0000 1.0000
49.5000 197.0000 1.0000
49.5200 194.0000 1.0000
49.5400 210.0000 1.0000
49.5600 226.0000 1.0000
49.5800 234.0000 1.0000
49.6000 240.0000 1.0000
49.6200 227.0000 1.0000
49.6400 231.0000 1.0000
49.6600 244.0000 1.0000
49.6800 263.0000 1.0000
49.7000 284.0000 1.0000
49.7200 295.0000 1.0000
49.7400 311.0000 1.0000
49.7600 312.0000 1.0000
49.7800 345.0000 1.0000
49.8000 394.0000 1.0000
49.8200 452.0000 1.0000
49.8400 550.0000 1.0000
49.8600 634.0000 1.0000
49.8800 753.0000 1.0000
49.9000 895.0000 1.0000
49.9200 1029.0000 1.0000
49.9400 1178.0000 1.0000
49.9600 1287.0000 1.0000
49.9800 1213.0000 1.0000
50.0000 1197.0000 1.0000
50.0200 1152.0000 1.0000
50.0400 1005.0000 1.0000
50.0600 900.0000 1.0000
50.0800 834.0000 1.0000
50.1000 786.0000 1.0000
50.1200 690.0000 1.0000
50.1400 596.0000 1.0000
50.1600 490.0000 1.0000
50.1800 407.0000 1.0000
50.2000 328.0000 1.0000
50.2200 295.0000 1.0000
50.2400 261.0000 1.0000
50.2600 249.0000 1.0000
50.2800 231.0000 1.0000
50.3000 201.0000 1.0000
50.3200 191.0000 1.0000
50.3400 200.0000 1.0000
50.3600 225.0000 1.0000
50.3800 236.0000 1.0000
50.4000 239.0000 1.0000
50.4200 242.0000 1.0000
50.4400 238.0000 1.0000
50.4600 233.0000 1.0000
50.4800 232.0000 1.0000
50.5000 229.0000 1.0000
50.5200 242.0000 1.0000
50.5400 240.0000 1.0000
50.5600 231.0000 1.0000
50.5800 238.0000 1.0000
50.6000 222.0000 1.0000
50.6200 206.0000 1.0000
50.6400 215.0000 1.0000
50.6600 216.0000 1.0000
50.6800 187.0000 1.0000
50.7000 188.0000 1.0000
50.7200 180.0000 1.0000
50.7400 188.0000 1.0000
50.7600 171.0000 1.0000
50.7800 163.0000 1.0000
50.8000 144.0000 1.0000
50.8200 149.0000 1.0000
50.8400 143.0000 1.0000
50.8600 139.0000 1.0000
50.8800 166.0000 1.0000
50.9000 159.0000 1.0000
50.9200 145.0000 1.0000
50.9400 167.0000 1.0000
50.9600 157.0000 1.0000
50.9800 202.0000 1.0000
51.0000 196.0000 1.0000
51.0200 186.0000 1.0000
51.0400 184.0000 1.0000
51.0600 186.0000 1.0000
51.0800 196.0000 1.0000
51.1000 163.0000 1.0000
51.1200 167.0000 1.0000
51.1400 160.0000 1.0000
51.1600 157.0000 1.0000
51.1800 161.0000 1.0000
51.2000 144.0000 1.0000
51.2200 164.0000 1.0000
51.2400 127.0000 1.0000
51.2600 130.0000 1.0000
51.2800 135.0000 1.0000
51.3000 136.0000 1.0000
51.3200 152.0000 1.0000
51.3400 154.0000 1.0000
51.3600 144.0000 1.0000
51.3800 140.0000 1.0000
51.4000 135.0000 1.0000
51.4200 124.0000 1.0000
51.4400 128.0000 1.0000
51.4600 150.0000 1.0000
51.4800 113.0000 1.0000
51.5000 140.0000 1.0000
51.5200 131.0000 1.0000
51.5400 128.0000 1.0000
51.5600 137.0000 1.0000
51.5800 110.0000 1.0000
51.6000 99.0000 1.0000
51.6200 116.0000 1.0000
51.6400 90.0000 1.0000
51.6600 116.0000 1.0000
51.6800 122.0000 1.0000
51.7000 121.0000 1.0000
51.7200 111.0000 1.0000
51.7400 120.0000 1.0000
51.7600 128.0000 1.0000
51.7800 139.0000 1.0000
51.8000 114.0000 1.0000
51.8200 102.0000 1.0000
51.8400 115.0000 1.0000
51.8600 122.0000 1.0000
51.8800 124.0000 1.0000
51.9000 115.0000 1.0000
51.9200 133.0000 1.0000
51.9400 132.0000 1.0000
51.9600 151.0000 1.0000
51.9800 169.0000 1.0000
52.0000 157.0000 1.0000
52.0200 183.0000 1.0000
52.0400 154.0000 1.0000
52.0600 186.0000 1.0000
52.0800 179.0000 1.0000
52.1000 177.0000 1.0000
52.1200 191.0000 1.0000
52.1400 170.0000 1.0000
52.1600 198.0000 1.0000
52.1800 213.0000 1.0000
52.2000 216.0000 1.0000
52.2200 242.0000 1.0000
52.2400 258.0000 1.0000
52.2600 285.0000 1.0000
52.2800 373.0000 1.0000
52.3000 432.0000 1.0000
52.3200 554.0000 1.0000
52.3400 680.0000 1.0000
52.3600 726.0000 1.0000
52.3800 830.0000 1.0000
52.4000 849.0000 1.0000
52.4200 826.0000 1.0000
52.4400 720.0000 1.0000
52.4600 702.0000 1.0000
52.4800 634.0000 1.0000
52.5000 598.0000 1.0000
52.5200 541.0000 1.0000
52.5400 517.0000 1.0000
52.5600 480.0000 1.0000
52.5800 390.0000 1.0000
52.6000 366.0000 1.0000
52.6200 296.0000 1.0000
52.6400 236.0000 1.0000
52.6600 187.0000 1.0000
52.6800 176.0000 1.0000
52.7000 184.0000 1.0000
52.7200 191.0000 1.0000
52.7400 170.0000 1.0000
52.7600 159.0000 1.0000
52.7800 202.0000 1.0000
52.8000 164.0000 1.0000
52.8200 173.0000 1.0000
52.8400 171.0000 1.0000
52.8600 163.0000 1.0000
52.8800 158.0000 1.0000
52.9000 162.0000 1.0000
52.9200 154.0000 1.0000
52.9400 144.0000 1.0000
52.9600 161.0000 1.0000
52.9800 165.0000 1.0000
53.0000 163.0000 1.0000
53.0200 154.0000 1.0000
53.0400 166.0000 1.0000
53.0600 196.0000 1.0000
53.0800 177.0000 1.0000
53.1000 183.0000 1.0000
53.1200 184.0000 1.0000
53.1400 181.0000 1.0000
53.1600 165.0000 1.0000
53.1800 165.0000 1.0000
53.2000 172.0000 1.0000
53.2200 170.0000 1.0000
53.2400 153.0000 1.0000
53.2600 142.0000 1.0000
53.2800 132.0000 1.0000
53.3000 143.0000 1.0000
53.3200 150.0000 1.0000
53.3400 150.0000 1.0000
53.3600 153.0000 1.0000
53.3800 131.0000 1.0000
53.4000 141.0000 1.0000
53.4200 144.0000 1.0000
53.4400 135.0000 1.0000
53.4600 158.0000 1.0000
53.4800 143.0000 1.0000
53.5000 162.0000 1.0000
53.5200 141.0000 1.0000
53.5400 147.0000 1.0000
53.5600 147.0000 1.0000
53.5800 130.0000 1.0000
53.6000 153.0000 1.0000
53.6200 144.0000 1.0000
53.6400 149.0000 1.0000
53.6600 149.0000 1.0000
53.6800 135.0000 1.0000
53.7000 160.0000 1.0000
53.7200 173.0000 1.0000
53.7400 161.0000 1.0000
53.7600 156.0000 1.0000
53.7800 154.0000 1.0000
53.8000 158.0000 1.0000
53.8200 167.0000 1.0000
53.8400 150.0000 1.0000
53.8600 168.0000 1.0000
53.8800 167.0000 1.0000
53.9000 153.0000 1.0000
53.9200 185.0000 1.0000
53.9400 164.0000 1.0000
53.9600 166.0000 1.0000
53.9800 160.0000 1.0000
54.0000 151.0000 1.0000
54.0200 151.0000 1.0000
54.0400 161.0000 1.0000
54.0600 159.0000 1.0000
54.0800 162.0000 1.0000
54.1000 151.0000 1.0000
54.1200 147.0000 1.0000
54.1400 160.0000 1.0000
54.1600 170.0000 1.0000
54.1800 164.0000 1.0000
54.2000 156.0000 1.0000
54.2200 164.0000 1.0000
54.2400 172.0000 1.0000
54.2600 165.0000 1.0000
54.2800 163.0000 1.0000
54.3000 165.0000 1.0000
54.3200 179.0000 1.0000
54.3400 185.0000 1.0000
54.3600 170.0000 1.0000
54.3800 172.0000 1.0000
54.4000 187.0000 1.0000
54.4200 174.0000 1.0000
54.4400 174.0000 1.0000
54.4600 172.0000 1.0000
54.4800 190.0000 1.0000
54.5000 184.0000 1.0000
54.5200 200.0000 1.0000
54.5400 213.0000 1.0000
54.5600 235.0000 1.0000
54.5800 258.0000 1.0000
54.6000 297.0000 1.0000
54.6200 323.0000 1.0000
54.6400 366.0000 1.0000
54.6600 416.0000 1.0000
54.6800 432.0000 1.0000
54.7000 457.0000 1.0000
54.7200 470.0000 1.0000
54.7400 497.0000 1.0000
54.7600 445.0000 1.0000
54.7800 398.0000 1.0000
54.8000 367.0000 1.0000
54.8200 369.0000 1.0000
54.8400 368.0000 1.0000
54.8600 363.0000 1.0000
54.8800 343.0000 1.0000
54.9000 308.0000 1.0000
54.9200 296.0000 1.0000
54.9400 252.0000 1.0000
54.9600 246.0000 1.0000
54.9800 257.0000 1.0000
55.0000 254.0000 1.0000
55.0200 230.0000 1.0000
55.0400 226.0000 1.0000
55.0600 251.0000 1.0000
55.0800 264.0000 1.0000
55.1000 266.0000 1.0000
55.1200 284.0000 1.0000
55.1400 295.0000 1.0000
55.1600 285.0000 1.0000
55.1800 298.0000 1.0000
55.2000 303.0000 1.0000
55.2200 288.0000 1.0000
55.2400 270.0000 1.0000
55.2600 261.0000 1.0000
55.2800 250.0000 1.0000
55.3000 249.0000 1.0000
55.3200 248.0000 1.0000
55.3400 252.0000 1.0000
55.3600 242.0000 1.0000
55.3800 215.0000 1.0000
55.4000 183.0000 1.0000
55.4200 168.0000 1.0000
55.4400 177.0000 1.0000
55.4600 175.0000 1.0000
55.4800 164.0000 1.0000
55.5000 170.0000 1.0000
55.5200 175.0000 1.0000
55.5400 170.0000 1.0000
55.5600 167.0000 1.0000
55.5800 161.0000 1.0000
55.6000 154.0000 1.0000
55.6200 167.0000 1.0000
55.6400 180.0000 1.0000
55.6600 165.0000 1.0000
55.6800 153.0000 1.0000
55.7000 163.0000 1.0000
55.7200 166.0000 1.0000
55.7400 156.0000 1.0000
55.7600 167.0000 1.0000
55.7800 178.0000 1.0000
55.8000 161.0000 1.0000
55.8200 160.0000 1.0000
55.8400 165.0000 1.0000
55.8600 162.0000 1.0000
55.8800 155.0000 1.0000
55.9000 162.0000 1.0000
55.9200 173.0000 1.0000
55.9400 160.0000 1.0000
55.9600 160.0000 1.0000
55.9800 161.0000 1.0000
56.0000 155.0000 1.0000
56.0200 160.0000 1.0000
56.0400 163.0000 1.0000
56.0600 162.0000 1.0000
56.0800 161.0000 1.0000
56.1000 164.0000 1.0000
56.1200 171.0000 1.0000
56.1400 162.0000 1.0000
56.1600 174.0000 1.0000
56.1800 176.0000 1.0000
56.2000 160.0000 1.0000
56.2200 161.0000 1.0000
56.2400 157.0000 1.0000
56.2600 160.0000 1.0000
56.2800 159.0000 1.0000
56.3000 164.0000 1.0000
56.3200 160.0000 1.0000
56.3400 153.0000 1.0000
56.3600 157.0000 1.0000
56.3800 160.0000 1.0000
56.4000 157.0000 1.0000
56.4200 163.0000 1.0000
56.4400 187.0000 1.0000
56.4600 190.0000 1.0000
56.4800 165.0000 1.0000
56.5000 155.0000 1.0000
56.5200 158.0000 1.0000
56.5400 171.0000 1.0000
56.5600 175.0000 1.0000
56.5800 162.0000 1.0000
56.6000 154.0000 1.0000
56.6200 160.0000 1.0000
56.6400 153.0000 1.0000
56.6600 138.0000 1.0000
56.6800 146.0000 1.0000
56.7000 157.0000 1.0000
56.7200 157.0000 1.0000
56.7400 141.0000 1.0000
56.7600 137.0000 1.0000
56.7800 134.0000 1.0000
56.8000 136.0000 1.0000
56.8200 147.0000 1.0000
56.8400 151.0000 1.0000
56.8600 158.0000 1.0000
56.8800 172.0000 1.0000
56.9000 164.0000 1.0000
56.9200 163.0000 1.0000
56.9400 157.0000 1.0000
56.9600 163.0000 1.0000
56.9800 188.0000 1.0000
57.0000 200.0000 1.0000
57.0200 205.0000 1.0000
57.0400 220.0000 1.0000
57.0600 229.0000 1.0000
57.0800 242.0000 1.0000
57.1000 250.0000 1.0000
57.1200 246.0000 1.0000
57.1400 270.0000 1.0000
57.1600 331.0000 1.0000
57.1800 390.0000 1.0000
57.2000 452.0000 1.0000
57.2200 551.0000 1.0000
57.2400 653.0000 1.0000
57.2600 808.0000 1.0000
57.2800 979.0000 1.0000
57.3000 1165.0000 1.0000
57.3200 1353.0000 1.0000
57.3400 1496.0000 1.0000
57.3600 1471.0000 1.0000
57.3800 1334.0000 1.0000
57.4000 1221.0000 1.0000
57.4200 1107.0000 1.0000
57.4400 970.0000 1.0000
57.4600 929.0000 1.0000
57.4800 893.0000 1.0000
57.5000 841.0000 1.0000
57.5200 808.0000 1.0000
57.5400 710.0000 1.0000
57.5600 630.0000 1.0000
57.5800 478.0000 1.0000
57.6000 372.0000 1.0000
57.6200 304.0000 1.0000
57.6400 266.0000 1.0000
57.6600 251.0000 1.0000
57.6800 213.0000 1.0000
57.7000 196.0000 1.0000
57.7200 182.0000 1.0000
57.7400 187.0000 1.0000
57.7600 180.0000 1.0000
57.7800 159.0000 1.0000
57.8000 175.0000 1.0000
57.8200 167.0000 1.0000
57.8400 145.0000 1.0000
57.8600 152.0000 1.0000
57.8800 159.0000 1.0000
57.9000 163.0000 1.0000
57.9200 136.0000 1.0000
57.9400 145.0000 1.0000
57.9600 134.0000 1.0000
57.9800 131.0000 1.0000
58.0000 147.0000 1.0000
58.0200 140.0000 1.0000
58.0400 141.0000 1.0000
58.0600 157.0000 1.0000
58.0800 157.0000 1.0000
58.1000 141.0000 1.0000
58.1200 131.0000 1.0000
58.1400 137.0000 1.0000
58.1600 139.0000 1.0000
58.1800 124.0000 1.0000
58.2000 128.0000 1.0000
58.2200 133.0000 1.0000
58.2400 124.0000 1.0000
58.2600 119.0000 1.0000
58.2800 136.0000 1.0000
58.3000 129.0000 1.0000
58.3200 134.0000 1.0000
58.3400 138.0000 1.0000
58.3600 142.0000 1.0000
58.3800 124.0000 1.0000
58.4000 130.0000 1.0000
58.4200 128.0000 1.0000
58.4400 141.0000 1.0000
58.4600 140.0000 1.0000
58.4800 139.0000 1.0000
58.5000 142.0000 1.0000
58.5200 146.0000 1.0000
58.5400 146.0000 1.0000
58.5600 161.0000 1.0000
58.5800 178.0000 1.0000
58.6000 163.0000 1.0000
58.6200 147.0000 1.0000
58.6400 134.0000 1.0000
58.6600 131.0000 1.0000
58.6800 146.0000 1.0000
58.7000 156.0000 1.0000
58.7200 158.0000 1.0000
58.7400 144.0000 1.0000
58.7600 139.0000 1.0000
58.7800 155.0000 1.0000
58.8000 133.0000 1.0000
58.8200 125.0000 1.0000
58.8400 128.0000 1.0000
58.8600 144.0000 1.0000
58.8800 128.0000 1.0000
58.9000 124.0000 1.0000
58.9200 124.0000 1.0000
58.9400 147.0000 1.0000
58.9600 142.0000 1.0000
58.9800 137.0000 1.0000
59.0000 149.0000 1.0000
59.0200 143.0000 1.0000
59.0400 129.0000 1.0000
59.0600 135.0000 1.0000
59.0800 136.0000 1.0000
59.1000 138.0000 1.0000
59.1200 137.0000 1.0000
59.1400 149.0000 1.0000
59.1600 141.0000 1.0000
59.1800 161.0000 1.0000
59.2000 149.0000 1.0000
59.2200 180.0000 1.0000
59.2400 184.0000 1.0000
59.2600 152.0000 1.0000
59.2800 152.0000 1.0000
59.3000 154.0000 1.0000
59.3200 173.0000 1.0000
59.3400 163.0000 1.0000
59.3600 178.0000 1.0000
59.3800 184.0000 1.0000
59.4000 201.0000 1.0000
59.4200 198.0000 1.0000
59.4400 206.0000 1.0000
59.4600 206.0000 1.0000
59.4800 221.0000 1.0000
59.5000 206.0000 1.0000
59.5200 231.0000 1.0000
59.5400 246.0000 1.0000
59.5600 281.0000 1.0000
59.5800 290.0000 1.0000
59.6000 308.0000 1.0000
59.6200 339.0000 1.0000
59.6400 351.0000 1.0000
59.6600 407.0000 1.0000
59.6800 429.0000 1.0000
59.7000 504.0000 1.0000
59.7200 527.0000 1.0000
59.7400 661.0000 1.0000
59.7600 792.0000 1.0000
59.7800 845.0000 1.0000
59.8000 860.0000 1.0000
59.8200 823.0000 1.0000
59.8400 834.0000 1.0000
59.8600 742.0000 1.0000
59.8800 644.0000 1.0000
59.9000 634.0000 1.0000
59.9200 601.0000 1.0000
59.9400 565.0000 1.0000
59.9600 547.0000 1.0000
59.9800 586.0000 1.0000
60.0000 511.0000 1.0000
60.0200 410.0000 1.0000
60.0400 374.0000 1.0000
60.0600 327.0000 1.0000
60.0800 271.0000 1.0000
60.1000 233.0000 1.0000
60.1200 233.0000 1.0000
60.1400 240.0000 1.0000
60.1600 210.0000 1.0000
60.1800 204.0000 1.0000
60.2000 216.0000 1.0000
60.2200 203.0000 1.0000
60.2400 203.0000 1.0000
60.2600 196.0000 1.0000
60.2800 202.0000 1.0000
60.3000 188.0000 1.0000
60.3200 202.0000 1.0000
60.3400 167.0000 1.0000
60.3600 170.0000 1.0000
60.3800 187.0000 1.0000
60.4000 162.0000 1.0000
60.4200 181.0000 1.0000
60.4400 171.0000 1.0000
60.4600 169.0000 1.0000
60.4800 170.0000 1.0000
60.5000 155.0000 1.0000
60.5200 167.0000 1.0000
60.5400 161.0000 1.0000
60.5600 173.0000 1.0000
60.5800 181.0000 1.0000
60.6000 185.0000 1.0000
60.6200 157.0000 1.0000
60.6400 160.0000 1.0000
60.6600 151.0000 1.0000
60.6800 181.0000 1.0000
60.7000 163.0000 1.0000
60.7200 155.0000 1.0000
60.7400 166.0000 1.0000
60.7600 162.0000 1.0000
60.7800 158.0000 1.0000
60.8000 192.0000 1.0000
60.8200 159.0000 1.0000
60.8400 140.0000 1.0000
60.8600 173.0000 1.0000
60.8800 160.0000 1.0000
60.9000 173.0000 1.0000
60.9200 203.0000 1.0000
60.9400 206.0000 1.0000
60.9600 231.0000 1.0000
60.9800 206.0000 1.0000
61.0000 216.0000 1.0000
61.0200 209.0000 1.0000
61.0400 203.0000 1.0000
61.0600 222.0000 1.0000
61.0800 240.0000 1.0000
61.1000 263.0000 1.0000
61.1200 280.0000 1.0000
61.1400 276.0000 1.0000
61.1600 331.0000 1.0000
61.1800 260.0000 1.0000
61.2000 300.0000 1.0000
61.2200 245.0000 1.0000
61.2400 253.0000 1.0000
61.2600 231.0000 1.0000
61.2800 277.0000 1.0000
61.3000 264.0000 1.0000
61.3200 278.0000 1.0000
61.3400 257.0000 1.0000
61.3600 279.0000 1.0000
61.3800 229.0000 1.0000
61.4000 240.0000 1.0000
61.4200 227.0000 1.0000
61.4400 239.0000 1.0000
61.4600 239.0000 1.0000
61.4800 245.0000 1.0000
61.5000 262.0000 1.0000
61.5200 263.0000 1.0000
61.5400 243.0000 1.0000
61.5600 230.0000 1.0000
61.5800 266.0000 1.0000
61.6000 261.0000 1.0000
61.6200 285.0000 1.0000
61.6400 274.0000 1.0000
61.6600 301.0000 1.0000
61.6800 268.0000 1.0000
61.7000 250.0000 1.0000
61.7200 260.0000 1.0000
61.7400 259.0000 1.0000
61.7600 263.0000 1.0000
61.7800 260.0000 1.0000
61.8000 260.0000 1.0000
61.8200 301.0000 1.0000
61.8400 254.0000 1.0000
61.8600 265.0000 1.0000
61.8800 243.0000 1.0000
61.9000 245.0000 1.0000
61.9200 237.0000 1.0000
61.9400 226.0000 1.0000
61.9600 225.0000 1.0000
61.9800 231.0000 1.0000
62.0000 213.0000 1.0000
62.0200 216.0000 1.0000
62.0400 234.0000 1.0000
62.0600 218.0000 1.0000
62.0800 185.0000 1.0000
62.1000 189.0000 1.0000
62.1200 200.0000 1.0000
62.1400 218.0000 1.0000
62.1600 183.0000 1.0000
62.1800 174.0000 1.0000
62.2000 164.0000 1.0000
62.2200 179.0000 1.0000
62.2400 164.0000 1.0000
62.2600 170.0000 1.0000
62.2800 163.0000 1.0000
62.3000 162.0000 1.0000
62.3200 156.0000 1.0000
62.3400 167.0000 1.0000
62.3600 134.0000 1.0000
62.3800 158.0000 1.0000
62.4000 190.0000 1.0000
62.4200 178.0000 1.0000
62.4400 156.0000 1.0000
62.4600 168.0000 1.0000
62.4800 162.0000 1.0000
62.5000 148.0000 1.0000
62.5200 152.0000 1.0000
62.5400 151.0000 1.0000
62.5600 152.0000 1.0000
62.5800 137.0000 1.0000
62.6000 166.0000 1.0000
62.6200 156.0000 1.0000
62.6400 142.0000 1.0000
62.6600 142.0000 1.0000
62.6800 147.0000 1.0000
62.7000 147.0000 1.0000
62.7200 137.0000 1.0000
62.7400 148.0000 1.0000
62.7600 132.0000 1.0000
62.7800 127.0000 1.0000
62.8000 125.0000 1.0000
62.8200 136.0000 1.0000
62.8400 129.0000 1.0000
62.8600 138.0000 1.0000
62.8800 139.0000 1.0000
62.9000 123.0000 1.0000
62.9200 131.0000 1.0000
62.9400 131.0000 1.0000
62.9600 128.0000 1.0000
62.9800 123.0000 1.0000
63.0000 159.0000 1.0000
63.0200 136.0000 1.0000
63.0400 126.0000 1.0000
63.0600 130.0000 1.0000
63.0800 108.0000 1.0000
63.1000 119.0000 1.0000
63.1200 140.0000 1.0000
63.1400 116.0000 1.0000
63.1600 128.0000 1.0000
63.1800 143.0000 1.0000
63.2000 126.0000 1.0000
63.2200 134.0000 1.0000
63.2400 134.0000 1.0000
63.2600 143.0000 1.0000
63.2800 137.0000 1.0000
63.3000 155.0000 1.0000
63.3200 128.0000 1.0000
63.3400 150.0000 1.0000
63.3600 159.0000 1.0000
63.3800 140.0000 1.0000
63.4000 138.0000 1.0000
63.4200 136.0000 1.0000
63.4400 148.0000 1.0000
63.4600 155.0000 1.0000
63.4800 158.0000 1.0000
63.5000 158.0000 1.0000
63.5200 153.0000 1.0000
63.5400 136.0000 1.0000
63.5600 152.0000 1.0000
63.5800 140.0000 1.0000
63.6000 161.0000 1.0000
63.6200 170.0000 1.0000
63.6400 162.0000 1.0000
63.6600 179.0000 1.0000
63.6800 168.0000 1.0000
63.7000 159.0000 1.0000
63.7200 203.0000 1.0000
63.7400 179.0000 1.0000
63.7600 200.0000 1.0000
63.7800 218.0000 1.0000
63.8000 221.0000 1.0000
63.8200 257.0000 1.0000
63.8400 262.0000 1.0000
63.8600 260.0000 1.0000
63.8800 265.0000 1.0000
63.9000 237.0000 1.0000
63.9200 236.0000 1.0000
63.9400 243.0000 1.0000
63.9600 238.0000 1.0000
63.9800 210.0000 1.0000
64.0000 194.0000 1.0000
64.0200 184.0000 1.0000
64.0400 190.0000 1.0000
64.0600 198.0000 1.0000
64.0800 193.0000 1.0000
64.1000 172.0000 1.0000
64.1200 153.0000 1.0000
64.1400 150.0000 1.0000
64.1600 156.0000 1.0000
64.1800 138.0000 1.0000
64.2000 137.0000 1.0000
64.2200 149.0000 1.0000
64.2400 123.0000 1.0000
64.2600 116.0000 1.0000
64.2800 130.0000 1.0000
64.3000 149.0000 1.0000
64.3200 127.0000 1.0000
64.3400 130.0000 1.0000
64.3600 128.0000 1.0000
64.3800 126.0000 1.0000
64.4000 120.0000 1.0000
64.4200 144.0000 1.0000
64.4400 122.0000 1.0000
64.4600 117.0000 1.0000
64.4800 133.0000 1.0000
64.5000 143.0000 1.0000
64.5200 131.0000 1.0000
64.5400 116.0000 1.0000
64.5600 127.0000 1.0000
64.5800 135.0000 1.0000
64.6000 138.0000 1.0000
64.6200 138.0000 1.0000
64.6400 141.0000 1.0000
64.6600 122.0000 1.0000
64.6800 122.0000 1.0000
64.7000 127.0000 1.0000
64.7200 117.0000 1.0000
64.7400 137.0000 1.0000
64.7600 149.0000 1.0000
64.7800 139.0000 1.0000
64.8000 131.0000 1.0000
64.8200 133.0000 1.0000
64.8400 122.0000 1.0000
64.8600 134.0000 1.0000
64.8800 131.0000 1.0000
64.9000 139.0000 1.0000
64.9200 148.0000 1.0000
64.9400 151.0000 1.0000
64.9600 151.0000 1.0000
64.9800 151.0000 1.0000
65.0000 151.0000 1.0000
*RAS_INT_END
*RAS_DATA_END
