*RAS_DATA_START
*RAS_HEADER_START
*CORR_POS_DB_NAME "Angle Correction ASC6 SC WITH Mono_04082019"
*CORR_POS_GONIO_RADIUS ""
*CORR_POS_NODE_INDEX01 ""
*CORR_POS_NODE_INDEX02 ""
*CORR_POS_NODE_INDEX03 ""
*CORR_POS_NODE_INDEX04 ""
*CORR_POS_NODE_INDEX05 ""
*CORR_POS_NODE_INDEX06 ""
*CORR_POS_NODE_INDEX07 ""
*CORR_POS_NODE_INDEX08 ""
*CORR_POS_NODE_INDEX09 ""
*CORR_POS_NODE_INDEX10 ""
*CORR_POS_NODE_INDEX11 ""
*CORR_POS_NODE_LABEL01 "Si(111)"
*CORR_POS_NODE_LABEL02 "Si(220)"
*CORR_POS_NODE_LABEL03 "Si(311)"
*CORR_POS_NODE_LABEL04 "Si(400)"
*CORR_POS_NODE_LABEL05 "Si(331)"
*CORR_POS_NODE_LABEL06 "Si(422)"
*CORR_POS_NODE_LABEL07 "Si(511)"
*CORR_POS_NODE_LABEL08 "Si(440)"
*CORR_POS_NODE_LABEL09 "Si(531)"
*CORR_POS_NODE_LABEL10 "Si(620)"
*CORR_POS_NODE_LABEL11 "Si(533)"
*CORR_POS_NODE_POS_CALC01 "28.377"
*CORR_POS_NODE_POS_CALC02 "47.2506"
*CORR_POS_NODE_POS_CALC03 "56.0725"
*CORR_POS_NODE_POS_CALC04 "69.0822"
*CORR_POS_NODE_POS_CALC05 "76.3294"
*CORR_POS_NODE_POS_CALC06 "87.9853"
*CORR_POS_NODE_POS_CALC07 "94.9091"
*CORR_POS_NODE_POS_CALC08 "106.668"
*CORR_POS_NODE_POS_CALC09 "114.054"
*CORR_POS_NODE_POS_CALC10 "127.511"
*CORR_POS_NODE_POS_CALC11 "136.864"
*CORR_POS_NODE_POS_MEAS01 "28.5058"
*CORR_POS_NODE_POS_MEAS02 "47.345"
*CORR_POS_NODE_POS_MEAS03 "56.1421"
*CORR_POS_NODE_POS_MEAS04 "69.1304"
*CORR_POS_NODE_POS_MEAS05 "76.366"
*CORR_POS_NODE_POS_MEAS06 "88.0213"
*CORR_POS_NODE_POS_MEAS07 "94.9406"
*CORR_POS_NODE_POS_MEAS08 "106.689"
*CORR_POS_NODE_POS_MEAS09 "114.065"
*CORR_POS_NODE_POS_MEAS10 "127.518"
*CORR_POS_NODE_POS_MEAS11 "136.869"
*CORR_POS_OPT_ATTR "集中法"
*CORR_POS_PARAM_MU ""
*CORR_POS_PARAM_PL ""
*CORR_POS_SEMODEL_TYPE "0"
*CORR_POS_STANDARD_TYPE ""
*CORR_POS_VALUE_ANALYZER "None"
*CORR_POS_VALUE_CMONO "None"
*CORR_POS_VALUE_IMONO "None"
*CORR_POS_VALUE_IS "1.250deg"
*CORR_POS_VALUE_ISL "10.0mm"
*CORR_POS_VALUE_ISOLLER "5.0deg"
*CORR_POS_VALUE_RS1 "1.250deg"
*CORR_POS_VALUE_RS2 "0.3mm"
*CORR_POS_VALUE_RSOLLER "5.0deg"
*CORR_POS_XG_FOCUS_L ""
*CORR_POS_XG_WAVE_TYPE ""
*CORR_POS_XG_WAVE_VALUE ""
*DISP_FMT_X "%.2f"
*DISP_FMT_Y "%.0f"
*DISP_FULLSCALE "6198.0000000000"
*DISP_LINE_COLOR "255.0000000000"
*DISP_LINE_STYLE "0.0000000000"
*DISP_LINE_WIDTH "0.2500000000"
*DISP_NOTE "Collected Data-2"
*DISP_OFFSET_Y "0.0000000000"
*DISP_PEAKSEARCH_UNIT_Y "CPS"
*DISP_RANGE_BOTTOM "0.0000000000"
*DISP_RANGE_LEFT "5.0000000000"
*DISP_RANGE_LOGCUTOFF "0.0100000000"
*DISP_RANGE_RIGHT "65.0000000000"
*DISP_RANGE_TOP "6198.0000000000"
*DISP_SCALE_MODE_Y "0.0000000000"
*DISP_TAB_NAME "Theta/2-Theta"
*DISP_TITLE_Y "Intensity"
*DISP_UNIT_Y "CPS"
*DISP_WINDOW_NAME "MSG_MACROENGINE"
*FILE_COMMENT " "
*FILE_MD5 ""
*FILE_MEMO " "
*FILE_OPERATOR "Administrator"
*FILE_PART_ID "MEAS_PBEA_00223"
*FILE_SAMPLE " "
*FILE_TYPE "RAS_RAW"
*FILE_USERGROUP "System Manager"
*FILE_VERSION "1.0000000000"
*HW_ATTACHMENT_ID "ATT1031"
*HW_ATTACHMENT_NAME "6サンプルチェンジャ|ASC-6"
*HW_COUNTER_ID-0 "CUT0021"
*HW_COUNTER_ID-1 "CUT0020"
*HW_COUNTER_ID-2 "CUT0020"
*HW_COUNTER_ID-3 "CMC0021"
*HW_COUNTER_NAME-0 "SC-70|SC-70"
*HW_COUNTER_NAME-1 "None|None"
*HW_COUNTER_NAME-2 "None|None"
*HW_COUNTER_NAME-3 "検出器モノクロメータ|Detector monochromator"
*HW_COUNTER_SELECT_NAME "SC-70|SC-70"
*HW_ECP_HV "671.5000000000"
*HW_ECP_HV_UNIT "V"
*HW_GONIOMETER_ID "GON0070"
*HW_GONIOMETER_NAME "MiniFlex 300/600|MiniFlex 300/600"
*HW_GONIOMETER_RADIUS-0 "79.0"
*HW_GONIOMETER_RADIUS-1 "91.5"
*HW_GONIOMETER_RADIUS-2 "150.0"
*HW_GONIOMETER_RADIUS-3 "0"
*HW_GONIOMETER_RADIUS-4 "103.4"
*HW_GONIOMETER_RADIUS-5 "150.0"
*HW_GONIOMETER_RADIUS-6 "46.6"
*HW_GONIOMETER_RADIUS-7 "160.0"
*HW_I_OPT_ID-0 "ISL0021"
*HW_I_OPT_ID-1 "ISO0021"
*HW_I_OPT_NAME-0 "発散スリット|Divergence slit"
*HW_I_OPT_NAME-1 "入射平行スリット|Incident parallel slit"
*HW_R_ATTENUATER_AUTOMODE "0"
*HW_R_OPT_ID-0 "RSS0021"
*HW_R_OPT_ID-1 "RSO0021"
*HW_R_OPT_ID-2 "RRS0021"
*HW_R_OPT_NAME-0 "散乱スリット|Scattering slit"
*HW_R_OPT_NAME-1 "受光平行スリット|Receiving soller slit"
*HW_R_OPT_NAME-2 "受光スリット|Receiving slit"
*HW_SAMPLE_HOLDER_ID "SMP0000"
*HW_SAMPLE_HOLDER_NAME "無し|None"
*HW_XG_CURRENT_MAX "15"
*HW_XG_CURRENT_MIN "2"
*HW_XG_CURRENT_RESOLUTION "1"
*HW_XG_CURRENT_UNIT "mA"
*HW_XG_FOCUS "1mm x 10mm"
*HW_XG_FOCUS_TYPE "Normal"
*HW_XG_ID "1060"
*HW_XG_NAME "300W/600W 封入管-B|300W/600W Sealed tube-B"
*HW_XG_TARGET_ATOMIC_NUMBER "29.0000000000"
*HW_XG_TARGET_NAME "Cu"
*HW_XG_TYPE "Hermetic"
*HW_XG_VOLTAGE_MAX "40"
*HW_XG_VOLTAGE_MIN "20"
*HW_XG_VOLTAGE_RESOLUTION "1"
*HW_XG_VOLTAGE_UNIT "kV"
*HW_XG_WATT_MAX "0.600"
*HW_XG_WATT_UNIT "kW"
*HW_XG_WAVE_LENGTH_ALPHA1 "1.540593"
*HW_XG_WAVE_LENGTH_ALPHA2 "1.544414"
*HW_XG_WAVE_LENGTH_BETA "1.392250"
*MEAS_COND_AXIS_NAME-0 "Theta/2-Theta"
*MEAS_COND_AXIS_NAME-1 "Spin"
*MEAS_COND_AXIS_NAME-2 "Change"
*MEAS_COND_AXIS_NAME-3 "Soller(inc.)"
*MEAS_COND_AXIS_NAME-4 "IHS"
*MEAS_COND_AXIS_NAME-5 "DS"
*MEAS_COND_AXIS_NAME-6 "SS"
*MEAS_COND_AXIS_NAME-7 "Soller(rec.)"
*MEAS_COND_AXIS_NAME-8 "RS"
*MEAS_COND_AXIS_NAME-9 "Filter"
*MEAS_COND_AXIS_NAME-10 "Monochromator"
*MEAS_COND_AXIS_NAME-11 "HV"
*MEAS_COND_AXIS_NAME-12 "PHA"
*MEAS_COND_AXIS_NAME_INTERNAL-0 "TwoThetaTheta"
*MEAS_COND_AXIS_NAME_INTERNAL-1 "Spin"
*MEAS_COND_AXIS_NAME_INTERNAL-2 "Change"
*MEAS_COND_AXIS_NAME_INTERNAL-3 "IncidentSollerSlit"
*MEAS_COND_AXIS_NAME_INTERNAL-4 "IncidentAxdSlit"
*MEAS_COND_AXIS_NAME_INTERNAL-5 "IncidentSlitBox"
*MEAS_COND_AXIS_NAME_INTERNAL-6 "ReceivingSlitBox1"
*MEAS_COND_AXIS_NAME_INTERNAL-7 "ReceivingSollerSlit"
*MEAS_COND_AXIS_NAME_INTERNAL-8 "ReceivingSlitBox2"
*MEAS_COND_AXIS_NAME_INTERNAL-9 "Filter"
*MEAS_COND_AXIS_NAME_INTERNAL-10 "CounterMonochromator"
*MEAS_COND_AXIS_NAME_INTERNAL-11 "HV"
*MEAS_COND_AXIS_NAME_INTERNAL-12 "PHA"
*MEAS_COND_AXIS_NAME_MAGICNO-0 "268632064.0000000000"
*MEAS_COND_AXIS_NAME_MAGICNO-1 "16842752.0000000000"
*MEAS_COND_AXIS_NAME_MAGICNO-2 "16842752.0000000000"
*MEAS_COND_AXIS_NAME_MAGICNO-3 "20971521.0000000000"
*MEAS_COND_AXIS_NAME_MAGICNO-4 "22020097.0000000000"
*MEAS_COND_AXIS_NAME_MAGICNO-5 "22020097.0000000000"
*MEAS_COND_AXIS_NAME_MAGICNO-6 "23068673.0000000000"
*MEAS_COND_AXIS_NAME_MAGICNO-7 "20971521.0000000000"
*MEAS_COND_AXIS_NAME_MAGICNO-8 "23068673.0000000000"
*MEAS_COND_AXIS_NAME_MAGICNO-9 "20971521.0000000000"
*MEAS_COND_AXIS_NAME_MAGICNO-10 "20971521.0000000000"
*MEAS_COND_AXIS_NAME_MAGICNO-11 "0.0000000000"
*MEAS_COND_AXIS_NAME_MAGICNO-12 "0.0000000000"
*MEAS_COND_AXIS_OFFSET-0 "0.0000000000"
*MEAS_COND_AXIS_OFFSET-1 "-"
*MEAS_COND_AXIS_OFFSET-2 "-"
*MEAS_COND_AXIS_OFFSET-3 "-"
*MEAS_COND_AXIS_OFFSET-4 "-"
*MEAS_COND_AXIS_OFFSET-5 "-"
*MEAS_COND_AXIS_OFFSET-6 "-"
*MEAS_COND_AXIS_OFFSET-7 "-"
*MEAS_COND_AXIS_OFFSET-8 "-"
*MEAS_COND_AXIS_OFFSET-9 "-"
*MEAS_COND_AXIS_OFFSET-10 "-"
*MEAS_COND_AXIS_OFFSET-11 "-"
*MEAS_COND_AXIS_OFFSET-12 "-"
*MEAS_COND_AXIS_POSITION-0 "65.0000000000"
*MEAS_COND_AXIS_POSITION-1 "0.0000000000"
*MEAS_COND_AXIS_POSITION-2 "1.0000000000"
*MEAS_COND_AXIS_POSITION-3 "5.0deg"
*MEAS_COND_AXIS_POSITION-4 "10.0mm"
*MEAS_COND_AXIS_POSITION-5 "1.250deg"
*MEAS_COND_AXIS_POSITION-6 "1.250deg"
*MEAS_COND_AXIS_POSITION-7 "5.0deg"
*MEAS_COND_AXIS_POSITION-8 "0.3mm"
*MEAS_COND_AXIS_POSITION-9 "None"
*MEAS_COND_AXIS_POSITION-10 "Bent"
*MEAS_COND_AXIS_POSITION-11 "671.5000000000"
*MEAS_COND_AXIS_POSITION-12 "551.2500000000"
*MEAS_COND_AXIS_UNIT-0 "deg"
*MEAS_COND_AXIS_UNIT-1 ""
*MEAS_COND_AXIS_UNIT-2 ""
*MEAS_COND_AXIS_UNIT-3 ""
*MEAS_COND_AXIS_UNIT-4 ""
*MEAS_COND_AXIS_UNIT-5 ""
*MEAS_COND_AXIS_UNIT-6 ""
*MEAS_COND_AXIS_UNIT-7 ""
*MEAS_COND_AXIS_UNIT-8 ""
*MEAS_COND_AXIS_UNIT-9 ""
*MEAS_COND_AXIS_UNIT-10 ""
*MEAS_COND_AXIS_UNIT-11 "V"
*MEAS_COND_AXIS_UNIT-12 "mV"
*MEAS_COND_CORRECTION_SLIT_COUNTERMONO "None"
*MEAS_COND_CORRECTION_SLIT_DS "1.250deg"
*MEAS_COND_CORRECTION_SLIT_FILTER "None"
*MEAS_COND_CORRECTION_SLIT_IHS "10.0mm"
*MEAS_COND_CORRECTION_SLIT_RS "0.3mm"
*MEAS_COND_CORRECTION_SLIT_SOLLER_INC "5.0deg"
*MEAS_COND_CORRECTION_SLIT_SOLLER_REC "5.0deg"
*MEAS_COND_CORRECTION_SLIT_SS "1.250deg"
*MEAS_COND_COUNTER_CNTLOSS_CORR "0.0000000000"
*MEAS_COND_COUNTER_PHABASE "551.2500000000"
*MEAS_COND_COUNTER_PHAWINDOW "926.2500000000"
*MEAS_COND_COUNTER_PHA_UNIT "mV"
*MEAS_COND_COUNTER_TAUDIFF "0.2500000000"
*MEAS_COND_COUNTER_TAUINT "0.7500000000"
*MEAS_COND_IRRADIATION_MODE "OFF"
*MEAS_COND_IRRADIATION_WIDTH ""
*MEAS_COND_OPT_ATTR " "
*MEAS_COND_OPT_NAME ""
*MEAS_COND_UNSYMMETRIC_MODE "OFF"
*MEAS_COND_XG_CURRENT "15.0000000000"
*MEAS_COND_XG_VOLTAGE "40.0000000000"
*MEAS_COND_XG_WAVE_TYPE "Ka"
*MEAS_DATA_COUNT "3001.0000000000"
*MEAS_SCAN_AXIS_X "Theta/2-Theta"
*MEAS_SCAN_AXIS_X_INTERNAL "TwoThetaTheta"
*MEAS_SCAN_END_TIME "07/10/25 20:52:16"
*MEAS_SCAN_MODE "STEP"
*MEAS_SCAN_MONITOR "0"
*MEAS_SCAN_RESOLUTION_X "0.0025"
*MEAS_SCAN_SPEED "2.00"
*MEAS_SCAN_SPEED_UNIT "sec."
*MEAS_SCAN_SPEED_USER "2.00"
*MEAS_SCAN_START "5.0000000000"
*MEAS_SCAN_START_TIME "07/10/25 19:07:00"
*MEAS_SCAN_STEP "0.0200000000"
*MEAS_SCAN_STOP "65.0000000000"
*MEAS_SCAN_UNIT_X "deg"
*MEAS_SCAN_UNIT_Y "counts"
*SLIT_SYSTEM "0"
*RAS_HEADER_END
*RAS_INT_START
5.0000 1180.0000 1.0000
5.0200 1164.0000 1.0000
5.0400 1086.0000 1.0000
5.0600 1096.0000 1.0000
5.0800 1095.0000 1.0000
5.1000 1058.0000 1.0000
5.1200 1160.0000 1.0000
5.1400 1068.0000 1.0000
5.1600 1064.0000 1.0000
5.1800 1107.0000 1.0000
5.2000 1106.0000 1.0000
5.2200 1130.0000 1.0000
5.2400 1026.0000 1.0000
5.2600 1047.0000 1.0000
5.2800 1075.0000 1.0000
5.3000 1032.0000 1.0000
5.3200 1046.0000 1.0000
5.3400 916.0000 1.0000
5.3600 927.0000 1.0000
5.3800 951.0000 1.0000
5.4000 1089.0000 1.0000
5.4200 1044.0000 1.0000
5.4400 882.0000 1.0000
5.4600 964.0000 1.0000
5.4800 1015.0000 1.0000
5.5000 940.0000 1.0000
5.5200 896.0000 1.0000
5.5400 860.0000 1.0000
5.5600 937.0000 1.0000
5.5800 971.0000 1.0000
5.6000 964.0000 1.0000
5.6200 970.0000 1.0000
5.6400 954.0000 1.0000
5.6600 855.0000 1.0000
5.6800 914.0000 1.0000
5.7000 937.0000 1.0000
5.7200 917.0000 1.0000
5.7400 898.0000 1.0000
5.7600 937.0000 1.0000
5.7800 850.0000 1.0000
5.8000 866.0000 1.0000
5.8200 963.0000 1.0000
5.8400 988.0000 1.0000
5.8600 931.0000 1.0000
5.8800 902.0000 1.0000
5.9000 883.0000 1.0000
5.9200 937.0000 1.0000
5.9400 905.0000 1.0000
5.9600 893.0000 1.0000
5.9800 956.0000 1.0000
6.0000 937.0000 1.0000
6.0200 875.0000 1.0000
6.0400 955.0000 1.0000
6.0600 974.0000 1.0000
6.0800 998.0000 1.0000
6.1000 879.0000 1.0000
6.1200 864.0000 1.0000
6.1400 928.0000 1.0000
6.1600 858.0000 1.0000
6.1800 840.0000 1.0000
6.2000 843.0000 1.0000
6.2200 880.0000 1.0000
6.2400 826.0000 1.0000
6.2600 785.0000 1.0000
6.2800 788.0000 1.0000
6.3000 809.0000 1.0000
6.3200 757.0000 1.0000
6.3400 784.0000 1.0000
6.3600 766.0000 1.0000
6.3800 758.0000 1.0000
6.4000 785.0000 1.0000
6.4200 771.0000 1.0000
6.4400 769.0000 1.0000
6.4600 740.0000 1.0000
6.4800 801.0000 1.0000
6.5000 779.0000 1.0000
6.5200 725.0000 1.0000
6.5400 754.0000 1.0000
6.5600 757.0000 1.0000
6.5800 775.0000 1.0000
6.6000 758.0000 1.0000
6.6200 708.0000 1.0000
6.6400 695.0000 1.0000
6.6600 726.0000 1.0000
6.6800 766.0000 1.0000
6.7000 742.0000 1.0000
6.7200 698.0000 1.0000
6.7400 712.0000 1.0000
6.7600 743.0000 1.0000
6.7800 716.0000 1.0000
6.8000 684.0000 1.0000
6.8200 690.0000 1.0000
6.8400 694.0000 1.0000
6.8600 686.0000 1.0000
6.8800 671.0000 1.0000
6.9000 661.0000 1.0000
6.9200 656.0000 1.0000
6.9400 686.0000 1.0000
6.9600 743.0000 1.0000
6.9800 731.0000 1.0000
7.0000 678.0000 1.0000
7.0200 676.0000 1.0000
7.0400 682.0000 1.0000
7.0600 685.0000 1.0000
7.0800 697.0000 1.0000
7.1000 671.0000 1.0000
7.1200 622.0000 1.0000
7.1400 651.0000 1.0000
7.1600 670.0000 1.0000
7.1800 650.0000 1.0000
7.2000 675.0000 1.0000
7.2200 686.0000 1.0000
7.2400 663.0000 1.0000
7.2600 636.0000 1.0000
7.2800 641.0000 1.0000
7.3000 670.0000 1.0000
7.3200 686.0000 1.0000
7.3400 652.0000 1.0000
7.3600 657.0000 1.0000
7.3800 704.0000 1.0000
7.4000 742.0000 1.0000
7.4200 743.0000 1.0000
7.4400 698.0000 1.0000
7.4600 701.0000 1.0000
7.4800 657.0000 1.0000
7.5000 635.0000 1.0000
7.5200 676.0000 1.0000
7.5400 694.0000 1.0000
7.5600 652.0000 1.0000
7.5800 648.0000 1.0000
7.6000 656.0000 1.0000
7.6200 672.0000 1.0000
7.6400 660.0000 1.0000
7.6600 719.0000 1.0000
7.6800 727.0000 1.0000
7.7000 687.0000 1.0000
7.7200 682.0000 1.0000
7.7400 693.0000 1.0000
7.7600 650.0000 1.0000
7.7800 687.0000 1.0000
7.8000 733.0000 1.0000
7.8200 714.0000 1.0000
7.8400 724.0000 1.0000
7.8600 761.0000 1.0000
7.8800 801.0000 1.0000
7.9000 761.0000 1.0000
7.9200 727.0000 1.0000
7.9400 704.0000 1.0000
7.9600 706.0000 1.0000
7.9800 759.0000 1.0000
8.0000 731.0000 1.0000
8.0200 701.0000 1.0000
8.0400 674.0000 1.0000
8.0600 684.0000 1.0000
8.0800 747.0000 1.0000
8.1000 768.0000 1.0000
8.1200 716.0000 1.0000
8.1400 707.0000 1.0000
8.1600 696.0000 1.0000
8.1800 724.0000 1.0000
8.2000 720.0000 1.0000
8.2200 714.0000 1.0000
8.2400 755.0000 1.0000
8.2600 794.0000 1.0000
8.2800 774.0000 1.0000
8.3000 779.0000 1.0000
8.3200 757.0000 1.0000
8.3400 764.0000 1.0000
8.3600 753.0000 1.0000
8.3800 696.0000 1.0000
8.4000 790.0000 1.0000
8.4200 843.0000 1.0000
8.4400 861.0000 1.0000
8.4600 802.0000 1.0000
8.4800 782.0000 1.0000
8.5000 789.0000 1.0000
8.5200 847.0000 1.0000
8.5400 847.0000 1.0000
8.5600 923.0000 1.0000
8.5800 926.0000 1.0000
8.6000 884.0000 1.0000
8.6200 871.0000 1.0000
8.6400 889.0000 1.0000
8.6600 900.0000 1.0000
8.6800 850.0000 1.0000
8.7000 831.0000 1.0000
8.7200 842.0000 1.0000
8.7400 774.0000 1.0000
8.7600 744.0000 1.0000
8.7800 651.0000 1.0000
8.8000 573.0000 1.0000
8.8200 523.0000 1.0000
8.8400 497.0000 1.0000
8.8600 464.0000 1.0000
8.8800 450.0000 1.0000
8.9000 439.0000 1.0000
8.9200 398.0000 1.0000
8.9400 416.0000 1.0000
8.9600 400.0000 1.0000
8.9800 385.0000 1.0000
9.0000 378.0000 1.0000
9.0200 360.0000 1.0000
9.0400 420.0000 1.0000
9.0600 369.0000 1.0000
9.0800 375.0000 1.0000
9.1000 390.0000 1.0000
9.1200 412.0000 1.0000
9.1400 391.0000 1.0000
9.1600 386.0000 1.0000
9.1800 389.0000 1.0000
9.2000 380.0000 1.0000
9.2200 326.0000 1.0000
9.2400 318.0000 1.0000
9.2600 303.0000 1.0000
9.2800 310.0000 1.0000
9.3000 301.0000 1.0000
9.3200 291.0000 1.0000
9.3400 254.0000 1.0000
9.3600 274.0000 1.0000
9.3800 265.0000 1.0000
9.4000 258.0000 1.0000
9.4200 272.0000 1.0000
9.4400 291.0000 1.0000
9.4600 290.0000 1.0000
9.4800 329.0000 1.0000
9.5000 287.0000 1.0000
9.5200 306.0000 1.0000
9.5400 317.0000 1.0000
9.5600 289.0000 1.0000
9.5800 297.0000 1.0000
9.6000 298.0000 1.0000
9.6200 274.0000 1.0000
9.6400 277.0000 1.0000
9.6600 288.0000 1.0000
9.6800 322.0000 1.0000
9.7000 276.0000 1.0000
9.7200 298.0000 1.0000
9.7400 340.0000 1.0000
9.7600 293.0000 1.0000
9.7800 292.0000 1.0000
9.8000 282.0000 1.0000
9.8200 255.0000 1.0000
9.8400 268.0000 1.0000
9.8600 250.0000 1.0000
9.8800 291.0000 1.0000
9.9000 261.0000 1.0000
9.9200 266.0000 1.0000
9.9400 252.0000 1.0000
9.9600 236.0000 1.0000
9.9800 264.0000 1.0000
10.0000 260.0000 1.0000
10.0200 246.0000 1.0000
10.0400 238.0000 1.0000
10.0600 262.0000 1.0000
10.0800 228.0000 1.0000
10.1000 283.0000 1.0000
10.1200 249.0000 1.0000
10.1400 243.0000 1.0000
10.1600 265.0000 1.0000
10.1800 230.0000 1.0000
10.2000 247.0000 1.0000
10.2200 278.0000 1.0000
10.2400 239.0000 1.0000
10.2600 281.0000 1.0000
10.2800 256.0000 1.0000
10.3000 267.0000 1.0000
10.3200 221.0000 1.0000
10.3400 248.0000 1.0000
10.3600 235.0000 1.0000
10.3800 227.0000 1.0000
10.4000 230.0000 1.0000
10.4200 208.0000 1.0000
10.4400 193.0000 1.0000
10.4600 206.0000 1.0000
10.4800 212.0000 1.0000
10.5000 258.0000 1.0000
10.5200 208.0000 1.0000
10.5400 218.0000 1.0000
10.5600 207.0000 1.0000
10.5800 267.0000 1.0000
10.6000 222.0000 1.0000
10.6200 238.0000 1.0000
10.6400 230.0000 1.0000
10.6600 251.0000 1.0000
10.6800 242.0000 1.0000
10.7000 243.0000 1.0000
10.7200 239.0000 1.0000
10.7400 240.0000 1.0000
10.7600 198.0000 1.0000
10.7800 213.0000 1.0000
10.8000 246.0000 1.0000
10.8200 226.0000 1.0000
10.8400 226.0000 1.0000
10.8600 224.0000 1.0000
10.8800 211.0000 1.0000
10.9000 247.0000 1.0000
10.9200 221.0000 1.0000
10.9400 215.0000 1.0000
10.9600 208.0000 1.0000
10.9800 228.0000 1.0000
11.0000 207.0000 1.0000
11.0200 202.0000 1.0000
11.0400 191.0000 1.0000
11.0600 243.0000 1.0000
11.0800 223.0000 1.0000
11.1000 251.0000 1.0000
11.1200 175.0000 1.0000
11.1400 203.0000 1.0000
11.1600 193.0000 1.0000
11.1800 207.0000 1.0000
11.2000 202.0000 1.0000
11.2200 222.0000 1.0000
11.2400 266.0000 1.0000
11.2600 199.0000 1.0000
11.2800 220.0000 1.0000
11.3000 232.0000 1.0000
11.3200 188.0000 1.0000
11.3400 203.0000 1.0000
11.3600 193.0000 1.0000
11.3800 166.0000 1.0000
11.4000 215.0000 1.0000
11.4200 246.0000 1.0000
11.4400 212.0000 1.0000
11.4600 193.0000 1.0000
11.4800 218.0000 1.0000
11.5000 205.0000 1.0000
11.5200 221.0000 1.0000
11.5400 209.0000 1.0000
11.5600 204.0000 1.0000
11.5800 194.0000 1.0000
11.6000 208.0000 1.0000
11.6200 201.0000 1.0000
11.6400 214.0000 1.0000
11.6600 215.0000 1.0000
11.6800 221.0000 1.0000
11.7000 216.0000 1.0000
11.7200 209.0000 1.0000
11.7400 172.0000 1.0000
11.7600 232.0000 1.0000
11.7800 213.0000 1.0000
11.8000 214.0000 1.0000
11.8200 239.0000 1.0000
11.8400 239.0000 1.0000
11.8600 241.0000 1.0000
11.8800 227.0000 1.0000
11.9000 231.0000 1.0000
11.9200 231.0000 1.0000
11.9400 252.0000 1.0000
11.9600 242.0000 1.0000
11.9800 258.0000 1.0000
12.0000 256.0000 1.0000
12.0200 299.0000 1.0000
12.0400 281.0000 1.0000
12.0600 281.0000 1.0000
12.0800 280.0000 1.0000
12.1000 287.0000 1.0000
12.1200 319.0000 1.0000
12.1400 308.0000 1.0000
12.1600 349.0000 1.0000
12.1800 359.0000 1.0000
12.2000 333.0000 1.0000
12.2200 355.0000 1.0000
12.2400 371.0000 1.0000
12.2600 366.0000 1.0000
12.2800 396.0000 1.0000
12.3000 397.0000 1.0000
12.3200 404.0000 1.0000
12.3400 408.0000 1.0000
12.3600 393.0000 1.0000
12.3800 363.0000 1.0000
12.4000 379.0000 1.0000
12.4200 336.0000 1.0000
12.4400 304.0000 1.0000
12.4600 327.0000 1.0000
12.4800 288.0000 1.0000
12.5000 259.0000 1.0000
12.5200 247.0000 1.0000
12.5400 263.0000 1.0000
12.5600 237.0000 1.0000
12.5800 233.0000 1.0000
12.6000 238.0000 1.0000
12.6200 248.0000 1.0000
12.6400 207.0000 1.0000
12.6600 198.0000 1.0000
12.6800 208.0000 1.0000
12.7000 205.0000 1.0000
12.7200 194.0000 1.0000
12.7400 200.0000 1.0000
12.7600 182.0000 1.0000
12.7800 196.0000 1.0000
12.8000 178.0000 1.0000
12.8200 178.0000 1.0000
12.8400 176.0000 1.0000
12.8600 175.0000 1.0000
12.8800 173.0000 1.0000
12.9000 152.0000 1.0000
12.9200 168.0000 1.0000
12.9400 159.0000 1.0000
12.9600 175.0000 1.0000
12.9800 176.0000 1.0000
13.0000 174.0000 1.0000
13.0200 190.0000 1.0000
13.0400 187.0000 1.0000
13.0600 180.0000 1.0000
13.0800 175.0000 1.0000
13.1000 189.0000 1.0000
13.1200 181.0000 1.0000
13.1400 189.0000 1.0000
13.1600 176.0000 1.0000
13.1800 183.0000 1.0000
13.2000 187.0000 1.0000
13.2200 185.0000 1.0000
13.2400 203.0000 1.0000
13.2600 212.0000 1.0000
13.2800 186.0000 1.0000
13.3000 180.0000 1.0000
13.3200 178.0000 1.0000
13.3400 174.0000 1.0000
13.3600 171.0000 1.0000
13.3800 199.0000 1.0000
13.4000 211.0000 1.0000
13.4200 230.0000 1.0000
13.4400 238.0000 1.0000
13.4600 249.0000 1.0000
13.4800 242.0000 1.0000
13.5000 244.0000 1.0000
13.5200 249.0000 1.0000
13.5400 257.0000 1.0000
13.5600 226.0000 1.0000
13.5800 236.0000 1.0000
13.6000 224.0000 1.0000
13.6200 228.0000 1.0000
13.6400 244.0000 1.0000
13.6600 244.0000 1.0000
13.6800 239.0000 1.0000
13.7000 244.0000 1.0000
13.7200 254.0000 1.0000
13.7400 237.0000 1.0000
13.7600 204.0000 1.0000
13.7800 181.0000 1.0000
13.8000 172.0000 1.0000
13.8200 165.0000 1.0000
13.8400 185.0000 1.0000
13.8600 189.0000 1.0000
13.8800 170.0000 1.0000
13.9000 163.0000 1.0000
13.9200 161.0000 1.0000
13.9400 158.0000 1.0000
13.9600 141.0000 1.0000
13.9800 124.0000 1.0000
14.0000 136.0000 1.0000
14.0200 140.0000 1.0000
14.0400 141.0000 1.0000
14.0600 157.0000 1.0000
14.0800 146.0000 1.0000
14.1000 142.0000 1.0000
14.1200 152.0000 1.0000
14.1400 140.0000 1.0000
14.1600 145.0000 1.0000
14.1800 148.0000 1.0000
14.2000 149.0000 1.0000
14.2200 140.0000 1.0000
14.2400 141.0000 1.0000
14.2600 140.0000 1.0000
14.2800 144.0000 1.0000
14.3000 143.0000 1.0000
14.3200 153.0000 1.0000
14.3400 136.0000 1.0000
14.3600 125.0000 1.0000
14.3800 131.0000 1.0000
14.4000 129.0000 1.0000
14.4200 127.0000 1.0000
14.4400 124.0000 1.0000
14.4600 123.0000 1.0000
14.4800 132.0000 1.0000
14.5000 141.0000 1.0000
14.5200 152.0000 1.0000
14.5400 161.0000 1.0000
14.5600 161.0000 1.0000
14.5800 162.0000 1.0000
14.6000 160.0000 1.0000
14.6200 133.0000 1.0000
14.6400 118.0000 1.0000
14.6600 129.0000 1.0000
14.6800 147.0000 1.0000
14.7000 145.0000 1.0000
14.7200 150.0000 1.0000
14.7400 155.0000 1.0000
14.7600 156.0000 1.0000
14.7800 153.0000 1.0000
14.8000 151.0000 1.0000
14.8200 163.0000 1.0000
14.8400 159.0000 1.0000
14.8600 161.0000 1.0000
14.8800 181.0000 1.0000
14.9000 187.0000 1.0000
14.9200 167.0000 1.0000
14.9400 160.0000 1.0000
14.9600 158.0000 1.0000
14.9800 149.0000 1.0000
15.0000 152.0000 1.0000
15.0200 155.0000 1.0000
15.0400 148.0000 1.0000
15.0600 143.0000 1.0000
15.0800 138.0000 1.0000
15.1000 149.0000 1.0000
15.1200 147.0000 1.0000
15.1400 145.0000 1.0000
15.1600 141.0000 1.0000
15.1800 126.0000 1.0000
15.2000 132.0000 1.0000
15.2200 139.0000 1.0000
15.2400 134.0000 1.0000
15.2600 129.0000 1.0000
15.2800 126.0000 1.0000
15.3000 126.0000 1.0000
15.3200 133.0000 1.0000
15.3400 128.0000 1.0000
15.3600 134.0000 1.0000
15.3800 138.0000 1.0000
15.4000 134.0000 1.0000
15.4200 148.0000 1.0000
15.4400 143.0000 1.0000
15.4600 136.0000 1.0000
15.4800 142.0000 1.0000
15.5000 134.0000 1.0000
15.5200 145.0000 1.0000
15.5400 142.0000 1.0000
15.5600 134.0000 1.0000
15.5800 151.0000 1.0000
15.6000 154.0000 1.0000
15.6200 153.0000 1.0000
15.6400 145.0000 1.0000
15.6600 135.0000 1.0000
15.6800 143.0000 1.0000
15.7000 130.0000 1.0000
15.7200 123.0000 1.0000
15.7400 132.0000 1.0000
15.7600 139.0000 1.0000
15.7800 148.0000 1.0000
15.8000 140.0000 1.0000
15.8200 124.0000 1.0000
15.8400 137.0000 1.0000
15.8600 131.0000 1.0000
15.8800 123.0000 1.0000
15.9000 132.0000 1.0000
15.9200 124.0000 1.0000
15.9400 130.0000 1.0000
15.9600 137.0000 1.0000
15.9800 125.0000 1.0000
16.0000 112.0000 1.0000
16.0200 127.0000 1.0000
16.0400 137.0000 1.0000
16.0600 121.0000 1.0000
16.0800 116.0000 1.0000
16.1000 116.0000 1.0000
16.1200 123.0000 1.0000
16.1400 128.0000 1.0000
16.1600 121.0000 1.0000
16.1800 137.0000 1.0000
16.2000 133.0000 1.0000
16.2200 136.0000 1.0000
16.2400 129.0000 1.0000
16.2600 137.0000 1.0000
16.2800 139.0000 1.0000
16.3000 144.0000 1.0000
16.3200 140.0000 1.0000
16.3400 132.0000 1.0000
16.3600 120.0000 1.0000
16.3800 119.0000 1.0000
16.4000 125.0000 1.0000
16.4200 123.0000 1.0000
16.4400 122.0000 1.0000
16.4600 135.0000 1.0000
16.4800 131.0000 1.0000
16.5000 123.0000 1.0000
16.5200 138.0000 1.0000
16.5400 145.0000 1.0000
16.5600 133.0000 1.0000
16.5800 134.0000 1.0000
16.6000 125.0000 1.0000
16.6200 121.0000 1.0000
16.6400 120.0000 1.0000
16.6600 136.0000 1.0000
16.6800 138.0000 1.0000
16.7000 119.0000 1.0000
16.7200 117.0000 1.0000
16.7400 119.0000 1.0000
16.7600 127.0000 1.0000
16.7800 147.0000 1.0000
16.8000 132.0000 1.0000
16.8200 129.0000 1.0000
16.8400 139.0000 1.0000
16.8600 133.0000 1.0000
16.8800 142.0000 1.0000
16.9000 139.0000 1.0000
16.9200 133.0000 1.0000
16.9400 142.0000 1.0000
16.9600 156.0000 1.0000
16.9800 142.0000 1.0000
17.0000 147.0000 1.0000
17.0200 139.0000 1.0000
17.0400 129.0000 1.0000
17.0600 142.0000 1.0000
17.0800 134.0000 1.0000
17.1000 127.0000 1.0000
17.1200 130.0000 1.0000
17.1400 155.0000 1.0000
17.1600 139.0000 1.0000
17.1800 154.0000 1.0000
17.2000 156.0000 1.0000
17.2200 137.0000 1.0000
17.2400 139.0000 1.0000
17.2600 159.0000 1.0000
17.2800 176.0000 1.0000
17.3000 157.0000 1.0000
17.3200 148.0000 1.0000
17.3400 156.0000 1.0000
17.3600 196.0000 1.0000
17.3800 187.0000 1.0000
17.4000 167.0000 1.0000
17.4200 176.0000 1.0000
17.4400 193.0000 1.0000
17.4600 205.0000 1.0000
17.4800 204.0000 1.0000
17.5000 186.0000 1.0000
17.5200 197.0000 1.0000
17.5400 205.0000 1.0000
17.5600 194.0000 1.0000
17.5800 207.0000 1.0000
17.6000 225.0000 1.0000
17.6200 188.0000 1.0000
17.6400 196.0000 1.0000
17.6600 215.0000 1.0000
17.6800 202.0000 1.0000
17.7000 199.0000 1.0000
17.7200 187.0000 1.0000
17.7400 174.0000 1.0000
17.7600 178.0000 1.0000
17.7800 183.0000 1.0000
17.8000 184.0000 1.0000
17.8200 171.0000 1.0000
17.8400 150.0000 1.0000
17.8600 176.0000 1.0000
17.8800 163.0000 1.0000
17.9000 144.0000 1.0000
17.9200 141.0000 1.0000
17.9400 173.0000 1.0000
17.9600 170.0000 1.0000
17.9800 143.0000 1.0000
18.0000 139.0000 1.0000
18.0200 156.0000 1.0000
18.0400 128.0000 1.0000
18.0600 127.0000 1.0000
18.0800 154.0000 1.0000
18.1000 132.0000 1.0000
18.1200 137.0000 1.0000
18.1400 129.0000 1.0000
18.1600 136.0000 1.0000
18.1800 145.0000 1.0000
18.2000 147.0000 1.0000
18.2200 143.0000 1.0000
18.2400 153.0000 1.0000
18.2600 164.0000 1.0000
18.2800 155.0000 1.0000
18.3000 159.0000 1.0000
18.3200 143.0000 1.0000
18.3400 149.0000 1.0000
18.3600 126.0000 1.0000
18.3800 144.0000 1.0000
18.4000 163.0000 1.0000
18.4200 151.0000 1.0000
18.4400 137.0000 1.0000
18.4600 142.0000 1.0000
18.4800 140.0000 1.0000
18.5000 145.0000 1.0000
18.5200 128.0000 1.0000
18.5400 145.0000 1.0000
18.5600 166.0000 1.0000
18.5800 165.0000 1.0000
18.6000 172.0000 1.0000
18.6200 170.0000 1.0000
18.6400 171.0000 1.0000
18.6600 168.0000 1.0000
18.6800 192.0000 1.0000
18.7000 183.0000 1.0000
18.7200 186.0000 1.0000
18.7400 208.0000 1.0000
18.7600 190.0000 1.0000
18.7800 188.0000 1.0000
18.8000 159.0000 1.0000
18.8200 192.0000 1.0000
18.8400 185.0000 1.0000
18.8600 164.0000 1.0000
18.8800 167.0000 1.0000
18.9000 177.0000 1.0000
18.9200 172.0000 1.0000
18.9400 161.0000 1.0000
18.9600 149.0000 1.0000
18.9800 182.0000 1.0000
19.0000 171.0000 1.0000
19.0200 195.0000 1.0000
19.0400 203.0000 1.0000
19.0600 186.0000 1.0000
19.0800 207.0000 1.0000
19.1000 194.0000 1.0000
19.1200 192.0000 1.0000
19.1400 214.0000 1.0000
19.1600 209.0000 1.0000
19.1800 185.0000 1.0000
19.2000 205.0000 1.0000
19.2200 168.0000 1.0000
19.2400 197.0000 1.0000
19.2600 214.0000 1.0000
19.2800 181.0000 1.0000
19.3000 202.0000 1.0000
19.3200 215.0000 1.0000
19.3400 201.0000 1.0000
19.3600 215.0000 1.0000
19.3800 233.0000 1.0000
19.4000 262.0000 1.0000
19.4200 245.0000 1.0000
19.4400 239.0000 1.0000
19.4600 283.0000 1.0000
19.4800 301.0000 1.0000
19.5000 365.0000 1.0000
19.5200 369.0000 1.0000
19.5400 406.0000 1.0000
19.5600 435.0000 1.0000
19.5800 462.0000 1.0000
19.6000 471.0000 1.0000
19.6200 494.0000 1.0000
19.6400 461.0000 1.0000
19.6600 453.0000 1.0000
19.6800 449.0000 1.0000
19.7000 458.0000 1.0000
19.7200 404.0000 1.0000
19.7400 429.0000 1.0000
19.7600 396.0000 1.0000
19.7800 379.0000 1.0000
19.8000 347.0000 1.0000
19.8200 364.0000 1.0000
19.8400 375.0000 1.0000
19.8600 367.0000 1.0000
19.8800 326.0000 1.0000
19.9000 332.0000 1.0000
19.9200 295.0000 1.0000
19.9400 302.0000 1.0000
19.9600 279.0000 1.0000
19.9800 270.0000 1.0000
20.0000 287.0000 1.0000
20.0200 299.0000 1.0000
20.0400 291.0000 1.0000
20.0600 289.0000 1.0000
20.0800 249.0000 1.0000
20.1000 252.0000 1.0000
20.1200 278.0000 1.0000
20.1400 284.0000 1.0000
20.1600 293.0000 1.0000
20.1800 264.0000 1.0000
20.2000 282.0000 1.0000
20.2200 270.0000 1.0000
20.2400 312.0000 1.0000
20.2600 275.0000 1.0000
20.2800 305.0000 1.0000
20.3000 331.0000 1.0000
20.3200 322.0000 1.0000
20.3400 318.0000 1.0000
20.3600 362.0000 1.0000
20.3800 353.0000 1.0000
20.4000 367.0000 1.0000
20.4200 368.0000 1.0000
20.4400 402.0000 1.0000
20.4600 472.0000 1.0000
20.4800 480.0000 1.0000
20.5000 561.0000 1.0000
20.5200 616.0000 1.0000
20.5400 668.0000 1.0000
20.5600 830.0000 1.0000
20.5800 1012.0000 1.0000
20.6000 1231.0000 1.0000
20.6200 1464.0000 1.0000
20.6400 1692.0000 1.0000
20.6600 1889.0000 1.0000
20.6800 1974.0000 1.0000
20.7000 2123.0000 1.0000
20.7200 2017.0000 1.0000
20.7400 1978.0000 1.0000
20.7600 1549.0000 1.0000
20.7800 1298.0000 1.0000
20.8000 940.0000 1.0000
20.8200 713.0000 1.0000
20.8400 555.0000 1.0000
20.8600 474.0000 1.0000
20.8800 400.0000 1.0000
20.9000 381.0000 1.0000
20.9200 361.0000 1.0000
20.9400 334.0000 1.0000
20.9600 316.0000 1.0000
20.9800 333.0000 1.0000
21.0000 316.0000 1.0000
21.0200 243.0000 1.0000
21.0400 289.0000 1.0000
21.0600 265.0000 1.0000
21.0800 270.0000 1.0000
21.1000 251.0000 1.0000
21.1200 246.0000 1.0000
21.1400 267.0000 1.0000
21.1600 259.0000 1.0000
21.1800 242.0000 1.0000
21.2000 238.0000 1.0000
21.2200 232.0000 1.0000
21.2400 238.0000 1.0000
21.2600 235.0000 1.0000
21.2800 222.0000 1.0000
21.3000 195.0000 1.0000
21.3200 211.0000 1.0000
21.3400 218.0000 1.0000
21.3600 209.0000 1.0000
21.3800 215.0000 1.0000
21.4000 192.0000 1.0000
21.4200 196.0000 1.0000
21.4400 205.0000 1.0000
21.4600 217.0000 1.0000
21.4800 231.0000 1.0000
21.5000 201.0000 1.0000
21.5200 202.0000 1.0000
21.5400 209.0000 1.0000
21.5600 221.0000 1.0000
21.5800 249.0000 1.0000
21.6000 218.0000 1.0000
21.6200 223.0000 1.0000
21.6400 248.0000 1.0000
21.6600 273.0000 1.0000
21.6800 274.0000 1.0000
21.7000 318.0000 1.0000
21.7200 371.0000 1.0000
21.7400 407.0000 1.0000
21.7600 415.0000 1.0000
21.7800 461.0000 1.0000
21.8000 491.0000 1.0000
21.8200 537.0000 1.0000
21.8400 550.0000 1.0000
21.8600 581.0000 1.0000
21.8800 499.0000 1.0000
21.9000 476.0000 1.0000
21.9200 424.0000 1.0000
21.9400 396.0000 1.0000
21.9600 305.0000 1.0000
21.9800 290.0000 1.0000
22.0000 257.0000 1.0000
22.0200 259.0000 1.0000
22.0400 211.0000 1.0000
22.0600 218.0000 1.0000
22.0800 212.0000 1.0000
22.1000 212.0000 1.0000
22.1200 181.0000 1.0000
22.1400 177.0000 1.0000
22.1600 184.0000 1.0000
22.1800 175.0000 1.0000
22.2000 172.0000 1.0000
22.2200 198.0000 1.0000
22.2400 190.0000 1.0000
22.2600 172.0000 1.0000
22.2800 191.0000 1.0000
22.3000 198.0000 1.0000
22.3200 194.0000 1.0000
22.3400 214.0000 1.0000
22.3600 200.0000 1.0000
22.3800 201.0000 1.0000
22.4000 218.0000 1.0000
22.4200 228.0000 1.0000
22.4400 217.0000 1.0000
22.4600 225.0000 1.0000
22.4800 218.0000 1.0000
22.5000 201.0000 1.0000
22.5200 204.0000 1.0000
22.5400 196.0000 1.0000
22.5600 203.0000 1.0000
22.5800 209.0000 1.0000
22.6000 228.0000 1.0000
22.6200 225.0000 1.0000
22.6400 244.0000 1.0000
22.6600 250.0000 1.0000
22.6800 214.0000 1.0000
22.7000 221.0000 1.0000
22.7200 224.0000 1.0000
22.7400 214.0000 1.0000
22.7600 253.0000 1.0000
22.7800 268.0000 1.0000
22.8000 229.0000 1.0000
22.8200 261.0000 1.0000
22.8400 259.0000 1.0000
22.8600 251.0000 1.0000
22.8800 229.0000 1.0000
22.9000 242.0000 1.0000
22.9200 217.0000 1.0000
22.9400 246.0000 1.0000
22.9600 244.0000 1.0000
22.9800 233.0000 1.0000
23.0000 217.0000 1.0000
23.0200 234.0000 1.0000
23.0400 204.0000 1.0000
23.0600 203.0000 1.0000
23.0800 218.0000 1.0000
23.1000 202.0000 1.0000
23.1200 204.0000 1.0000
23.1400 189.0000 1.0000
23.1600 223.0000 1.0000
23.1800 234.0000 1.0000
23.2000 248.0000 1.0000
23.2200 260.0000 1.0000
23.2400 259.0000 1.0000
23.2600 260.0000 1.0000
23.2800 294.0000 1.0000
23.3000 348.0000 1.0000
23.3200 386.0000 1.0000
23.3400 410.0000 1.0000
23.3600 419.0000 1.0000
23.3800 475.0000 1.0000
23.4000 480.0000 1.0000
23.4200 506.0000 1.0000
23.4400 510.0000 1.0000
23.4600 497.0000 1.0000
23.4800 491.0000 1.0000
23.5000 474.0000 1.0000
23.5200 453.0000 1.0000
23.5400 393.0000 1.0000
23.5600 340.0000 1.0000
23.5800 324.0000 1.0000
23.6000 311.0000 1.0000
23.6200 297.0000 1.0000
23.6400 326.0000 1.0000
23.6600 309.0000 1.0000
23.6800 284.0000 1.0000
23.7000 274.0000 1.0000
23.7200 283.0000 1.0000
23.7400 266.0000 1.0000
23.7600 270.0000 1.0000
23.7800 282.0000 1.0000
23.8000 274.0000 1.0000
23.8200 259.0000 1.0000
23.8400 289.0000 1.0000
23.8600 287.0000 1.0000
23.8800 269.0000 1.0000
23.9000 300.0000 1.0000
23.9200 302.0000 1.0000
23.9400 321.0000 1.0000
23.9600 372.0000 1.0000
23.9800 379.0000 1.0000
24.0000 378.0000 1.0000
24.0200 392.0000 1.0000
24.0400 406.0000 1.0000
24.0600 406.0000 1.0000
24.0800 408.0000 1.0000
24.1000 416.0000 1.0000
24.1200 461.0000 1.0000
24.1400 423.0000 1.0000
24.1600 393.0000 1.0000
24.1800 392.0000 1.0000
24.2000 375.0000 1.0000
24.2200 374.0000 1.0000
24.2400 382.0000 1.0000
24.2600 349.0000 1.0000
24.2800 338.0000 1.0000
24.3000 335.0000 1.0000
24.3200 323.0000 1.0000
24.3400 299.0000 1.0000
24.3600 305.0000 1.0000
24.3800 326.0000 1.0000
24.4000 281.0000 1.0000
24.4200 260.0000 1.0000
24.4400 240.0000 1.0000
24.4600 260.0000 1.0000
24.4800 243.0000 1.0000
24.5000 252.0000 1.0000
24.5200 242.0000 1.0000
24.5400 224.0000 1.0000
24.5600 225.0000 1.0000
24.5800 232.0000 1.0000
24.6000 223.0000 1.0000
24.6200 199.0000 1.0000
24.6400 207.0000 1.0000
24.6600 230.0000 1.0000
24.6800 224.0000 1.0000
24.7000 216.0000 1.0000
24.7200 221.0000 1.0000
24.7400 234.0000 1.0000
24.7600 243.0000 1.0000
24.7800 227.0000 1.0000
24.8000 224.0000 1.0000
24.8200 237.0000 1.0000
24.8400 247.0000 1.0000
24.8600 251.0000 1.0000
24.8800 255.0000 1.0000
24.9000 281.0000 1.0000
24.9200 276.0000 1.0000
24.9400 275.0000 1.0000
24.9600 322.0000 1.0000
24.9800 323.0000 1.0000
25.0000 320.0000 1.0000
25.0200 361.0000 1.0000
25.0400 384.0000 1.0000
25.0600 363.0000 1.0000
25.0800 374.0000 1.0000
25.1000 405.0000 1.0000
25.1200 396.0000 1.0000
25.1400 378.0000 1.0000
25.1600 398.0000 1.0000
25.1800 419.0000 1.0000
25.2000 453.0000 1.0000
25.2200 486.0000 1.0000
25.2400 550.0000 1.0000
25.2600 567.0000 1.0000
25.2800 651.0000 1.0000
25.3000 790.0000 1.0000
25.3200 870.0000 1.0000
25.3400 1032.0000 1.0000
25.3600 1139.0000 1.0000
25.3800 1188.0000 1.0000
25.4000 1287.0000 1.0000
25.4200 1358.0000 1.0000
25.4400 1246.0000 1.0000
25.4600 1172.0000 1.0000
25.4800 1074.0000 1.0000
25.5000 936.0000 1.0000
25.5200 790.0000 1.0000
25.5400 652.0000 1.0000
25.5600 574.0000 1.0000
25.5800 517.0000 1.0000
25.6000 459.0000 1.0000
25.6200 398.0000 1.0000
25.6400 376.0000 1.0000
25.6600 373.0000 1.0000
25.6800 342.0000 1.0000
25.7000 336.0000 1.0000
25.7200 328.0000 1.0000
25.7400 301.0000 1.0000
25.7600 319.0000 1.0000
25.7800 324.0000 1.0000
25.8000 319.0000 1.0000
25.8200 323.0000 1.0000
25.8400 331.0000 1.0000
25.8600 333.0000 1.0000
25.8800 345.0000 1.0000
25.9000 360.0000 1.0000
25.9200 356.0000 1.0000
25.9400 375.0000 1.0000
25.9600 399.0000 1.0000
25.9800 415.0000 1.0000
26.0000 447.0000 1.0000
26.0200 454.0000 1.0000
26.0400 479.0000 1.0000
26.0600 526.0000 1.0000
26.0800 572.0000 1.0000
26.1000 615.0000 1.0000
26.1200 670.0000 1.0000
26.1400 756.0000 1.0000
26.1600 841.0000 1.0000
26.1800 900.0000 1.0000
26.2000 1026.0000 1.0000
26.2200 1171.0000 1.0000
26.2400 1307.0000 1.0000
26.2600 1571.0000 1.0000
26.2800 1871.0000 1.0000
26.3000 2188.0000 1.0000
26.3200 2652.0000 1.0000
26.3400 3356.0000 1.0000
26.3600 4207.0000 1.0000
26.3800 5332.0000 1.0000
26.4000 6655.0000 1.0000
26.4200 7857.0000 1.0000
26.4400 9013.0000 1.0000
26.4600 9986.0000 1.0000
26.4800 10330.0000 1.0000
26.5000 10062.0000 1.0000
26.5200 9254.0000 1.0000
26.5400 7894.0000 1.0000
26.5600 6282.0000 1.0000
26.5800 4754.0000 1.0000
26.6000 3465.0000 1.0000
26.6200 2429.0000 1.0000
26.6400 1730.0000 1.0000
26.6600 1324.0000 1.0000
26.6800 1114.0000 1.0000
26.7000 996.0000 1.0000
26.7200 954.0000 1.0000
26.7400 879.0000 1.0000
26.7600 798.0000 1.0000
26.7800 775.0000 1.0000
26.8000 736.0000 1.0000
26.8200 696.0000 1.0000
26.8400 645.0000 1.0000
26.8600 610.0000 1.0000
26.8800 625.0000 1.0000
26.9000 611.0000 1.0000
26.9200 555.0000 1.0000
26.9400 530.0000 1.0000
26.9600 512.0000 1.0000
26.9800 491.0000 1.0000
27.0000 476.0000 1.0000
27.0200 457.0000 1.0000
27.0400 457.0000 1.0000
27.0600 429.0000 1.0000
27.0800 413.0000 1.0000
27.1000 420.0000 1.0000
27.1200 411.0000 1.0000
27.1400 412.0000 1.0000
27.1600 440.0000 1.0000
27.1800 456.0000 1.0000
27.2000 438.0000 1.0000
27.2200 442.0000 1.0000
27.2400 488.0000 1.0000
27.2600 526.0000 1.0000
27.2800 552.0000 1.0000
27.3000 593.0000 1.0000
27.3200 619.0000 1.0000
27.3400 634.0000 1.0000
27.3600 651.0000 1.0000
27.3800 663.0000 1.0000
27.4000 705.0000 1.0000
27.4200 731.0000 1.0000
27.4400 722.0000 1.0000
27.4600 758.0000 1.0000
27.4800 818.0000 1.0000
27.5000 857.0000 1.0000
27.5200 882.0000 1.0000
27.5400 922.0000 1.0000
27.5600 988.0000 1.0000
27.5800 1051.0000 1.0000
27.6000 1116.0000 1.0000
27.6200 1145.0000 1.0000
27.6400 1154.0000 1.0000
27.6600 1162.0000 1.0000
27.6800 1174.0000 1.0000
27.7000 1185.0000 1.0000
27.7200 1224.0000 1.0000
27.7400 1260.0000 1.0000
27.7600 1273.0000 1.0000
27.7800 1289.0000 1.0000
27.8000 1285.0000 1.0000
27.8200 1295.0000 1.0000
27.8400 1273.0000 1.0000
27.8600 1220.0000 1.0000
27.8800 1142.0000 1.0000
27.9000 1033.0000 1.0000
27.9200 919.0000 1.0000
27.9400 848.0000 1.0000
27.9600 754.0000 1.0000
27.9800 640.0000 1.0000
28.0000 538.0000 1.0000
28.0200 510.0000 1.0000
28.0400 496.0000 1.0000
28.0600 456.0000 1.0000
28.0800 436.0000 1.0000
28.1000 406.0000 1.0000
28.1200 402.0000 1.0000
28.1400 402.0000 1.0000
28.1600 374.0000 1.0000
28.1800 358.0000 1.0000
28.2000 348.0000 1.0000
28.2200 340.0000 1.0000
28.2400 340.0000 1.0000
28.2600 329.0000 1.0000
28.2800 307.0000 1.0000
28.3000 291.0000 1.0000
28.3200 305.0000 1.0000
28.3400 280.0000 1.0000
28.3600 248.0000 1.0000
28.3800 252.0000 1.0000
28.4000 250.0000 1.0000
28.4200 220.0000 1.0000
28.4400 206.0000 1.0000
28.4600 220.0000 1.0000
28.4800 211.0000 1.0000
28.5000 211.0000 1.0000
28.5200 203.0000 1.0000
28.5400 217.0000 1.0000
28.5600 213.0000 1.0000
28.5800 198.0000 1.0000
28.6000 213.0000 1.0000
28.6200 201.0000 1.0000
28.6400 193.0000 1.0000
28.6600 206.0000 1.0000
28.6800 219.0000 1.0000
28.7000 210.0000 1.0000
28.7200 198.0000 1.0000
28.7400 207.0000 1.0000
28.7600 215.0000 1.0000
28.7800 204.0000 1.0000
28.8000 199.0000 1.0000
28.8200 201.0000 1.0000
28.8400 222.0000 1.0000
28.8600 215.0000 1.0000
28.8800 224.0000 1.0000
28.9000 227.0000 1.0000
28.9200 226.0000 1.0000
28.9400 226.0000 1.0000
28.9600 231.0000 1.0000
28.9800 246.0000 1.0000
29.0000 237.0000 1.0000
29.0200 227.0000 1.0000
29.0400 231.0000 1.0000
29.0600 235.0000 1.0000
29.0800 238.0000 1.0000
29.1000 237.0000 1.0000
29.1200 246.0000 1.0000
29.1400 267.0000 1.0000
29.1600 277.0000 1.0000
29.1800 302.0000 1.0000
29.2000 327.0000 1.0000
29.2200 347.0000 1.0000
29.2400 357.0000 1.0000
29.2600 380.0000 1.0000
29.2800 392.0000 1.0000
29.3000 376.0000 1.0000
29.3200 365.0000 1.0000
29.3400 386.0000 1.0000
29.3600 371.0000 1.0000
29.3800 387.0000 1.0000
29.4000 395.0000 1.0000
29.4200 378.0000 1.0000
29.4400 416.0000 1.0000
29.4600 429.0000 1.0000
29.4800 427.0000 1.0000
29.5000 413.0000 1.0000
29.5200 425.0000 1.0000
29.5400 437.0000 1.0000
29.5600 436.0000 1.0000
29.5800 424.0000 1.0000
29.6000 453.0000 1.0000
29.6200 478.0000 1.0000
29.6400 517.0000 1.0000
29.6600 533.0000 1.0000
29.6800 506.0000 1.0000
29.7000 490.0000 1.0000
29.7200 464.0000 1.0000
29.7400 445.0000 1.0000
29.7600 419.0000 1.0000
29.7800 393.0000 1.0000
29.8000 392.0000 1.0000
29.8200 381.0000 1.0000
29.8400 365.0000 1.0000
29.8600 365.0000 1.0000
29.8800 360.0000 1.0000
29.9000 347.0000 1.0000
29.9200 327.0000 1.0000
29.9400 349.0000 1.0000
29.9600 354.0000 1.0000
29.9800 371.0000 1.0000
30.0000 368.0000 1.0000
30.0200 374.0000 1.0000
30.0400 397.0000 1.0000
30.0600 393.0000 1.0000
30.0800 402.0000 1.0000
30.1000 433.0000 1.0000
30.1200 409.0000 1.0000
30.1400 401.0000 1.0000
30.1600 386.0000 1.0000
30.1800 381.0000 1.0000
30.2000 402.0000 1.0000
30.2200 403.0000 1.0000
30.2400 393.0000 1.0000
30.2600 410.0000 1.0000
30.2800 383.0000 1.0000
30.3000 406.0000 1.0000
30.3200 421.0000 1.0000
30.3400 394.0000 1.0000
30.3600 401.0000 1.0000
30.3800 374.0000 1.0000
30.4000 336.0000 1.0000
30.4200 309.0000 1.0000
30.4400 320.0000 1.0000
30.4600 333.0000 1.0000
30.4800 318.0000 1.0000
30.5000 339.0000 1.0000
30.5200 348.0000 1.0000
30.5400 337.0000 1.0000
30.5600 349.0000 1.0000
30.5800 327.0000 1.0000
30.6000 365.0000 1.0000
30.6200 368.0000 1.0000
30.6400 372.0000 1.0000
30.6600 392.0000 1.0000
30.6800 367.0000 1.0000
30.7000 331.0000 1.0000
30.7200 334.0000 1.0000
30.7400 322.0000 1.0000
30.7600 292.0000 1.0000
30.7800 294.0000 1.0000
30.8000 263.0000 1.0000
30.8200 238.0000 1.0000
30.8400 234.0000 1.0000
30.8600 229.0000 1.0000
30.8800 206.0000 1.0000
30.9000 217.0000 1.0000
30.9200 223.0000 1.0000
30.9400 214.0000 1.0000
30.9600 185.0000 1.0000
30.9800 216.0000 1.0000
31.0000 217.0000 1.0000
31.0200 222.0000 1.0000
31.0400 231.0000 1.0000
31.0600 227.0000 1.0000
31.0800 232.0000 1.0000
31.1000 247.0000 1.0000
31.1200 241.0000 1.0000
31.1400 243.0000 1.0000
31.1600 230.0000 1.0000
31.1800 221.0000 1.0000
31.2000 217.0000 1.0000
31.2200 248.0000 1.0000
31.2400 232.0000 1.0000
31.2600 237.0000 1.0000
31.2800 245.0000 1.0000
31.3000 241.0000 1.0000
31.3200 241.0000 1.0000
31.3400 235.0000 1.0000
31.3600 237.0000 1.0000
31.3800 250.0000 1.0000
31.4000 232.0000 1.0000
31.4200 229.0000 1.0000
31.4400 212.0000 1.0000
31.4600 193.0000 1.0000
31.4800 183.0000 1.0000
31.5000 199.0000 1.0000
31.5200 205.0000 1.0000
31.5400 187.0000 1.0000
31.5600 192.0000 1.0000
31.5800 186.0000 1.0000
31.6000 191.0000 1.0000
31.6200 191.0000 1.0000
31.6400 191.0000 1.0000
31.6600 189.0000 1.0000
31.6800 180.0000 1.0000
31.7000 167.0000 1.0000
31.7200 168.0000 1.0000
31.7400 165.0000 1.0000
31.7600 166.0000 1.0000
31.7800 147.0000 1.0000
31.8000 162.0000 1.0000
31.8200 163.0000 1.0000
31.8400 162.0000 1.0000
31.8600 171.0000 1.0000
31.8800 149.0000 1.0000
31.9000 145.0000 1.0000
31.9200 157.0000 1.0000
31.9400 151.0000 1.0000
31.9600 164.0000 1.0000
31.9800 163.0000 1.0000
32.0000 152.0000 1.0000
32.0200 152.0000 1.0000
32.0400 149.0000 1.0000
32.0600 151.0000 1.0000
32.0800 163.0000 1.0000
32.1000 166.0000 1.0000
32.1200 157.0000 1.0000
32.1400 163.0000 1.0000
32.1600 156.0000 1.0000
32.1800 155.0000 1.0000
32.2000 159.0000 1.0000
32.2200 169.0000 1.0000
32.2400 160.0000 1.0000
32.2600 165.0000 1.0000
32.2800 160.0000 1.0000
32.3000 159.0000 1.0000
32.3200 164.0000 1.0000
32.3400 143.0000 1.0000
32.3600 166.0000 1.0000
32.3800 163.0000 1.0000
32.4000 155.0000 1.0000
32.4200 149.0000 1.0000
32.4400 144.0000 1.0000
32.4600 160.0000 1.0000
32.4800 163.0000 1.0000
32.5000 146.0000 1.0000
32.5200 144.0000 1.0000
32.5400 142.0000 1.0000
32.5600 148.0000 1.0000
32.5800 151.0000 1.0000
32.6000 133.0000 1.0000
32.6200 117.0000 1.0000
32.6400 137.0000 1.0000
32.6600 142.0000 1.0000
32.6800 132.0000 1.0000
32.7000 128.0000 1.0000
32.7200 142.0000 1.0000
32.7400 133.0000 1.0000
32.7600 119.0000 1.0000
32.7800 122.0000 1.0000
32.8000 132.0000 1.0000
32.8200 125.0000 1.0000
32.8400 143.0000 1.0000
32.8600 132.0000 1.0000
32.8800 127.0000 1.0000
32.9000 144.0000 1.0000
32.9200 130.0000 1.0000
32.9400 135.0000 1.0000
32.9600 131.0000 1.0000
32.9800 135.0000 1.0000
33.0000 130.0000 1.0000
33.0200 131.0000 1.0000
33.0400 121.0000 1.0000
33.0600 138.0000 1.0000
33.0800 140.0000 1.0000
33.1000 138.0000 1.0000
33.1200 137.0000 1.0000
33.1400 130.0000 1.0000
33.1600 159.0000 1.0000
33.1800 133.0000 1.0000
33.2000 139.0000 1.0000
33.2200 134.0000 1.0000
33.2400 142.0000 1.0000
33.2600 137.0000 1.0000
33.2800 127.0000 1.0000
33.3000 147.0000 1.0000
33.3200 141.0000 1.0000
33.3400 149.0000 1.0000
33.3600 133.0000 1.0000
33.3800 137.0000 1.0000
33.4000 142.0000 1.0000
33.4200 163.0000 1.0000
33.4400 159.0000 1.0000
33.4600 138.0000 1.0000
33.4800 191.0000 1.0000
33.5000 170.0000 1.0000
33.5200 168.0000 1.0000
33.5400 170.0000 1.0000
33.5600 159.0000 1.0000
33.5800 183.0000 1.0000
33.6000 155.0000 1.0000
33.6200 176.0000 1.0000
33.6400 210.0000 1.0000
33.6600 183.0000 1.0000
33.6800 188.0000 1.0000
33.7000 156.0000 1.0000
33.7200 174.0000 1.0000
33.7400 186.0000 1.0000
33.7600 167.0000 1.0000
33.7800 172.0000 1.0000
33.8000 185.0000 1.0000
33.8200 184.0000 1.0000
33.8400 157.0000 1.0000
33.8600 165.0000 1.0000
33.8800 174.0000 1.0000
33.9000 158.0000 1.0000
33.9200 151.0000 1.0000
33.9400 158.0000 1.0000
33.9600 149.0000 1.0000
33.9800 177.0000 1.0000
34.0000 171.0000 1.0000
34.0200 168.0000 1.0000
34.0400 198.0000 1.0000
34.0600 193.0000 1.0000
34.0800 173.0000 1.0000
34.1000 179.0000 1.0000
34.1200 195.0000 1.0000
34.1400 198.0000 1.0000
34.1600 183.0000 1.0000
34.1800 197.0000 1.0000
34.2000 210.0000 1.0000
34.2200 253.0000 1.0000
34.2400 244.0000 1.0000
34.2600 260.0000 1.0000
34.2800 283.0000 1.0000
34.3000 272.0000 1.0000
34.3200 284.0000 1.0000
34.3400 314.0000 1.0000
34.3600 292.0000 1.0000
34.3800 303.0000 1.0000
34.4000 330.0000 1.0000
34.4200 357.0000 1.0000
34.4400 349.0000 1.0000
34.4600 355.0000 1.0000
34.4800 340.0000 1.0000
34.5000 350.0000 1.0000
34.5200 408.0000 1.0000
34.5400 422.0000 1.0000
34.5600 378.0000 1.0000
34.5800 428.0000 1.0000
34.6000 455.0000 1.0000
34.6200 443.0000 1.0000
34.6400 493.0000 1.0000
34.6600 539.0000 1.0000
34.6800 494.0000 1.0000
34.7000 543.0000 1.0000
34.7200 534.0000 1.0000
34.7400 606.0000 1.0000
34.7600 616.0000 1.0000
34.7800 655.0000 1.0000
34.8000 618.0000 1.0000
34.8200 694.0000 1.0000
34.8400 858.0000 1.0000
34.8600 915.0000 1.0000
34.8800 1040.0000 1.0000
34.9000 1167.0000 1.0000
34.9200 1377.0000 1.0000
34.9400 1587.0000 1.0000
34.9600 1672.0000 1.0000
34.9800 1789.0000 1.0000
35.0000 1802.0000 1.0000
35.0200 1826.0000 1.0000
35.0400 1689.0000 1.0000
35.0600 1577.0000 1.0000
35.0800 1284.0000 1.0000
35.1000 1163.0000 1.0000
35.1200 953.0000 1.0000
35.1400 792.0000 1.0000
35.1600 685.0000 1.0000
35.1800 611.0000 1.0000
35.2000 520.0000 1.0000
35.2200 487.0000 1.0000
35.2400 481.0000 1.0000
35.2600 465.0000 1.0000
35.2800 430.0000 1.0000
35.3000 441.0000 1.0000
35.3200 461.0000 1.0000
35.3400 435.0000 1.0000
35.3600 435.0000 1.0000
35.3800 445.0000 1.0000
35.4000 468.0000 1.0000
35.4200 447.0000 1.0000
35.4400 437.0000 1.0000
35.4600 445.0000 1.0000
35.4800 437.0000 1.0000
35.5000 420.0000 1.0000
35.5200 397.0000 1.0000
35.5400 401.0000 1.0000
35.5600 404.0000 1.0000
35.5800 369.0000 1.0000
35.6000 369.0000 1.0000
35.6200 316.0000 1.0000
35.6400 310.0000 1.0000
35.6600 320.0000 1.0000
35.6800 293.0000 1.0000
35.7000 298.0000 1.0000
35.7200 308.0000 1.0000
35.7400 268.0000 1.0000
35.7600 273.0000 1.0000
35.7800 259.0000 1.0000
35.8000 260.0000 1.0000
35.8200 259.0000 1.0000
35.8400 278.0000 1.0000
35.8600 247.0000 1.0000
35.8800 252.0000 1.0000
35.9000 249.0000 1.0000
35.9200 241.0000 1.0000
35.9400 246.0000 1.0000
35.9600 237.0000 1.0000
35.9800 236.0000 1.0000
36.0000 250.0000 1.0000
36.0200 264.0000 1.0000
36.0400 247.0000 1.0000
36.0600 279.0000 1.0000
36.0800 269.0000 1.0000
36.1000 274.0000 1.0000
36.1200 252.0000 1.0000
36.1400 279.0000 1.0000
36.1600 301.0000 1.0000
36.1800 314.0000 1.0000
36.2000 325.0000 1.0000
36.2200 364.0000 1.0000
36.2400 417.0000 1.0000
36.2600 444.0000 1.0000
36.2800 534.0000 1.0000
36.3000 610.0000 1.0000
36.3200 716.0000 1.0000
36.3400 808.0000 1.0000
36.3600 858.0000 1.0000
36.3800 890.0000 1.0000
36.4000 869.0000 1.0000
36.4200 849.0000 1.0000
36.4400 750.0000 1.0000
36.4600 781.0000 1.0000
36.4800 742.0000 1.0000
36.5000 609.0000 1.0000
36.5200 528.0000 1.0000
36.5400 474.0000 1.0000
36.5600 440.0000 1.0000
36.5800 363.0000 1.0000
36.6000 320.0000 1.0000
36.6200 307.0000 1.0000
36.6400 273.0000 1.0000
36.6600 247.0000 1.0000
36.6800 247.0000 1.0000
36.7000 232.0000 1.0000
36.7200 231.0000 1.0000
36.7400 269.0000 1.0000
36.7600 247.0000 1.0000
36.7800 272.0000 1.0000
36.8000 265.0000 1.0000
36.8200 234.0000 1.0000
36.8400 213.0000 1.0000
36.8600 240.0000 1.0000
36.8800 214.0000 1.0000
36.9000 236.0000 1.0000
36.9200 222.0000 1.0000
36.9400 241.0000 1.0000
36.9600 224.0000 1.0000
36.9800 198.0000 1.0000
37.0000 225.0000 1.0000
37.0200 243.0000 1.0000
37.0400 249.0000 1.0000
37.0600 222.0000 1.0000
37.0800 221.0000 1.0000
37.1000 213.0000 1.0000
37.1200 214.0000 1.0000
37.1400 236.0000 1.0000
37.1600 239.0000 1.0000
37.1800 245.0000 1.0000
37.2000 254.0000 1.0000
37.2200 237.0000 1.0000
37.2400 239.0000 1.0000
37.2600 254.0000 1.0000
37.2800 264.0000 1.0000
37.3000 241.0000 1.0000
37.3200 247.0000 1.0000
37.3400 242.0000 1.0000
37.3600 261.0000 1.0000
37.3800 280.0000 1.0000
37.4000 266.0000 1.0000
37.4200 302.0000 1.0000
37.4400 338.0000 1.0000
37.4600 356.0000 1.0000
37.4800 377.0000 1.0000
37.5000 449.0000 1.0000
37.5200 487.0000 1.0000
37.5400 557.0000 1.0000
37.5600 669.0000 1.0000
37.5800 697.0000 1.0000
37.6000 799.0000 1.0000
37.6200 801.0000 1.0000
37.6400 780.0000 1.0000
37.6600 763.0000 1.0000
37.6800 706.0000 1.0000
37.7000 618.0000 1.0000
37.7200 570.0000 1.0000
37.7400 488.0000 1.0000
37.7600 413.0000 1.0000
37.7800 341.0000 1.0000
37.8000 281.0000 1.0000
37.8200 241.0000 1.0000
37.8400 211.0000 1.0000
37.8600 208.0000 1.0000
37.8800 176.0000 1.0000
37.9000 172.0000 1.0000
37.9200 166.0000 1.0000
37.9400 171.0000 1.0000
37.9600 169.0000 1.0000
37.9800 155.0000 1.0000
38.0000 173.0000 1.0000
38.0200 157.0000 1.0000
38.0400 147.0000 1.0000
38.0600 157.0000 1.0000
38.0800 143.0000 1.0000
38.1000 157.0000 1.0000
38.1200 155.0000 1.0000
38.1400 151.0000 1.0000
38.1600 140.0000 1.0000
38.1800 144.0000 1.0000
38.2000 154.0000 1.0000
38.2200 135.0000 1.0000
38.2400 130.0000 1.0000
38.2600 144.0000 1.0000
38.2800 136.0000 1.0000
38.3000 140.0000 1.0000
38.3200 130.0000 1.0000
38.3400 135.0000 1.0000
38.3600 129.0000 1.0000
38.3800 141.0000 1.0000
38.4000 144.0000 1.0000
38.4200 124.0000 1.0000
38.4400 141.0000 1.0000
38.4600 144.0000 1.0000
38.4800 133.0000 1.0000
38.5000 114.0000 1.0000
38.5200 128.0000 1.0000
38.5400 127.0000 1.0000
38.5600 123.0000 1.0000
38.5800 140.0000 1.0000
38.6000 141.0000 1.0000
38.6200 146.0000 1.0000
38.6400 153.0000 1.0000
38.6600 156.0000 1.0000
38.6800 154.0000 1.0000
38.7000 148.0000 1.0000
38.7200 159.0000 1.0000
38.7400 168.0000 1.0000
38.7600 162.0000 1.0000
38.7800 166.0000 1.0000
38.8000 156.0000 1.0000
38.8200 153.0000 1.0000
38.8400 168.0000 1.0000
38.8600 159.0000 1.0000
38.8800 166.0000 1.0000
38.9000 162.0000 1.0000
38.9200 174.0000 1.0000
38.9400 170.0000 1.0000
38.9600 161.0000 1.0000
38.9800 174.0000 1.0000
39.0000 174.0000 1.0000
39.0200 175.0000 1.0000
39.0400 184.0000 1.0000
39.0600 174.0000 1.0000
39.0800 192.0000 1.0000
39.1000 206.0000 1.0000
39.1200 221.0000 1.0000
39.1400 246.0000 1.0000
39.1600 275.0000 1.0000
39.1800 312.0000 1.0000
39.2000 371.0000 1.0000
39.2200 420.0000 1.0000
39.2400 496.0000 1.0000
39.2600 604.0000 1.0000
39.2800 702.0000 1.0000
39.3000 733.0000 1.0000
39.3200 727.0000 1.0000
39.3400 743.0000 1.0000
39.3600 713.0000 1.0000
39.3800 632.0000 1.0000
39.4000 568.0000 1.0000
39.4200 508.0000 1.0000
39.4400 434.0000 1.0000
39.4600 367.0000 1.0000
39.4800 295.0000 1.0000
39.5000 250.0000 1.0000
39.5200 231.0000 1.0000
39.5400 209.0000 1.0000
39.5600 185.0000 1.0000
39.5800 181.0000 1.0000
39.6000 174.0000 1.0000
39.6200 175.0000 1.0000
39.6400 175.0000 1.0000
39.6600 160.0000 1.0000
39.6800 175.0000 1.0000
39.7000 169.0000 1.0000
39.7200 157.0000 1.0000
39.7400 160.0000 1.0000
39.7600 159.0000 1.0000
39.7800 159.0000 1.0000
39.8000 174.0000 1.0000
39.8200 170.0000 1.0000
39.8400 164.0000 1.0000
39.8600 187.0000 1.0000
39.8800 199.0000 1.0000
39.9000 205.0000 1.0000
39.9200 217.0000 1.0000
39.9400 199.0000 1.0000
39.9600 200.0000 1.0000
39.9800 222.0000 1.0000
40.0000 236.0000 1.0000
40.0200 256.0000 1.0000
40.0400 285.0000 1.0000
40.0600 314.0000 1.0000
40.0800 353.0000 1.0000
40.1000 397.0000 1.0000
40.1200 435.0000 1.0000
40.1400 443.0000 1.0000
40.1600 419.0000 1.0000
40.1800 409.0000 1.0000
40.2000 397.0000 1.0000
40.2200 350.0000 1.0000
40.2400 326.0000 1.0000
40.2600 310.0000 1.0000
40.2800 251.0000 1.0000
40.3000 215.0000 1.0000
40.3200 200.0000 1.0000
40.3400 190.0000 1.0000
40.3600 208.0000 1.0000
40.3800 201.0000 1.0000
40.4000 181.0000 1.0000
40.4200 187.0000 1.0000
40.4400 185.0000 1.0000
40.4600 183.0000 1.0000
40.4800 165.0000 1.0000
40.5000 163.0000 1.0000
40.5200 185.0000 1.0000
40.5400 189.0000 1.0000
40.5600 189.0000 1.0000
40.5800 180.0000 1.0000
40.6000 171.0000 1.0000
40.6200 167.0000 1.0000
40.6400 164.0000 1.0000
40.6600 168.0000 1.0000
40.6800 175.0000 1.0000
40.7000 180.0000 1.0000
40.7200 187.0000 1.0000
40.7400 181.0000 1.0000
40.7600 175.0000 1.0000
40.7800 162.0000 1.0000
40.8000 162.0000 1.0000
40.8200 184.0000 1.0000
40.8400 175.0000 1.0000
40.8600 162.0000 1.0000
40.8800 167.0000 1.0000
40.9000 167.0000 1.0000
40.9200 173.0000 1.0000
40.9400 186.0000 1.0000
40.9600 178.0000 1.0000
40.9800 164.0000 1.0000
41.0000 170.0000 1.0000
41.0200 173.0000 1.0000
41.0400 172.0000 1.0000
41.0600 165.0000 1.0000
41.0800 162.0000 1.0000
41.1000 163.0000 1.0000
41.1200 163.0000 1.0000
41.1400 165.0000 1.0000
41.1600 170.0000 1.0000
41.1800 174.0000 1.0000
41.2000 158.0000 1.0000
41.2200 144.0000 1.0000
41.2400 149.0000 1.0000
41.2600 150.0000 1.0000
41.2800 155.0000 1.0000
41.3000 165.0000 1.0000
41.3200 172.0000 1.0000
41.3400 169.0000 1.0000
41.3600 171.0000 1.0000
41.3800 165.0000 1.0000
41.4000 156.0000 1.0000
41.4200 168.0000 1.0000
41.4400 191.0000 1.0000
41.4600 199.0000 1.0000
41.4800 197.0000 1.0000
41.5000 192.0000 1.0000
41.5200 202.0000 1.0000
41.5400 205.0000 1.0000
41.5600 208.0000 1.0000
41.5800 212.0000 1.0000
41.6000 224.0000 1.0000
41.6200 236.0000 1.0000
41.6400 226.0000 1.0000
41.6600 218.0000 1.0000
41.6800 216.0000 1.0000
41.7000 222.0000 1.0000
41.7200 219.0000 1.0000
41.7400 216.0000 1.0000
41.7600 211.0000 1.0000
41.7800 199.0000 1.0000
41.8000 212.0000 1.0000
41.8200 229.0000 1.0000
41.8400 230.0000 1.0000
41.8600 239.0000 1.0000
41.8800 239.0000 1.0000
41.9000 242.0000 1.0000
41.9200 237.0000 1.0000
41.9400 223.0000 1.0000
41.9600 222.0000 1.0000
41.9800 262.0000 1.0000
42.0000 281.0000 1.0000
42.0200 272.0000 1.0000
42.0400 286.0000 1.0000
42.0600 313.0000 1.0000
42.0800 325.0000 1.0000
42.1000 336.0000 1.0000
42.1200 343.0000 1.0000
42.1400 348.0000 1.0000
42.1600 386.0000 1.0000
42.1800 436.0000 1.0000
42.2000 505.0000 1.0000
42.2200 557.0000 1.0000
42.2400 558.0000 1.0000
42.2600 601.0000 1.0000
42.2800 708.0000 1.0000
42.3000 720.0000 1.0000
42.3200 709.0000 1.0000
42.3400 678.0000 1.0000
42.3600 603.0000 1.0000
42.3800 532.0000 1.0000
42.4000 496.0000 1.0000
42.4200 455.0000 1.0000
42.4400 406.0000 1.0000
42.4600 352.0000 1.0000
42.4800 321.0000 1.0000
42.5000 269.0000 1.0000
42.5200 245.0000 1.0000
42.5400 246.0000 1.0000
42.5600 239.0000 1.0000
42.5800 229.0000 1.0000
42.6000 210.0000 1.0000
42.6200 237.0000 1.0000
42.6400 242.0000 1.0000
42.6600 222.0000 1.0000
42.6800 206.0000 1.0000
42.7000 219.0000 1.0000
42.7200 213.0000 1.0000
42.7400 210.0000 1.0000
42.7600 223.0000 1.0000
42.7800 223.0000 1.0000
42.8000 207.0000 1.0000
42.8200 232.0000 1.0000
42.8400 230.0000 1.0000
42.8600 226.0000 1.0000
42.8800 249.0000 1.0000
42.9000 270.0000 1.0000
42.9200 245.0000 1.0000
42.9400 266.0000 1.0000
42.9600 276.0000 1.0000
42.9800 297.0000 1.0000
43.0000 333.0000 1.0000
43.0200 378.0000 1.0000
43.0400 423.0000 1.0000
43.0600 524.0000 1.0000
43.0800 617.0000 1.0000
43.1000 820.0000 1.0000
43.1200 987.0000 1.0000
43.1400 1218.0000 1.0000
43.1600 1431.0000 1.0000
43.1800 1522.0000 1.0000
43.2000 1639.0000 1.0000
43.2200 1672.0000 1.0000
43.2400 1624.0000 1.0000
43.2600 1509.0000 1.0000
43.2800 1313.0000 1.0000
43.3000 1168.0000 1.0000
43.3200 1002.0000 1.0000
43.3400 855.0000 1.0000
43.3600 732.0000 1.0000
43.3800 614.0000 1.0000
43.4000 470.0000 1.0000
43.4200 363.0000 1.0000
43.4400 290.0000 1.0000
43.4600 237.0000 1.0000
43.4800 243.0000 1.0000
43.5000 219.0000 1.0000
43.5200 214.0000 1.0000
43.5400 189.0000 1.0000
43.5600 185.0000 1.0000
43.5800 169.0000 1.0000
43.6000 170.0000 1.0000
43.6200 164.0000 1.0000
43.6400 168.0000 1.0000
43.6600 188.0000 1.0000
43.6800 153.0000 1.0000
43.7000 157.0000 1.0000
43.7200 163.0000 1.0000
43.7400 153.0000 1.0000
43.7600 152.0000 1.0000
43.7800 150.0000 1.0000
43.8000 143.0000 1.0000
43.8200 148.0000 1.0000
43.8400 150.0000 1.0000
43.8600 154.0000 1.0000
43.8800 158.0000 1.0000
43.9000 154.0000 1.0000
43.9200 148.0000 1.0000
43.9400 135.0000 1.0000
43.9600 161.0000 1.0000
43.9800 156.0000 1.0000
44.0000 142.0000 1.0000
44.0200 160.0000 1.0000
44.0400 148.0000 1.0000
44.0600 155.0000 1.0000
44.0800 181.0000 1.0000
44.1000 164.0000 1.0000
44.1200 151.0000 1.0000
44.1400 157.0000 1.0000
44.1600 161.0000 1.0000
44.1800 169.0000 1.0000
44.2000 155.0000 1.0000
44.2200 162.0000 1.0000
44.2400 166.0000 1.0000
44.2600 150.0000 1.0000
44.2800 137.0000 1.0000
44.3000 134.0000 1.0000
44.3200 141.0000 1.0000
44.3400 133.0000 1.0000
44.3600 139.0000 1.0000
44.3800 154.0000 1.0000
44.4000 168.0000 1.0000
44.4200 153.0000 1.0000
44.4400 150.0000 1.0000
44.4600 153.0000 1.0000
44.4800 159.0000 1.0000
44.5000 139.0000 1.0000
44.5200 139.0000 1.0000
44.5400 137.0000 1.0000
44.5600 158.0000 1.0000
44.5800 167.0000 1.0000
44.6000 165.0000 1.0000
44.6200 174.0000 1.0000
44.6400 190.0000 1.0000
44.6600 167.0000 1.0000
44.6800 190.0000 1.0000
44.7000 190.0000 1.0000
44.7200 180.0000 1.0000
44.7400 204.0000 1.0000
44.7600 178.0000 1.0000
44.7800 151.0000 1.0000
44.8000 205.0000 1.0000
44.8200 189.0000 1.0000
44.8400 194.0000 1.0000
44.8600 183.0000 1.0000
44.8800 164.0000 1.0000
44.9000 203.0000 1.0000
44.9200 183.0000 1.0000
44.9400 162.0000 1.0000
44.9600 177.0000 1.0000
44.9800 218.0000 1.0000
45.0000 177.0000 1.0000
45.0200 192.0000 1.0000
45.0400 206.0000 1.0000
45.0600 186.0000 1.0000
45.0800 215.0000 1.0000
45.1000 189.0000 1.0000
45.1200 205.0000 1.0000
45.1400 198.0000 1.0000
45.1600 189.0000 1.0000
45.1800 206.0000 1.0000
45.2000 203.0000 1.0000
45.2200 221.0000 1.0000
45.2400 212.0000 1.0000
45.2600 199.0000 1.0000
45.2800 201.0000 1.0000
45.3000 215.0000 1.0000
45.3200 186.0000 1.0000
45.3400 206.0000 1.0000
45.3600 209.0000 1.0000
45.3800 201.0000 1.0000
45.4000 192.0000 1.0000
45.4200 210.0000 1.0000
45.4400 234.0000 1.0000
45.4600 238.0000 1.0000
45.4800 237.0000 1.0000
45.5000 264.0000 1.0000
45.5200 236.0000 1.0000
45.5400 284.0000 1.0000
45.5600 328.0000 1.0000
45.5800 364.0000 1.0000
45.6000 432.0000 1.0000
45.6200 417.0000 1.0000
45.6400 459.0000 1.0000
45.6600 415.0000 1.0000
45.6800 399.0000 1.0000
45.7000 388.0000 1.0000
45.7200 373.0000 1.0000
45.7400 346.0000 1.0000
45.7600 315.0000 1.0000
45.7800 288.0000 1.0000
45.8000 253.0000 1.0000
45.8200 259.0000 1.0000
45.8400 222.0000 1.0000
45.8600 216.0000 1.0000
45.8800 189.0000 1.0000
45.9000 168.0000 1.0000
45.9200 164.0000 1.0000
45.9400 185.0000 1.0000
45.9600 169.0000 1.0000
45.9800 175.0000 1.0000
46.0000 161.0000 1.0000
46.0200 167.0000 1.0000
46.0400 179.0000 1.0000
46.0600 148.0000 1.0000
46.0800 177.0000 1.0000
46.1000 177.0000 1.0000
46.1200 144.0000 1.0000
46.1400 140.0000 1.0000
46.1600 153.0000 1.0000
46.1800 146.0000 1.0000
46.2000 135.0000 1.0000
46.2200 141.0000 1.0000
46.2400 152.0000 1.0000
46.2600 131.0000 1.0000
46.2800 136.0000 1.0000
46.3000 136.0000 1.0000
46.3200 132.0000 1.0000
46.3400 122.0000 1.0000
46.3600 134.0000 1.0000
46.3800 123.0000 1.0000
46.4000 103.0000 1.0000
46.4200 108.0000 1.0000
46.4400 133.0000 1.0000
46.4600 114.0000 1.0000
46.4800 120.0000 1.0000
46.5000 117.0000 1.0000
46.5200 112.0000 1.0000
46.5400 118.0000 1.0000
46.5600 128.0000 1.0000
46.5800 132.0000 1.0000
46.6000 134.0000 1.0000
46.6200 129.0000 1.0000
46.6400 121.0000 1.0000
46.6600 126.0000 1.0000
46.6800 129.0000 1.0000
46.7000 116.0000 1.0000
46.7200 126.0000 1.0000
46.7400 111.0000 1.0000
46.7600 104.0000 1.0000
46.7800 122.0000 1.0000
46.8000 122.0000 1.0000
46.8200 131.0000 1.0000
46.8400 138.0000 1.0000
46.8600 111.0000 1.0000
46.8800 127.0000 1.0000
46.9000 133.0000 1.0000
46.9200 125.0000 1.0000
46.9400 121.0000 1.0000
46.9600 124.0000 1.0000
46.9800 129.0000 1.0000
47.0000 147.0000 1.0000
47.0200 134.0000 1.0000
47.0400 135.0000 1.0000
47.0600 125.0000 1.0000
47.0800 122.0000 1.0000
47.1000 130.0000 1.0000
47.1200 129.0000 1.0000
47.1400 122.0000 1.0000
47.1600 126.0000 1.0000
47.1800 128.0000 1.0000
47.2000 135.0000 1.0000
47.2200 120.0000 1.0000
47.2400 117.0000 1.0000
47.2600 114.0000 1.0000
47.2800 118.0000 1.0000
47.3000 109.0000 1.0000
47.3200 119.0000 1.0000
47.3400 114.0000 1.0000
47.3600 107.0000 1.0000
47.3800 123.0000 1.0000
47.4000 122.0000 1.0000
47.4200 119.0000 1.0000
47.4400 121.0000 1.0000
47.4600 121.0000 1.0000
47.4800 126.0000 1.0000
47.5000 129.0000 1.0000
47.5200 130.0000 1.0000
47.5400 123.0000 1.0000
47.5600 112.0000 1.0000
47.5800 97.0000 1.0000
47.6000 100.0000 1.0000
47.6200 110.0000 1.0000
47.6400 116.0000 1.0000
47.6600 116.0000 1.0000
47.6800 121.0000 1.0000
47.7000 132.0000 1.0000
47.7200 127.0000 1.0000
47.7400 135.0000 1.0000
47.7600 125.0000 1.0000
47.7800 125.0000 1.0000
47.8000 129.0000 1.0000
47.8200 122.0000 1.0000
47.8400 125.0000 1.0000
47.8600 118.0000 1.0000
47.8800 118.0000 1.0000
47.9000 126.0000 1.0000
47.9200 121.0000 1.0000
47.9400 120.0000 1.0000
47.9600 124.0000 1.0000
47.9800 142.0000 1.0000
48.0000 125.0000 1.0000
48.0200 118.0000 1.0000
48.0400 130.0000 1.0000
48.0600 128.0000 1.0000
48.0800 143.0000 1.0000
48.1000 139.0000 1.0000
48.1200 133.0000 1.0000
48.1400 129.0000 1.0000
48.1600 135.0000 1.0000
48.1800 126.0000 1.0000
48.2000 136.0000 1.0000
48.2200 145.0000 1.0000
48.2400 129.0000 1.0000
48.2600 136.0000 1.0000
48.2800 134.0000 1.0000
48.3000 132.0000 1.0000
48.3200 144.0000 1.0000
48.3400 146.0000 1.0000
48.3600 145.0000 1.0000
48.3800 134.0000 1.0000
48.4000 124.0000 1.0000
48.4200 125.0000 1.0000
48.4400 123.0000 1.0000
48.4600 114.0000 1.0000
48.4800 114.0000 1.0000
48.5000 130.0000 1.0000
48.5200 130.0000 1.0000
48.5400 115.0000 1.0000
48.5600 121.0000 1.0000
48.5800 129.0000 1.0000
48.6000 114.0000 1.0000
48.6200 103.0000 1.0000
48.6400 111.0000 1.0000
48.6600 118.0000 1.0000
48.6800 117.0000 1.0000
48.7000 125.0000 1.0000
48.7200 128.0000 1.0000
48.7400 126.0000 1.0000
48.7600 116.0000 1.0000
48.7800 118.0000 1.0000
48.8000 133.0000 1.0000
48.8200 136.0000 1.0000
48.8400 133.0000 1.0000
48.8600 126.0000 1.0000
48.8800 139.0000 1.0000
48.9000 143.0000 1.0000
48.9200 134.0000 1.0000
48.9400 136.0000 1.0000
48.9600 141.0000 1.0000
48.9800 149.0000 1.0000
49.0000 156.0000 1.0000
49.0200 158.0000 1.0000
49.0400 156.0000 1.0000
49.0600 171.0000 1.0000
49.0800 178.0000 1.0000
49.1000 164.0000 1.0000
49.1200 164.0000 1.0000
49.1400 162.0000 1.0000
49.1600 145.0000 1.0000
49.1800 137.0000 1.0000
49.2000 148.0000 1.0000
49.2200 166.0000 1.0000
49.2400 159.0000 1.0000
49.2600 156.0000 1.0000
49.2800 170.0000 1.0000
49.3000 153.0000 1.0000
49.3200 154.0000 1.0000
49.3400 164.0000 1.0000
49.3600 161.0000 1.0000
49.3800 157.0000 1.0000
49.4000 158.0000 1.0000
49.4200 172.0000 1.0000
49.4400 170.0000 1.0000
49.4600 176.0000 1.0000
49.4800 192.0000 1.0000
49.5000 184.0000 1.0000
49.5200 192.0000 1.0000
49.5400 202.0000 1.0000
49.5600 209.0000 1.0000
49.5800 207.0000 1.0000
49.6000 214.0000 1.0000
49.6200 216.0000 1.0000
49.6400 212.0000 1.0000
49.6600 215.0000 1.0000
49.6800 238.0000 1.0000
49.7000 234.0000 1.0000
49.7200 241.0000 1.0000
49.7400 256.0000 1.0000
49.7600 257.0000 1.0000
49.7800 278.0000 1.0000
49.8000 323.0000 1.0000
49.8200 372.0000 1.0000
49.8400 418.0000 1.0000
49.8600 471.0000 1.0000
49.8800 566.0000 1.0000
49.9000 706.0000 1.0000
49.9200 800.0000 1.0000
49.9400 947.0000 1.0000
49.9600 1099.0000 1.0000
49.9800 1131.0000 1.0000
50.0000 1155.0000 1.0000
50.0200 1142.0000 1.0000
50.0400 1096.0000 1.0000
50.0600 981.0000 1.0000
50.0800 887.0000 1.0000
50.1000 850.0000 1.0000
50.1200 768.0000 1.0000
50.1400 730.0000 1.0000
50.1600 631.0000 1.0000
50.1800 478.0000 1.0000
50.2000 396.0000 1.0000
50.2200 357.0000 1.0000
50.2400 275.0000 1.0000
50.2600 225.0000 1.0000
50.2800 218.0000 1.0000
50.3000 207.0000 1.0000
50.3200 208.0000 1.0000
50.3400 214.0000 1.0000
50.3600 178.0000 1.0000
50.3800 170.0000 1.0000
50.4000 190.0000 1.0000
50.4200 191.0000 1.0000
50.4400 208.0000 1.0000
50.4600 217.0000 1.0000
50.4800 205.0000 1.0000
50.5000 203.0000 1.0000
50.5200 211.0000 1.0000
50.5400 194.0000 1.0000
50.5600 201.0000 1.0000
50.5800 218.0000 1.0000
50.6000 215.0000 1.0000
50.6200 194.0000 1.0000
50.6400 184.0000 1.0000
50.6600 200.0000 1.0000
50.6800 205.0000 1.0000
50.7000 187.0000 1.0000
50.7200 162.0000 1.0000
50.7400 170.0000 1.0000
50.7600 183.0000 1.0000
50.7800 159.0000 1.0000
50.8000 160.0000 1.0000
50.8200 166.0000 1.0000
50.8400 152.0000 1.0000
50.8600 157.0000 1.0000
50.8800 140.0000 1.0000
50.9000 162.0000 1.0000
50.9200 141.0000 1.0000
50.9400 129.0000 1.0000
50.9600 158.0000 1.0000
50.9800 166.0000 1.0000
51.0000 190.0000 1.0000
51.0200 173.0000 1.0000
51.0400 173.0000 1.0000
51.0600 170.0000 1.0000
51.0800 157.0000 1.0000
51.1000 146.0000 1.0000
51.1200 175.0000 1.0000
51.1400 148.0000 1.0000
51.1600 174.0000 1.0000
51.1800 172.0000 1.0000
51.2000 155.0000 1.0000
51.2200 140.0000 1.0000
51.2400 157.0000 1.0000
51.2600 171.0000 1.0000
51.2800 182.0000 1.0000
51.3000 159.0000 1.0000
51.3200 158.0000 1.0000
51.3400 172.0000 1.0000
51.3600 173.0000 1.0000
51.3800 144.0000 1.0000
51.4000 134.0000 1.0000
51.4200 142.0000 1.0000
51.4400 140.0000 1.0000
51.4600 145.0000 1.0000
51.4800 136.0000 1.0000
51.5000 132.0000 1.0000
51.5200 146.0000 1.0000
51.5400 148.0000 1.0000
51.5600 138.0000 1.0000
51.5800 120.0000 1.0000
51.6000 135.0000 1.0000
51.6200 128.0000 1.0000
51.6400 121.0000 1.0000
51.6600 119.0000 1.0000
51.6800 135.0000 1.0000
51.7000 136.0000 1.0000
51.7200 142.0000 1.0000
51.7400 141.0000 1.0000
51.7600 122.0000 1.0000
51.7800 119.0000 1.0000
51.8000 119.0000 1.0000
51.8200 122.0000 1.0000
51.8400 129.0000 1.0000
51.8600 136.0000 1.0000
51.8800 130.0000 1.0000
51.9000 146.0000 1.0000
51.9200 135.0000 1.0000
51.9400 140.0000 1.0000
51.9600 163.0000 1.0000
51.9800 150.0000 1.0000
52.0000 150.0000 1.0000
52.0200 160.0000 1.0000
52.0400 146.0000 1.0000
52.0600 143.0000 1.0000
52.0800 157.0000 1.0000
52.1000 179.0000 1.0000
52.1200 179.0000 1.0000
52.1400 170.0000 1.0000
52.1600 213.0000 1.0000
52.1800 182.0000 1.0000
52.2000 203.0000 1.0000
52.2200 229.0000 1.0000
52.2400 269.0000 1.0000
52.2600 254.0000 1.0000
52.2800 323.0000 1.0000
52.3000 388.0000 1.0000
52.3200 437.0000 1.0000
52.3400 499.0000 1.0000
52.3600 614.0000 1.0000
52.3800 686.0000 1.0000
52.4000 749.0000 1.0000
52.4200 785.0000 1.0000
52.4400 742.0000 1.0000
52.4600 730.0000 1.0000
52.4800 667.0000 1.0000
52.5000 598.0000 1.0000
52.5200 526.0000 1.0000
52.5400 527.0000 1.0000
52.5600 526.0000 1.0000
52.5800 460.0000 1.0000
52.6000 395.0000 1.0000
52.6200 367.0000 1.0000
52.6400 279.0000 1.0000
52.6600 224.0000 1.0000
52.6800 195.0000 1.0000
52.7000 186.0000 1.0000
52.7200 140.0000 1.0000
52.7400 148.0000 1.0000
52.7600 176.0000 1.0000
52.7800 157.0000 1.0000
52.8000 147.0000 1.0000
52.8200 152.0000 1.0000
52.8400 154.0000 1.0000
52.8600 151.0000 1.0000
52.8800 174.0000 1.0000
52.9000 155.0000 1.0000
52.9200 164.0000 1.0000
52.9400 143.0000 1.0000
52.9600 136.0000 1.0000
52.9800 156.0000 1.0000
53.0000 147.0000 1.0000
53.0200 143.0000 1.0000
53.0400 162.0000 1.0000
53.0600 152.0000 1.0000
53.0800 160.0000 1.0000
53.1000 150.0000 1.0000
53.1200 156.0000 1.0000
53.1400 165.0000 1.0000
53.1600 155.0000 1.0000
53.1800 165.0000 1.0000
53.2000 159.0000 1.0000
53.2200 150.0000 1.0000
53.2400 169.0000 1.0000
53.2600 178.0000 1.0000
53.2800 162.0000 1.0000
53.3000 135.0000 1.0000
53.3200 155.0000 1.0000
53.3400 137.0000 1.0000
53.3600 129.0000 1.0000
53.3800 146.0000 1.0000
53.4000 148.0000 1.0000
53.4200 145.0000 1.0000
53.4400 144.0000 1.0000
53.4600 165.0000 1.0000
53.4800 132.0000 1.0000
53.5000 150.0000 1.0000
53.5200 145.0000 1.0000
53.5400 135.0000 1.0000
53.5600 129.0000 1.0000
53.5800 150.0000 1.0000
53.6000 146.0000 1.0000
53.6200 162.0000 1.0000
53.6400 160.0000 1.0000
53.6600 142.0000 1.0000
53.6800 149.0000 1.0000
53.7000 169.0000 1.0000
53.7200 147.0000 1.0000
53.7400 154.0000 1.0000
53.7600 164.0000 1.0000
53.7800 145.0000 1.0000
53.8000 132.0000 1.0000
53.8200 137.0000 1.0000
53.8400 141.0000 1.0000
53.8600 145.0000 1.0000
53.8800 131.0000 1.0000
53.9000 141.0000 1.0000
53.9200 135.0000 1.0000
53.9400 140.0000 1.0000
53.9600 138.0000 1.0000
53.9800 140.0000 1.0000
54.0000 160.0000 1.0000
54.0200 139.0000 1.0000
54.0400 152.0000 1.0000
54.0600 145.0000 1.0000
54.0800 140.0000 1.0000
54.1000 144.0000 1.0000
54.1200 132.0000 1.0000
54.1400 134.0000 1.0000
54.1600 149.0000 1.0000
54.1800 148.0000 1.0000
54.2000 137.0000 1.0000
54.2200 139.0000 1.0000
54.2400 159.0000 1.0000
54.2600 174.0000 1.0000
54.2800 172.0000 1.0000
54.3000 175.0000 1.0000
54.3200 171.0000 1.0000
54.3400 169.0000 1.0000
54.3600 183.0000 1.0000
54.3800 151.0000 1.0000
54.4000 175.0000 1.0000
54.4200 179.0000 1.0000
54.4400 161.0000 1.0000
54.4600 157.0000 1.0000
54.4800 173.0000 1.0000
54.5000 153.0000 1.0000
54.5200 151.0000 1.0000
54.5400 183.0000 1.0000
54.5600 203.0000 1.0000
54.5800 221.0000 1.0000
54.6000 243.0000 1.0000
54.6200 281.0000 1.0000
54.6400 288.0000 1.0000
54.6600 311.0000 1.0000
54.6800 359.0000 1.0000
54.7000 405.0000 1.0000
54.7200 433.0000 1.0000
54.7400 462.0000 1.0000
54.7600 446.0000 1.0000
54.7800 421.0000 1.0000
54.8000 399.0000 1.0000
54.8200 333.0000 1.0000
54.8400 352.0000 1.0000
54.8600 371.0000 1.0000
54.8800 355.0000 1.0000
54.9000 329.0000 1.0000
54.9200 289.0000 1.0000
54.9400 283.0000 1.0000
54.9600 274.0000 1.0000
54.9800 263.0000 1.0000
55.0000 221.0000 1.0000
55.0200 194.0000 1.0000
55.0400 223.0000 1.0000
55.0600 225.0000 1.0000
55.0800 229.0000 1.0000
55.1000 253.0000 1.0000
55.1200 266.0000 1.0000
55.1400 287.0000 1.0000
55.1600 291.0000 1.0000
55.1800 274.0000 1.0000
55.2000 284.0000 1.0000
55.2200 288.0000 1.0000
55.2400 284.0000 1.0000
55.2600 259.0000 1.0000
55.2800 251.0000 1.0000
55.3000 249.0000 1.0000
55.3200 225.0000 1.0000
55.3400 221.0000 1.0000
55.3600 212.0000 1.0000
55.3800 195.0000 1.0000
55.4000 187.0000 1.0000
55.4200 185.0000 1.0000
55.4400 188.0000 1.0000
55.4600 182.0000 1.0000
55.4800 180.0000 1.0000
55.5000 166.0000 1.0000
55.5200 154.0000 1.0000
55.5400 149.0000 1.0000
55.5600 168.0000 1.0000
55.5800 181.0000 1.0000
55.6000 176.0000 1.0000
55.6200 161.0000 1.0000
55.6400 159.0000 1.0000
55.6600 171.0000 1.0000
55.6800 169.0000 1.0000
55.7000 173.0000 1.0000
55.7200 156.0000 1.0000
55.7400 150.0000 1.0000
55.7600 154.0000 1.0000
55.7800 155.0000 1.0000
55.8000 161.0000 1.0000
55.8200 155.0000 1.0000
55.8400 154.0000 1.0000
55.8600 157.0000 1.0000
55.8800 164.0000 1.0000
55.9000 161.0000 1.0000
55.9200 153.0000 1.0000
55.9400 163.0000 1.0000
55.9600 150.0000 1.0000
55.9800 137.0000 1.0000
56.0000 148.0000 1.0000
56.0200 145.0000 1.0000
56.0400 148.0000 1.0000
56.0600 156.0000 1.0000
56.0800 161.0000 1.0000
56.1000 161.0000 1.0000
56.1200 158.0000 1.0000
56.1400 178.0000 1.0000
56.1600 186.0000 1.0000
56.1800 177.0000 1.0000
56.2000 180.0000 1.0000
56.2200 175.0000 1.0000
56.2400 172.0000 1.0000
56.2600 179.0000 1.0000
56.2800 183.0000 1.0000
56.3000 192.0000 1.0000
56.3200 195.0000 1.0000
56.3400 195.0000 1.0000
56.3600 205.0000 1.0000
56.3800 200.0000 1.0000
56.4000 191.0000 1.0000
56.4200 199.0000 1.0000
56.4400 205.0000 1.0000
56.4600 208.0000 1.0000
56.4800 197.0000 1.0000
56.5000 181.0000 1.0000
56.5200 190.0000 1.0000
56.5400 192.0000 1.0000
56.5600 186.0000 1.0000
56.5800 172.0000 1.0000
56.6000 183.0000 1.0000
56.6200 203.0000 1.0000
56.6400 197.0000 1.0000
56.6600 185.0000 1.0000
56.6800 184.0000 1.0000
56.7000 178.0000 1.0000
56.7200 190.0000 1.0000
56.7400 200.0000 1.0000
56.7600 177.0000 1.0000
56.7800 163.0000 1.0000
56.8000 166.0000 1.0000
56.8200 159.0000 1.0000
56.8400 163.0000 1.0000
56.8600 172.0000 1.0000
56.8800 177.0000 1.0000
56.9000 161.0000 1.0000
56.9200 170.0000 1.0000
56.9400 183.0000 1.0000
56.9600 185.0000 1.0000
56.9800 196.0000 1.0000
57.0000 191.0000 1.0000
57.0200 185.0000 1.0000
57.0400 199.0000 1.0000
57.0600 224.0000 1.0000
57.0800 235.0000 1.0000
57.1000 237.0000 1.0000
57.1200 251.0000 1.0000
57.1400 272.0000 1.0000
57.1600 296.0000 1.0000
57.1800 339.0000 1.0000
57.2000 373.0000 1.0000
57.2200 408.0000 1.0000
57.2400 508.0000 1.0000
57.2600 672.0000 1.0000
57.2800 794.0000 1.0000
57.3000 980.0000 1.0000
57.3200 1154.0000 1.0000
57.3400 1300.0000 1.0000
57.3600 1369.0000 1.0000
57.3800 1386.0000 1.0000
57.4000 1288.0000 1.0000
57.4200 1142.0000 1.0000
57.4400 1092.0000 1.0000
57.4600 983.0000 1.0000
57.4800 911.0000 1.0000
57.5000 838.0000 1.0000
57.5200 804.0000 1.0000
57.5400 772.0000 1.0000
57.5600 694.0000 1.0000
57.5800 545.0000 1.0000
57.6000 446.0000 1.0000
57.6200 369.0000 1.0000
57.6400 300.0000 1.0000
57.6600 258.0000 1.0000
57.6800 239.0000 1.0000
57.7000 210.0000 1.0000
57.7200 200.0000 1.0000
57.7400 182.0000 1.0000
57.7600 162.0000 1.0000
57.7800 167.0000 1.0000
57.8000 157.0000 1.0000
57.8200 166.0000 1.0000
57.8400 149.0000 1.0000
57.8600 145.0000 1.0000
57.8800 152.0000 1.0000
57.9000 156.0000 1.0000
57.9200 144.0000 1.0000
57.9400 145.0000 1.0000
57.9600 139.0000 1.0000
57.9800 145.0000 1.0000
58.0000 139.0000 1.0000
58.0200 123.0000 1.0000
58.0400 136.0000 1.0000
58.0600 142.0000 1.0000
58.0800 136.0000 1.0000
58.1000 141.0000 1.0000
58.1200 125.0000 1.0000
58.1400 131.0000 1.0000
58.1600 136.0000 1.0000
58.1800 132.0000 1.0000
58.2000 119.0000 1.0000
58.2200 113.0000 1.0000
58.2400 121.0000 1.0000
58.2600 118.0000 1.0000
58.2800 130.0000 1.0000
58.3000 117.0000 1.0000
58.3200 123.0000 1.0000
58.3400 125.0000 1.0000
58.3600 122.0000 1.0000
58.3800 132.0000 1.0000
58.4000 117.0000 1.0000
58.4200 108.0000 1.0000
58.4400 126.0000 1.0000
58.4600 132.0000 1.0000
58.4800 127.0000 1.0000
58.5000 143.0000 1.0000
58.5200 152.0000 1.0000
58.5400 151.0000 1.0000
58.5600 143.0000 1.0000
58.5800 129.0000 1.0000
58.6000 142.0000 1.0000
58.6200 130.0000 1.0000
58.6400 124.0000 1.0000
58.6600 157.0000 1.0000
58.6800 152.0000 1.0000
58.7000 143.0000 1.0000
58.7200 150.0000 1.0000
58.7400 159.0000 1.0000
58.7600 142.0000 1.0000
58.7800 134.0000 1.0000
58.8000 133.0000 1.0000
58.8200 112.0000 1.0000
58.8400 104.0000 1.0000
58.8600 128.0000 1.0000
58.8800 121.0000 1.0000
58.9000 117.0000 1.0000
58.9200 133.0000 1.0000
58.9400 136.0000 1.0000
58.9600 140.0000 1.0000
58.9800 135.0000 1.0000
59.0000 143.0000 1.0000
59.0200 131.0000 1.0000
59.0400 134.0000 1.0000
59.0600 131.0000 1.0000
59.0800 146.0000 1.0000
59.1000 129.0000 1.0000
59.1200 145.0000 1.0000
59.1400 136.0000 1.0000
59.1600 160.0000 1.0000
59.1800 135.0000 1.0000
59.2000 134.0000 1.0000
59.2200 142.0000 1.0000
59.2400 166.0000 1.0000
59.2600 156.0000 1.0000
59.2800 144.0000 1.0000
59.3000 143.0000 1.0000
59.3200 152.0000 1.0000
59.3400 149.0000 1.0000
59.3600 161.0000 1.0000
59.3800 163.0000 1.0000
59.4000 160.0000 1.0000
59.4200 194.0000 1.0000
59.4400 194.0000 1.0000
59.4600 211.0000 1.0000
59.4800 196.0000 1.0000
59.5000 210.0000 1.0000
59.5200 229.0000 1.0000
59.5400 233.0000 1.0000
59.5600 242.0000 1.0000
59.5800 247.0000 1.0000
59.6000 266.0000 1.0000
59.6200 299.0000 1.0000
59.6400 315.0000 1.0000
59.6600 324.0000 1.0000
59.6800 365.0000 1.0000
59.7000 411.0000 1.0000
59.7200 461.0000 1.0000
59.7400 559.0000 1.0000
59.7600 641.0000 1.0000
59.7800 735.0000 1.0000
59.8000 784.0000 1.0000
59.8200 852.0000 1.0000
59.8400 790.0000 1.0000
59.8600 787.0000 1.0000
59.8800 761.0000 1.0000
59.9000 658.0000 1.0000
59.9200 621.0000 1.0000
59.9400 613.0000 1.0000
59.9600 545.0000 1.0000
59.9800 501.0000 1.0000
60.0000 484.0000 1.0000
60.0200 468.0000 1.0000
60.0400 471.0000 1.0000
60.0600 352.0000 1.0000
60.0800 316.0000 1.0000
60.1000 276.0000 1.0000
60.1200 251.0000 1.0000
60.1400 243.0000 1.0000
60.1600 238.0000 1.0000
60.1800 235.0000 1.0000
60.2000 202.0000 1.0000
60.2200 185.0000 1.0000
60.2400 171.0000 1.0000
60.2600 197.0000 1.0000
60.2800 181.0000 1.0000
60.3000 163.0000 1.0000
60.3200 193.0000 1.0000
60.3400 203.0000 1.0000
60.3600 148.0000 1.0000
60.3800 159.0000 1.0000
60.4000 160.0000 1.0000
60.4200 168.0000 1.0000
60.4400 141.0000 1.0000
60.4600 147.0000 1.0000
60.4800 173.0000 1.0000
60.5000 149.0000 1.0000
60.5200 171.0000 1.0000
60.5400 163.0000 1.0000
60.5600 180.0000 1.0000
60.5800 169.0000 1.0000
60.6000 156.0000 1.0000
60.6200 153.0000 1.0000
60.6400 179.0000 1.0000
60.6600 147.0000 1.0000
60.6800 158.0000 1.0000
60.7000 146.0000 1.0000
60.7200 143.0000 1.0000
60.7400 160.0000 1.0000
60.7600 143.0000 1.0000
60.7800 164.0000 1.0000
60.8000 158.0000 1.0000
60.8200 186.0000 1.0000
60.8400 154.0000 1.0000
60.8600 141.0000 1.0000
60.8800 160.0000 1.0000
60.9000 170.0000 1.0000
60.9200 184.0000 1.0000
60.9400 178.0000 1.0000
60.9600 217.0000 1.0000
60.9800 194.0000 1.0000
61.0000 200.0000 1.0000
61.0200 221.0000 1.0000
61.0400 195.0000 1.0000
61.0600 233.0000 1.0000
61.0800 249.0000 1.0000
61.1000 218.0000 1.0000
61.1200 247.0000 1.0000
61.1400 259.0000 1.0000
61.1600 277.0000 1.0000
61.1800 308.0000 1.0000
61.2000 254.0000 1.0000
61.2200 269.0000 1.0000
61.2400 263.0000 1.0000
61.2600 267.0000 1.0000
61.2800 232.0000 1.0000
61.3000 258.0000 1.0000
61.3200 221.0000 1.0000
61.3400 241.0000 1.0000
61.3600 213.0000 1.0000
61.3800 227.0000 1.0000
61.4000 215.0000 1.0000
61.4200 234.0000 1.0000
61.4400 213.0000 1.0000
61.4600 228.0000 1.0000
61.4800 247.0000 1.0000
61.5000 239.0000 1.0000
61.5200 230.0000 1.0000
61.5400 229.0000 1.0000
61.5600 256.0000 1.0000
61.5800 239.0000 1.0000
61.6000 233.0000 1.0000
61.6200 247.0000 1.0000
61.6400 263.0000 1.0000
61.6600 258.0000 1.0000
61.6800 240.0000 1.0000
61.7000 250.0000 1.0000
61.7200 263.0000 1.0000
61.7400 264.0000 1.0000
61.7600 253.0000 1.0000
61.7800 245.0000 1.0000
61.8000 269.0000 1.0000
61.8200 232.0000 1.0000
61.8400 218.0000 1.0000
61.8600 260.0000 1.0000
61.8800 228.0000 1.0000
61.9000 253.0000 1.0000
61.9200 235.0000 1.0000
61.9400 247.0000 1.0000
61.9600 230.0000 1.0000
61.9800 252.0000 1.0000
62.0000 233.0000 1.0000
62.0200 212.0000 1.0000
62.0400 208.0000 1.0000
62.0600 212.0000 1.0000
62.0800 197.0000 1.0000
62.1000 191.0000 1.0000
62.1200 185.0000 1.0000
62.1400 213.0000 1.0000
62.1600 193.0000 1.0000
62.1800 207.0000 1.0000
62.2000 162.0000 1.0000
62.2200 187.0000 1.0000
62.2400 164.0000 1.0000
62.2600 195.0000 1.0000
62.2800 158.0000 1.0000
62.3000 180.0000 1.0000
62.3200 186.0000 1.0000
62.3400 159.0000 1.0000
62.3600 161.0000 1.0000
62.3800 156.0000 1.0000
62.4000 171.0000 1.0000
62.4200 174.0000 1.0000
62.4400 175.0000 1.0000
62.4600 171.0000 1.0000
62.4800 176.0000 1.0000
62.5000 170.0000 1.0000
62.5200 176.0000 1.0000
62.5400 166.0000 1.0000
62.5600 162.0000 1.0000
62.5800 151.0000 1.0000
62.6000 177.0000 1.0000
62.6200 138.0000 1.0000
62.6400 160.0000 1.0000
62.6600 150.0000 1.0000
62.6800 145.0000 1.0000
62.7000 151.0000 1.0000
62.7200 136.0000 1.0000
62.7400 149.0000 1.0000
62.7600 139.0000 1.0000
62.7800 145.0000 1.0000
62.8000 149.0000 1.0000
62.8200 162.0000 1.0000
62.8400 154.0000 1.0000
62.8600 137.0000 1.0000
62.8800 132.0000 1.0000
62.9000 115.0000 1.0000
62.9200 131.0000 1.0000
62.9400 134.0000 1.0000
62.9600 115.0000 1.0000
62.9800 128.0000 1.0000
63.0000 154.0000 1.0000
63.0200 140.0000 1.0000
63.0400 141.0000 1.0000
63.0600 124.0000 1.0000
63.0800 135.0000 1.0000
63.1000 147.0000 1.0000
63.1200 136.0000 1.0000
63.1400 111.0000 1.0000
63.1600 133.0000 1.0000
63.1800 136.0000 1.0000
63.2000 150.0000 1.0000
63.2200 150.0000 1.0000
63.2400 134.0000 1.0000
63.2600 127.0000 1.0000
63.2800 143.0000 1.0000
63.3000 126.0000 1.0000
63.3200 142.0000 1.0000
63.3400 135.0000 1.0000
63.3600 120.0000 1.0000
63.3800 132.0000 1.0000
63.4000 137.0000 1.0000
63.4200 128.0000 1.0000
63.4400 119.0000 1.0000
63.4600 135.0000 1.0000
63.4800 131.0000 1.0000
63.5000 131.0000 1.0000
63.5200 128.0000 1.0000
63.5400 143.0000 1.0000
63.5600 143.0000 1.0000
63.5800 140.0000 1.0000
63.6000 138.0000 1.0000
63.6200 151.0000 1.0000
63.6400 148.0000 1.0000
63.6600 155.0000 1.0000
63.6800 142.0000 1.0000
63.7000 153.0000 1.0000
63.7200 169.0000 1.0000
63.7400 181.0000 1.0000
63.7600 174.0000 1.0000
63.7800 176.0000 1.0000
63.8000 204.0000 1.0000
63.8200 220.0000 1.0000
63.8400 241.0000 1.0000
63.8600 258.0000 1.0000
63.8800 235.0000 1.0000
63.9000 255.0000 1.0000
63.9200 268.0000 1.0000
63.9400 252.0000 1.0000
63.9600 223.0000 1.0000
63.9800 203.0000 1.0000
64.0000 195.0000 1.0000
64.0200 185.0000 1.0000
64.0400 198.0000 1.0000
64.0600 182.0000 1.0000
64.0800 188.0000 1.0000
64.1000 189.0000 1.0000
64.1200 179.0000 1.0000
64.1400 162.0000 1.0000
64.1600 163.0000 1.0000
64.1800 149.0000 1.0000
64.2000 147.0000 1.0000
64.2200 147.0000 1.0000
64.2400 124.0000 1.0000
64.2600 127.0000 1.0000
64.2800 133.0000 1.0000
64.3000 124.0000 1.0000
64.3200 146.0000 1.0000
64.3400 136.0000 1.0000
64.3600 117.0000 1.0000
64.3800 125.0000 1.0000
64.4000 137.0000 1.0000
64.4200 121.0000 1.0000
64.4400 128.0000 1.0000
64.4600 121.0000 1.0000
64.4800 125.0000 1.0000
64.5000 122.0000 1.0000
64.5200 134.0000 1.0000
64.5400 121.0000 1.0000
64.5600 126.0000 1.0000
64.5800 115.0000 1.0000
64.6000 114.0000 1.0000
64.6200 139.0000 1.0000
64.6400 113.0000 1.0000
64.6600 124.0000 1.0000
64.6800 130.0000 1.0000
64.7000 128.0000 1.0000
64.7200 114.0000 1.0000
64.7400 128.0000 1.0000
64.7600 127.0000 1.0000
64.7800 145.0000 1.0000
64.8000 141.0000 1.0000
64.8200 135.0000 1.0000
64.8400 126.0000 1.0000
64.8600 116.0000 1.0000
64.8800 109.0000 1.0000
64.9000 126.0000 1.0000
64.9200 140.0000 1.0000
64.9400 132.0000 1.0000
64.9600 128.0000 1.0000
64.9800 128.0000 1.0000
65.0000 128.0000 1.0000
*RAS_INT_END
*RAS_DATA_END
