*RAS_DATA_START
*RAS_HEADER_START
*CORR_POS_DB_NAME "Angle Correction ASC6 SC WITH Mono_04082019"
*CORR_POS_GONIO_RADIUS ""
*CORR_POS_NODE_INDEX01 ""
*CORR_POS_NODE_INDEX02 ""
*CORR_POS_NODE_INDEX03 ""
*CORR_POS_NODE_INDEX04 ""
*CORR_POS_NODE_INDEX05 ""
*CORR_POS_NODE_INDEX06 ""
*CORR_POS_NODE_INDEX07 ""
*CORR_POS_NODE_INDEX08 ""
*CORR_POS_NODE_INDEX09 ""
*CORR_POS_NODE_INDEX10 ""
*CORR_POS_NODE_INDEX11 ""
*CORR_POS_NODE_LABEL01 "Si(111)"
*CORR_POS_NODE_LABEL02 "Si(220)"
*CORR_POS_NODE_LABEL03 "Si(311)"
*CORR_POS_NODE_LABEL04 "Si(400)"
*CORR_POS_NODE_LABEL05 "Si(331)"
*CORR_POS_NODE_LABEL06 "Si(422)"
*CORR_POS_NODE_LABEL07 "Si(511)"
*CORR_POS_NODE_LABEL08 "Si(440)"
*CORR_POS_NODE_LABEL09 "Si(531)"
*CORR_POS_NODE_LABEL10 "Si(620)"
*CORR_POS_NODE_LABEL11 "Si(533)"
*CORR_POS_NODE_POS_CALC01 "28.377"
*CORR_POS_NODE_POS_CALC02 "47.2506"
*CORR_POS_NODE_POS_CALC03 "56.0725"
*CORR_POS_NODE_POS_CALC04 "69.0822"
*CORR_POS_NODE_POS_CALC05 "76.3294"
*CORR_POS_NODE_POS_CALC06 "87.9853"
*CORR_POS_NODE_POS_CALC07 "94.9091"
*CORR_POS_NODE_POS_CALC08 "106.668"
*CORR_POS_NODE_POS_CALC09 "114.054"
*CORR_POS_NODE_POS_CALC10 "127.511"
*CORR_POS_NODE_POS_CALC11 "136.864"
*CORR_POS_NODE_POS_MEAS01 "28.5058"
*CORR_POS_NODE_POS_MEAS02 "47.345"
*CORR_POS_NODE_POS_MEAS03 "56.1421"
*CORR_POS_NODE_POS_MEAS04 "69.1304"
*CORR_POS_NODE_POS_MEAS05 "76.366"
*CORR_POS_NODE_POS_MEAS06 "88.0213"
*CORR_POS_NODE_POS_MEAS07 "94.9406"
*CORR_POS_NODE_POS_MEAS08 "106.689"
*CORR_POS_NODE_POS_MEAS09 "114.065"
*CORR_POS_NODE_POS_MEAS10 "127.518"
*CORR_POS_NODE_POS_MEAS11 "136.869"
*CORR_POS_OPT_ATTR "集中法"
*CORR_POS_PARAM_MU ""
*CORR_POS_PARAM_PL ""
*CORR_POS_SEMODEL_TYPE "0"
*CORR_POS_STANDARD_TYPE ""
*CORR_POS_VALUE_ANALYZER "None"
*CORR_POS_VALUE_CMONO "None"
*CORR_POS_VALUE_IMONO "None"
*CORR_POS_VALUE_IS "1.250deg"
*CORR_POS_VALUE_ISL "10.0mm"
*CORR_POS_VALUE_ISOLLER "5.0deg"
*CORR_POS_VALUE_RS1 "1.250deg"
*CORR_POS_VALUE_RS2 "0.3mm"
*CORR_POS_VALUE_RSOLLER "5.0deg"
*CORR_POS_XG_FOCUS_L ""
*CORR_POS_XG_WAVE_TYPE ""
*CORR_POS_XG_WAVE_VALUE ""
*DISP_FMT_X "%.2f"
*DISP_FMT_Y "%.0f"
*DISP_FULLSCALE "4397.4000000000"
*DISP_LINE_COLOR "255.0000000000"
*DISP_LINE_STYLE "0.0000000000"
*DISP_LINE_WIDTH "0.2500000000"
*DISP_NOTE "Collected Data-35"
*DISP_OFFSET_Y "0.0000000000"
*DISP_PEAKSEARCH_UNIT_Y "CPS"
*DISP_RANGE_BOTTOM "0.0000000000"
*DISP_RANGE_LEFT "5.0000000000"
*DISP_RANGE_LOGCUTOFF "0.0100000000"
*DISP_RANGE_RIGHT "65.0000000000"
*DISP_RANGE_TOP "4397.4000000000"
*DISP_SCALE_MODE_Y "0.0000000000"
*DISP_TAB_NAME "Theta/2-Theta"
*DISP_TITLE_Y "Intensity"
*DISP_UNIT_Y "CPS"
*DISP_WINDOW_NAME "MSG_MACROENGINE"
*FILE_COMMENT " "
*FILE_MD5 ""
*FILE_MEMO " "
*FILE_OPERATOR "Administrator"
*FILE_PART_ID "MEAS_PBEA_00223"
*FILE_SAMPLE " "
*FILE_TYPE "RAS_RAW"
*FILE_USERGROUP "System Manager"
*FILE_VERSION "1.0000000000"
*HW_ATTACHMENT_ID "ATT1031"
*HW_ATTACHMENT_NAME "6サンプルチェンジャ|ASC-6"
*HW_COUNTER_ID-0 "CUT0021"
*HW_COUNTER_ID-1 "CUT0020"
*HW_COUNTER_ID-2 "CUT0020"
*HW_COUNTER_ID-3 "CMC0021"
*HW_COUNTER_NAME-0 "SC-70|SC-70"
*HW_COUNTER_NAME-1 "None|None"
*HW_COUNTER_NAME-2 "None|None"
*HW_COUNTER_NAME-3 "検出器モノクロメータ|Detector monochromator"
*HW_COUNTER_SELECT_NAME "SC-70|SC-70"
*HW_ECP_HV "671.5000000000"
*HW_ECP_HV_UNIT "V"
*HW_GONIOMETER_ID "GON0070"
*HW_GONIOMETER_NAME "MiniFlex 300/600|MiniFlex 300/600"
*HW_GONIOMETER_RADIUS-0 "79.0"
*HW_GONIOMETER_RADIUS-1 "91.5"
*HW_GONIOMETER_RADIUS-2 "150.0"
*HW_GONIOMETER_RADIUS-3 "0"
*HW_GONIOMETER_RADIUS-4 "103.4"
*HW_GONIOMETER_RADIUS-5 "150.0"
*HW_GONIOMETER_RADIUS-6 "46.6"
*HW_GONIOMETER_RADIUS-7 "160.0"
*HW_I_OPT_ID-0 "ISL0021"
*HW_I_OPT_ID-1 "ISO0021"
*HW_I_OPT_NAME-0 "発散スリット|Divergence slit"
*HW_I_OPT_NAME-1 "入射平行スリット|Incident parallel slit"
*HW_R_ATTENUATER_AUTOMODE "0"
*HW_R_OPT_ID-0 "RSS0021"
*HW_R_OPT_ID-1 "RSO0021"
*HW_R_OPT_ID-2 "RRS0021"
*HW_R_OPT_NAME-0 "散乱スリット|Scattering slit"
*HW_R_OPT_NAME-1 "受光平行スリット|Receiving soller slit"
*HW_R_OPT_NAME-2 "受光スリット|Receiving slit"
*HW_SAMPLE_HOLDER_ID "SMP0000"
*HW_SAMPLE_HOLDER_NAME "無し|None"
*HW_XG_CURRENT_MAX "15"
*HW_XG_CURRENT_MIN "2"
*HW_XG_CURRENT_RESOLUTION "1"
*HW_XG_CURRENT_UNIT "mA"
*HW_XG_FOCUS "1mm x 10mm"
*HW_XG_FOCUS_TYPE "Normal"
*HW_XG_ID "1060"
*HW_XG_NAME "300W/600W 封入管-B|300W/600W Sealed tube-B"
*HW_XG_TARGET_ATOMIC_NUMBER "29.0000000000"
*HW_XG_TARGET_NAME "Cu"
*HW_XG_TYPE "Hermetic"
*HW_XG_VOLTAGE_MAX "40"
*HW_XG_VOLTAGE_MIN "20"
*HW_XG_VOLTAGE_RESOLUTION "1"
*HW_XG_VOLTAGE_UNIT "kV"
*HW_XG_WATT_MAX "0.600"
*HW_XG_WATT_UNIT "kW"
*HW_XG_WAVE_LENGTH_ALPHA1 "1.540593"
*HW_XG_WAVE_LENGTH_ALPHA2 "1.544414"
*HW_XG_WAVE_LENGTH_BETA "1.392250"
*MEAS_COND_AXIS_NAME-0 "Theta/2-Theta"
*MEAS_COND_AXIS_NAME-1 "Spin"
*MEAS_COND_AXIS_NAME-2 "Change"
*MEAS_COND_AXIS_NAME-3 "Soller(inc.)"
*MEAS_COND_AXIS_NAME-4 "IHS"
*MEAS_COND_AXIS_NAME-5 "DS"
*MEAS_COND_AXIS_NAME-6 "SS"
*MEAS_COND_AXIS_NAME-7 "Soller(rec.)"
*MEAS_COND_AXIS_NAME-8 "RS"
*MEAS_COND_AXIS_NAME-9 "Filter"
*MEAS_COND_AXIS_NAME-10 "Monochromator"
*MEAS_COND_AXIS_NAME-11 "HV"
*MEAS_COND_AXIS_NAME-12 "PHA"
*MEAS_COND_AXIS_NAME_INTERNAL-0 "TwoThetaTheta"
*MEAS_COND_AXIS_NAME_INTERNAL-1 "Spin"
*MEAS_COND_AXIS_NAME_INTERNAL-2 "Change"
*MEAS_COND_AXIS_NAME_INTERNAL-3 "IncidentSollerSlit"
*MEAS_COND_AXIS_NAME_INTERNAL-4 "IncidentAxdSlit"
*MEAS_COND_AXIS_NAME_INTERNAL-5 "IncidentSlitBox"
*MEAS_COND_AXIS_NAME_INTERNAL-6 "ReceivingSlitBox1"
*MEAS_COND_AXIS_NAME_INTERNAL-7 "ReceivingSollerSlit"
*MEAS_COND_AXIS_NAME_INTERNAL-8 "ReceivingSlitBox2"
*MEAS_COND_AXIS_NAME_INTERNAL-9 "Filter"
*MEAS_COND_AXIS_NAME_INTERNAL-10 "CounterMonochromator"
*MEAS_COND_AXIS_NAME_INTERNAL-11 "HV"
*MEAS_COND_AXIS_NAME_INTERNAL-12 "PHA"
*MEAS_COND_AXIS_NAME_MAGICNO-0 "268632064.0000000000"
*MEAS_COND_AXIS_NAME_MAGICNO-1 "16842752.0000000000"
*MEAS_COND_AXIS_NAME_MAGICNO-2 "16842752.0000000000"
*MEAS_COND_AXIS_NAME_MAGICNO-3 "20971521.0000000000"
*MEAS_COND_AXIS_NAME_MAGICNO-4 "22020097.0000000000"
*MEAS_COND_AXIS_NAME_MAGICNO-5 "22020097.0000000000"
*MEAS_COND_AXIS_NAME_MAGICNO-6 "23068673.0000000000"
*MEAS_COND_AXIS_NAME_MAGICNO-7 "20971521.0000000000"
*MEAS_COND_AXIS_NAME_MAGICNO-8 "23068673.0000000000"
*MEAS_COND_AXIS_NAME_MAGICNO-9 "20971521.0000000000"
*MEAS_COND_AXIS_NAME_MAGICNO-10 "20971521.0000000000"
*MEAS_COND_AXIS_NAME_MAGICNO-11 "0.0000000000"
*MEAS_COND_AXIS_NAME_MAGICNO-12 "0.0000000000"
*MEAS_COND_AXIS_OFFSET-0 "0.0000000000"
*MEAS_COND_AXIS_OFFSET-1 "-"
*MEAS_COND_AXIS_OFFSET-2 "-"
*MEAS_COND_AXIS_OFFSET-3 "-"
*MEAS_COND_AXIS_OFFSET-4 "-"
*MEAS_COND_AXIS_OFFSET-5 "-"
*MEAS_COND_AXIS_OFFSET-6 "-"
*MEAS_COND_AXIS_OFFSET-7 "-"
*MEAS_COND_AXIS_OFFSET-8 "-"
*MEAS_COND_AXIS_OFFSET-9 "-"
*MEAS_COND_AXIS_OFFSET-10 "-"
*MEAS_COND_AXIS_OFFSET-11 "-"
*MEAS_COND_AXIS_OFFSET-12 "-"
*MEAS_COND_AXIS_POSITION-0 "65.0000000000"
*MEAS_COND_AXIS_POSITION-1 "0.0000000000"
*MEAS_COND_AXIS_POSITION-2 "3.0000000000"
*MEAS_COND_AXIS_POSITION-3 "5.0deg"
*MEAS_COND_AXIS_POSITION-4 "10.0mm"
*MEAS_COND_AXIS_POSITION-5 "1.250deg"
*MEAS_COND_AXIS_POSITION-6 "1.250deg"
*MEAS_COND_AXIS_POSITION-7 "5.0deg"
*MEAS_COND_AXIS_POSITION-8 "0.3mm"
*MEAS_COND_AXIS_POSITION-9 "None"
*MEAS_COND_AXIS_POSITION-10 "Bent"
*MEAS_COND_AXIS_POSITION-11 "671.5000000000"
*MEAS_COND_AXIS_POSITION-12 "551.2500000000"
*MEAS_COND_AXIS_UNIT-0 "deg"
*MEAS_COND_AXIS_UNIT-1 ""
*MEAS_COND_AXIS_UNIT-2 ""
*MEAS_COND_AXIS_UNIT-3 ""
*MEAS_COND_AXIS_UNIT-4 ""
*MEAS_COND_AXIS_UNIT-5 ""
*MEAS_COND_AXIS_UNIT-6 ""
*MEAS_COND_AXIS_UNIT-7 ""
*MEAS_COND_AXIS_UNIT-8 ""
*MEAS_COND_AXIS_UNIT-9 ""
*MEAS_COND_AXIS_UNIT-10 ""
*MEAS_COND_AXIS_UNIT-11 "V"
*MEAS_COND_AXIS_UNIT-12 "mV"
*MEAS_COND_CORRECTION_SLIT_COUNTERMONO "None"
*MEAS_COND_CORRECTION_SLIT_DS "1.250deg"
*MEAS_COND_CORRECTION_SLIT_FILTER "None"
*MEAS_COND_CORRECTION_SLIT_IHS "10.0mm"
*MEAS_COND_CORRECTION_SLIT_RS "0.3mm"
*MEAS_COND_CORRECTION_SLIT_SOLLER_INC "5.0deg"
*MEAS_COND_CORRECTION_SLIT_SOLLER_REC "5.0deg"
*MEAS_COND_CORRECTION_SLIT_SS "1.250deg"
*MEAS_COND_COUNTER_CNTLOSS_CORR "0.0000000000"
*MEAS_COND_COUNTER_PHABASE "551.2500000000"
*MEAS_COND_COUNTER_PHAWINDOW "926.2500000000"
*MEAS_COND_COUNTER_PHA_UNIT "mV"
*MEAS_COND_COUNTER_TAUDIFF "0.2500000000"
*MEAS_COND_COUNTER_TAUINT "0.7500000000"
*MEAS_COND_IRRADIATION_MODE "OFF"
*MEAS_COND_IRRADIATION_WIDTH ""
*MEAS_COND_OPT_ATTR " "
*MEAS_COND_OPT_NAME ""
*MEAS_COND_UNSYMMETRIC_MODE "OFF"
*MEAS_COND_XG_CURRENT "15.0000000000"
*MEAS_COND_XG_VOLTAGE "40.0000000000"
*MEAS_COND_XG_WAVE_TYPE "Ka"
*MEAS_DATA_COUNT "3001.0000000000"
*MEAS_SCAN_AXIS_X "Theta/2-Theta"
*MEAS_SCAN_AXIS_X_INTERNAL "TwoThetaTheta"
*MEAS_SCAN_END_TIME "05/09/25 21:46:02"
*MEAS_SCAN_MODE "STEP"
*MEAS_SCAN_MONITOR "0"
*MEAS_SCAN_RESOLUTION_X "0.0025"
*MEAS_SCAN_SPEED "2.00"
*MEAS_SCAN_SPEED_UNIT "sec."
*MEAS_SCAN_SPEED_USER "2.00"
*MEAS_SCAN_START "5.0000000000"
*MEAS_SCAN_START_TIME "05/09/25 20:00:46"
*MEAS_SCAN_STEP "0.0200000000"
*MEAS_SCAN_STOP "65.0000000000"
*MEAS_SCAN_UNIT_X "deg"
*MEAS_SCAN_UNIT_Y "counts"
*SLIT_SYSTEM "0"
*RAS_HEADER_END
*RAS_INT_START
5.0000 1105.0000 1.0000
5.0200 1135.0000 1.0000
5.0400 1078.0000 1.0000
5.0600 1166.0000 1.0000
5.0800 1191.0000 1.0000
5.1000 1135.0000 1.0000
5.1200 1028.0000 1.0000
5.1400 1173.0000 1.0000
5.1600 1053.0000 1.0000
5.1800 1027.0000 1.0000
5.2000 1020.0000 1.0000
5.2200 1009.0000 1.0000
5.2400 1005.0000 1.0000
5.2600 987.0000 1.0000
5.2800 969.0000 1.0000
5.3000 965.0000 1.0000
5.3200 1057.0000 1.0000
5.3400 1067.0000 1.0000
5.3600 962.0000 1.0000
5.3800 1007.0000 1.0000
5.4000 1017.0000 1.0000
5.4200 1054.0000 1.0000
5.4400 985.0000 1.0000
5.4600 1019.0000 1.0000
5.4800 1002.0000 1.0000
5.5000 873.0000 1.0000
5.5200 890.0000 1.0000
5.5400 998.0000 1.0000
5.5600 897.0000 1.0000
5.5800 1024.0000 1.0000
5.6000 954.0000 1.0000
5.6200 934.0000 1.0000
5.6400 897.0000 1.0000
5.6600 874.0000 1.0000
5.6800 934.0000 1.0000
5.7000 930.0000 1.0000
5.7200 895.0000 1.0000
5.7400 895.0000 1.0000
5.7600 898.0000 1.0000
5.7800 931.0000 1.0000
5.8000 956.0000 1.0000
5.8200 911.0000 1.0000
5.8400 975.0000 1.0000
5.8600 857.0000 1.0000
5.8800 912.0000 1.0000
5.9000 908.0000 1.0000
5.9200 909.0000 1.0000
5.9400 981.0000 1.0000
5.9600 996.0000 1.0000
5.9800 1006.0000 1.0000
6.0000 918.0000 1.0000
6.0200 921.0000 1.0000
6.0400 912.0000 1.0000
6.0600 977.0000 1.0000
6.0800 943.0000 1.0000
6.1000 946.0000 1.0000
6.1200 980.0000 1.0000
6.1400 937.0000 1.0000
6.1600 870.0000 1.0000
6.1800 901.0000 1.0000
6.2000 928.0000 1.0000
6.2200 838.0000 1.0000
6.2400 721.0000 1.0000
6.2600 782.0000 1.0000
6.2800 824.0000 1.0000
6.3000 792.0000 1.0000
6.3200 774.0000 1.0000
6.3400 795.0000 1.0000
6.3600 766.0000 1.0000
6.3800 746.0000 1.0000
6.4000 785.0000 1.0000
6.4200 785.0000 1.0000
6.4400 757.0000 1.0000
6.4600 769.0000 1.0000
6.4800 778.0000 1.0000
6.5000 690.0000 1.0000
6.5200 679.0000 1.0000
6.5400 671.0000 1.0000
6.5600 706.0000 1.0000
6.5800 715.0000 1.0000
6.6000 676.0000 1.0000
6.6200 671.0000 1.0000
6.6400 669.0000 1.0000
6.6600 681.0000 1.0000
6.6800 724.0000 1.0000
6.7000 716.0000 1.0000
6.7200 667.0000 1.0000
6.7400 673.0000 1.0000
6.7600 674.0000 1.0000
6.7800 675.0000 1.0000
6.8000 725.0000 1.0000
6.8200 690.0000 1.0000
6.8400 636.0000 1.0000
6.8600 629.0000 1.0000
6.8800 646.0000 1.0000
6.9000 636.0000 1.0000
6.9200 640.0000 1.0000
6.9400 641.0000 1.0000
6.9600 649.0000 1.0000
6.9800 664.0000 1.0000
7.0000 670.0000 1.0000
7.0200 655.0000 1.0000
7.0400 618.0000 1.0000
7.0600 622.0000 1.0000
7.0800 644.0000 1.0000
7.1000 687.0000 1.0000
7.1200 690.0000 1.0000
7.1400 630.0000 1.0000
7.1600 574.0000 1.0000
7.1800 528.0000 1.0000
7.2000 545.0000 1.0000
7.2200 598.0000 1.0000
7.2400 614.0000 1.0000
7.2600 602.0000 1.0000
7.2800 557.0000 1.0000
7.3000 566.0000 1.0000
7.3200 600.0000 1.0000
7.3400 596.0000 1.0000
7.3600 563.0000 1.0000
7.3800 552.0000 1.0000
7.4000 639.0000 1.0000
7.4200 665.0000 1.0000
7.4400 638.0000 1.0000
7.4600 624.0000 1.0000
7.4800 594.0000 1.0000
7.5000 575.0000 1.0000
7.5200 604.0000 1.0000
7.5400 597.0000 1.0000
7.5600 561.0000 1.0000
7.5800 582.0000 1.0000
7.6000 592.0000 1.0000
7.6200 564.0000 1.0000
7.6400 543.0000 1.0000
7.6600 568.0000 1.0000
7.6800 550.0000 1.0000
7.7000 553.0000 1.0000
7.7200 561.0000 1.0000
7.7400 596.0000 1.0000
7.7600 590.0000 1.0000
7.7800 535.0000 1.0000
7.8000 563.0000 1.0000
7.8200 564.0000 1.0000
7.8400 550.0000 1.0000
7.8600 594.0000 1.0000
7.8800 569.0000 1.0000
7.9000 542.0000 1.0000
7.9200 547.0000 1.0000
7.9400 555.0000 1.0000
7.9600 545.0000 1.0000
7.9800 531.0000 1.0000
8.0000 603.0000 1.0000
8.0200 582.0000 1.0000
8.0400 597.0000 1.0000
8.0600 624.0000 1.0000
8.0800 608.0000 1.0000
8.1000 637.0000 1.0000
8.1200 619.0000 1.0000
8.1400 558.0000 1.0000
8.1600 579.0000 1.0000
8.1800 637.0000 1.0000
8.2000 599.0000 1.0000
8.2200 605.0000 1.0000
8.2400 644.0000 1.0000
8.2600 694.0000 1.0000
8.2800 697.0000 1.0000
8.3000 671.0000 1.0000
8.3200 649.0000 1.0000
8.3400 699.0000 1.0000
8.3600 762.0000 1.0000
8.3800 684.0000 1.0000
8.4000 725.0000 1.0000
8.4200 786.0000 1.0000
8.4400 733.0000 1.0000
8.4600 724.0000 1.0000
8.4800 749.0000 1.0000
8.5000 699.0000 1.0000
8.5200 776.0000 1.0000
8.5400 807.0000 1.0000
8.5600 795.0000 1.0000
8.5800 841.0000 1.0000
8.6000 841.0000 1.0000
8.6200 806.0000 1.0000
8.6400 900.0000 1.0000
8.6600 878.0000 1.0000
8.6800 868.0000 1.0000
8.7000 900.0000 1.0000
8.7200 883.0000 1.0000
8.7400 947.0000 1.0000
8.7600 866.0000 1.0000
8.7800 843.0000 1.0000
8.8000 760.0000 1.0000
8.8200 674.0000 1.0000
8.8400 640.0000 1.0000
8.8600 584.0000 1.0000
8.8800 495.0000 1.0000
8.9000 510.0000 1.0000
8.9200 509.0000 1.0000
8.9400 502.0000 1.0000
8.9600 482.0000 1.0000
8.9800 495.0000 1.0000
9.0000 451.0000 1.0000
9.0200 454.0000 1.0000
9.0400 467.0000 1.0000
9.0600 448.0000 1.0000
9.0800 428.0000 1.0000
9.1000 388.0000 1.0000
9.1200 438.0000 1.0000
9.1400 444.0000 1.0000
9.1600 451.0000 1.0000
9.1800 452.0000 1.0000
9.2000 455.0000 1.0000
9.2200 501.0000 1.0000
9.2400 445.0000 1.0000
9.2600 496.0000 1.0000
9.2800 473.0000 1.0000
9.3000 454.0000 1.0000
9.3200 387.0000 1.0000
9.3400 368.0000 1.0000
9.3600 347.0000 1.0000
9.3800 309.0000 1.0000
9.4000 328.0000 1.0000
9.4200 345.0000 1.0000
9.4400 344.0000 1.0000
9.4600 302.0000 1.0000
9.4800 351.0000 1.0000
9.5000 311.0000 1.0000
9.5200 332.0000 1.0000
9.5400 315.0000 1.0000
9.5600 362.0000 1.0000
9.5800 337.0000 1.0000
9.6000 278.0000 1.0000
9.6200 278.0000 1.0000
9.6400 322.0000 1.0000
9.6600 323.0000 1.0000
9.6800 263.0000 1.0000
9.7000 301.0000 1.0000
9.7200 277.0000 1.0000
9.7400 313.0000 1.0000
9.7600 287.0000 1.0000
9.7800 254.0000 1.0000
9.8000 257.0000 1.0000
9.8200 247.0000 1.0000
9.8400 291.0000 1.0000
9.8600 260.0000 1.0000
9.8800 274.0000 1.0000
9.9000 281.0000 1.0000
9.9200 269.0000 1.0000
9.9400 269.0000 1.0000
9.9600 274.0000 1.0000
9.9800 275.0000 1.0000
10.0000 254.0000 1.0000
10.0200 297.0000 1.0000
10.0400 268.0000 1.0000
10.0600 240.0000 1.0000
10.0800 263.0000 1.0000
10.1000 250.0000 1.0000
10.1200 262.0000 1.0000
10.1400 254.0000 1.0000
10.1600 276.0000 1.0000
10.1800 285.0000 1.0000
10.2000 253.0000 1.0000
10.2200 331.0000 1.0000
10.2400 290.0000 1.0000
10.2600 268.0000 1.0000
10.2800 307.0000 1.0000
10.3000 263.0000 1.0000
10.3200 288.0000 1.0000
10.3400 264.0000 1.0000
10.3600 267.0000 1.0000
10.3800 254.0000 1.0000
10.4000 259.0000 1.0000
10.4200 237.0000 1.0000
10.4400 252.0000 1.0000
10.4600 261.0000 1.0000
10.4800 203.0000 1.0000
10.5000 226.0000 1.0000
10.5200 210.0000 1.0000
10.5400 223.0000 1.0000
10.5600 195.0000 1.0000
10.5800 267.0000 1.0000
10.6000 208.0000 1.0000
10.6200 236.0000 1.0000
10.6400 235.0000 1.0000
10.6600 200.0000 1.0000
10.6800 268.0000 1.0000
10.7000 213.0000 1.0000
10.7200 228.0000 1.0000
10.7400 195.0000 1.0000
10.7600 236.0000 1.0000
10.7800 232.0000 1.0000
10.8000 251.0000 1.0000
10.8200 221.0000 1.0000
10.8400 236.0000 1.0000
10.8600 241.0000 1.0000
10.8800 242.0000 1.0000
10.9000 223.0000 1.0000
10.9200 216.0000 1.0000
10.9400 224.0000 1.0000
10.9600 230.0000 1.0000
10.9800 211.0000 1.0000
11.0000 226.0000 1.0000
11.0200 212.0000 1.0000
11.0400 210.0000 1.0000
11.0600 223.0000 1.0000
11.0800 213.0000 1.0000
11.1000 197.0000 1.0000
11.1200 227.0000 1.0000
11.1400 218.0000 1.0000
11.1600 221.0000 1.0000
11.1800 256.0000 1.0000
11.2000 237.0000 1.0000
11.2200 210.0000 1.0000
11.2400 211.0000 1.0000
11.2600 232.0000 1.0000
11.2800 222.0000 1.0000
11.3000 243.0000 1.0000
11.3200 236.0000 1.0000
11.3400 229.0000 1.0000
11.3600 225.0000 1.0000
11.3800 210.0000 1.0000
11.4000 208.0000 1.0000
11.4200 223.0000 1.0000
11.4400 217.0000 1.0000
11.4600 206.0000 1.0000
11.4800 225.0000 1.0000
11.5000 221.0000 1.0000
11.5200 185.0000 1.0000
11.5400 212.0000 1.0000
11.5600 243.0000 1.0000
11.5800 215.0000 1.0000
11.6000 192.0000 1.0000
11.6200 251.0000 1.0000
11.6400 233.0000 1.0000
11.6600 199.0000 1.0000
11.6800 221.0000 1.0000
11.7000 217.0000 1.0000
11.7200 190.0000 1.0000
11.7400 239.0000 1.0000
11.7600 219.0000 1.0000
11.7800 211.0000 1.0000
11.8000 235.0000 1.0000
11.8200 214.0000 1.0000
11.8400 218.0000 1.0000
11.8600 214.0000 1.0000
11.8800 209.0000 1.0000
11.9000 255.0000 1.0000
11.9200 215.0000 1.0000
11.9400 252.0000 1.0000
11.9600 239.0000 1.0000
11.9800 229.0000 1.0000
12.0000 254.0000 1.0000
12.0200 246.0000 1.0000
12.0400 249.0000 1.0000
12.0600 278.0000 1.0000
12.0800 257.0000 1.0000
12.1000 255.0000 1.0000
12.1200 265.0000 1.0000
12.1400 270.0000 1.0000
12.1600 323.0000 1.0000
12.1800 319.0000 1.0000
12.2000 320.0000 1.0000
12.2200 349.0000 1.0000
12.2400 353.0000 1.0000
12.2600 415.0000 1.0000
12.2800 390.0000 1.0000
12.3000 362.0000 1.0000
12.3200 425.0000 1.0000
12.3400 447.0000 1.0000
12.3600 425.0000 1.0000
12.3800 429.0000 1.0000
12.4000 412.0000 1.0000
12.4200 410.0000 1.0000
12.4400 403.0000 1.0000
12.4600 342.0000 1.0000
12.4800 285.0000 1.0000
12.5000 269.0000 1.0000
12.5200 248.0000 1.0000
12.5400 258.0000 1.0000
12.5600 226.0000 1.0000
12.5800 198.0000 1.0000
12.6000 230.0000 1.0000
12.6200 193.0000 1.0000
12.6400 189.0000 1.0000
12.6600 199.0000 1.0000
12.6800 184.0000 1.0000
12.7000 203.0000 1.0000
12.7200 200.0000 1.0000
12.7400 179.0000 1.0000
12.7600 199.0000 1.0000
12.7800 201.0000 1.0000
12.8000 216.0000 1.0000
12.8200 223.0000 1.0000
12.8400 217.0000 1.0000
12.8600 228.0000 1.0000
12.8800 200.0000 1.0000
12.9000 174.0000 1.0000
12.9200 175.0000 1.0000
12.9400 155.0000 1.0000
12.9600 179.0000 1.0000
12.9800 189.0000 1.0000
13.0000 177.0000 1.0000
13.0200 180.0000 1.0000
13.0400 152.0000 1.0000
13.0600 178.0000 1.0000
13.0800 179.0000 1.0000
13.1000 173.0000 1.0000
13.1200 181.0000 1.0000
13.1400 179.0000 1.0000
13.1600 176.0000 1.0000
13.1800 142.0000 1.0000
13.2000 164.0000 1.0000
13.2200 178.0000 1.0000
13.2400 178.0000 1.0000
13.2600 198.0000 1.0000
13.2800 172.0000 1.0000
13.3000 170.0000 1.0000
13.3200 181.0000 1.0000
13.3400 191.0000 1.0000
13.3600 188.0000 1.0000
13.3800 190.0000 1.0000
13.4000 184.0000 1.0000
13.4200 191.0000 1.0000
13.4400 195.0000 1.0000
13.4600 209.0000 1.0000
13.4800 222.0000 1.0000
13.5000 218.0000 1.0000
13.5200 237.0000 1.0000
13.5400 239.0000 1.0000
13.5600 247.0000 1.0000
13.5800 247.0000 1.0000
13.6000 252.0000 1.0000
13.6200 257.0000 1.0000
13.6400 226.0000 1.0000
13.6600 233.0000 1.0000
13.6800 261.0000 1.0000
13.7000 264.0000 1.0000
13.7200 261.0000 1.0000
13.7400 278.0000 1.0000
13.7600 265.0000 1.0000
13.7800 246.0000 1.0000
13.8000 250.0000 1.0000
13.8200 232.0000 1.0000
13.8400 206.0000 1.0000
13.8600 169.0000 1.0000
13.8800 158.0000 1.0000
13.9000 156.0000 1.0000
13.9200 167.0000 1.0000
13.9400 176.0000 1.0000
13.9600 161.0000 1.0000
13.9800 138.0000 1.0000
14.0000 148.0000 1.0000
14.0200 140.0000 1.0000
14.0400 136.0000 1.0000
14.0600 124.0000 1.0000
14.0800 130.0000 1.0000
14.1000 118.0000 1.0000
14.1200 133.0000 1.0000
14.1400 139.0000 1.0000
14.1600 140.0000 1.0000
14.1800 147.0000 1.0000
14.2000 134.0000 1.0000
14.2200 129.0000 1.0000
14.2400 159.0000 1.0000
14.2600 143.0000 1.0000
14.2800 143.0000 1.0000
14.3000 148.0000 1.0000
14.3200 148.0000 1.0000
14.3400 138.0000 1.0000
14.3600 132.0000 1.0000
14.3800 137.0000 1.0000
14.4000 121.0000 1.0000
14.4200 121.0000 1.0000
14.4400 135.0000 1.0000
14.4600 136.0000 1.0000
14.4800 136.0000 1.0000
14.5000 145.0000 1.0000
14.5200 143.0000 1.0000
14.5400 147.0000 1.0000
14.5600 138.0000 1.0000
14.5800 128.0000 1.0000
14.6000 128.0000 1.0000
14.6200 127.0000 1.0000
14.6400 144.0000 1.0000
14.6600 143.0000 1.0000
14.6800 139.0000 1.0000
14.7000 144.0000 1.0000
14.7200 136.0000 1.0000
14.7400 145.0000 1.0000
14.7600 160.0000 1.0000
14.7800 144.0000 1.0000
14.8000 144.0000 1.0000
14.8200 155.0000 1.0000
14.8400 156.0000 1.0000
14.8600 155.0000 1.0000
14.8800 169.0000 1.0000
14.9000 172.0000 1.0000
14.9200 171.0000 1.0000
14.9400 169.0000 1.0000
14.9600 151.0000 1.0000
14.9800 150.0000 1.0000
15.0000 161.0000 1.0000
15.0200 155.0000 1.0000
15.0400 139.0000 1.0000
15.0600 137.0000 1.0000
15.0800 135.0000 1.0000
15.1000 130.0000 1.0000
15.1200 130.0000 1.0000
15.1400 135.0000 1.0000
15.1600 133.0000 1.0000
15.1800 130.0000 1.0000
15.2000 126.0000 1.0000
15.2200 128.0000 1.0000
15.2400 139.0000 1.0000
15.2600 141.0000 1.0000
15.2800 138.0000 1.0000
15.3000 121.0000 1.0000
15.3200 111.0000 1.0000
15.3400 131.0000 1.0000
15.3600 133.0000 1.0000
15.3800 114.0000 1.0000
15.4000 119.0000 1.0000
15.4200 131.0000 1.0000
15.4400 121.0000 1.0000
15.4600 117.0000 1.0000
15.4800 117.0000 1.0000
15.5000 120.0000 1.0000
15.5200 123.0000 1.0000
15.5400 130.0000 1.0000
15.5600 132.0000 1.0000
15.5800 127.0000 1.0000
15.6000 134.0000 1.0000
15.6200 132.0000 1.0000
15.6400 136.0000 1.0000
15.6600 152.0000 1.0000
15.6800 153.0000 1.0000
15.7000 140.0000 1.0000
15.7200 127.0000 1.0000
15.7400 140.0000 1.0000
15.7600 138.0000 1.0000
15.7800 134.0000 1.0000
15.8000 133.0000 1.0000
15.8200 133.0000 1.0000
15.8400 130.0000 1.0000
15.8600 124.0000 1.0000
15.8800 116.0000 1.0000
15.9000 120.0000 1.0000
15.9200 126.0000 1.0000
15.9400 127.0000 1.0000
15.9600 127.0000 1.0000
15.9800 110.0000 1.0000
16.0000 105.0000 1.0000
16.0200 110.0000 1.0000
16.0400 121.0000 1.0000
16.0600 126.0000 1.0000
16.0800 136.0000 1.0000
16.1000 136.0000 1.0000
16.1200 106.0000 1.0000
16.1400 120.0000 1.0000
16.1600 130.0000 1.0000
16.1800 122.0000 1.0000
16.2000 120.0000 1.0000
16.2200 118.0000 1.0000
16.2400 115.0000 1.0000
16.2600 116.0000 1.0000
16.2800 125.0000 1.0000
16.3000 132.0000 1.0000
16.3200 126.0000 1.0000
16.3400 124.0000 1.0000
16.3600 116.0000 1.0000
16.3800 118.0000 1.0000
16.4000 118.0000 1.0000
16.4200 114.0000 1.0000
16.4400 124.0000 1.0000
16.4600 118.0000 1.0000
16.4800 119.0000 1.0000
16.5000 134.0000 1.0000
16.5200 120.0000 1.0000
16.5400 126.0000 1.0000
16.5600 124.0000 1.0000
16.5800 115.0000 1.0000
16.6000 126.0000 1.0000
16.6200 126.0000 1.0000
16.6400 119.0000 1.0000
16.6600 130.0000 1.0000
16.6800 133.0000 1.0000
16.7000 129.0000 1.0000
16.7200 131.0000 1.0000
16.7400 134.0000 1.0000
16.7600 125.0000 1.0000
16.7800 117.0000 1.0000
16.8000 128.0000 1.0000
16.8200 137.0000 1.0000
16.8400 131.0000 1.0000
16.8600 137.0000 1.0000
16.8800 129.0000 1.0000
16.9000 116.0000 1.0000
16.9200 134.0000 1.0000
16.9400 138.0000 1.0000
16.9600 138.0000 1.0000
16.9800 125.0000 1.0000
17.0000 129.0000 1.0000
17.0200 139.0000 1.0000
17.0400 134.0000 1.0000
17.0600 124.0000 1.0000
17.0800 128.0000 1.0000
17.1000 140.0000 1.0000
17.1200 143.0000 1.0000
17.1400 144.0000 1.0000
17.1600 150.0000 1.0000
17.1800 167.0000 1.0000
17.2000 150.0000 1.0000
17.2200 162.0000 1.0000
17.2400 163.0000 1.0000
17.2600 163.0000 1.0000
17.2800 150.0000 1.0000
17.3000 164.0000 1.0000
17.3200 169.0000 1.0000
17.3400 144.0000 1.0000
17.3600 154.0000 1.0000
17.3800 170.0000 1.0000
17.4000 182.0000 1.0000
17.4200 165.0000 1.0000
17.4400 170.0000 1.0000
17.4600 163.0000 1.0000
17.4800 191.0000 1.0000
17.5000 193.0000 1.0000
17.5200 167.0000 1.0000
17.5400 194.0000 1.0000
17.5600 223.0000 1.0000
17.5800 175.0000 1.0000
17.6000 179.0000 1.0000
17.6200 194.0000 1.0000
17.6400 202.0000 1.0000
17.6600 189.0000 1.0000
17.6800 202.0000 1.0000
17.7000 192.0000 1.0000
17.7200 165.0000 1.0000
17.7400 167.0000 1.0000
17.7600 164.0000 1.0000
17.7800 165.0000 1.0000
17.8000 161.0000 1.0000
17.8200 158.0000 1.0000
17.8400 155.0000 1.0000
17.8600 152.0000 1.0000
17.8800 145.0000 1.0000
17.9000 138.0000 1.0000
17.9200 149.0000 1.0000
17.9400 166.0000 1.0000
17.9600 138.0000 1.0000
17.9800 141.0000 1.0000
18.0000 159.0000 1.0000
18.0200 149.0000 1.0000
18.0400 142.0000 1.0000
18.0600 147.0000 1.0000
18.0800 150.0000 1.0000
18.1000 147.0000 1.0000
18.1200 140.0000 1.0000
18.1400 138.0000 1.0000
18.1600 148.0000 1.0000
18.1800 133.0000 1.0000
18.2000 144.0000 1.0000
18.2200 142.0000 1.0000
18.2400 135.0000 1.0000
18.2600 132.0000 1.0000
18.2800 136.0000 1.0000
18.3000 131.0000 1.0000
18.3200 142.0000 1.0000
18.3400 134.0000 1.0000
18.3600 140.0000 1.0000
18.3800 118.0000 1.0000
18.4000 143.0000 1.0000
18.4200 137.0000 1.0000
18.4400 175.0000 1.0000
18.4600 165.0000 1.0000
18.4800 165.0000 1.0000
18.5000 152.0000 1.0000
18.5200 161.0000 1.0000
18.5400 173.0000 1.0000
18.5600 185.0000 1.0000
18.5800 169.0000 1.0000
18.6000 179.0000 1.0000
18.6200 187.0000 1.0000
18.6400 184.0000 1.0000
18.6600 166.0000 1.0000
18.6800 200.0000 1.0000
18.7000 200.0000 1.0000
18.7200 196.0000 1.0000
18.7400 190.0000 1.0000
18.7600 186.0000 1.0000
18.7800 179.0000 1.0000
18.8000 191.0000 1.0000
18.8200 194.0000 1.0000
18.8400 172.0000 1.0000
18.8600 184.0000 1.0000
18.8800 182.0000 1.0000
18.9000 182.0000 1.0000
18.9200 175.0000 1.0000
18.9400 161.0000 1.0000
18.9600 173.0000 1.0000
18.9800 171.0000 1.0000
19.0000 170.0000 1.0000
19.0200 179.0000 1.0000
19.0400 189.0000 1.0000
19.0600 185.0000 1.0000
19.0800 186.0000 1.0000
19.1000 186.0000 1.0000
19.1200 209.0000 1.0000
19.1400 211.0000 1.0000
19.1600 179.0000 1.0000
19.1800 199.0000 1.0000
19.2000 211.0000 1.0000
19.2200 209.0000 1.0000
19.2400 203.0000 1.0000
19.2600 222.0000 1.0000
19.2800 216.0000 1.0000
19.3000 219.0000 1.0000
19.3200 211.0000 1.0000
19.3400 247.0000 1.0000
19.3600 217.0000 1.0000
19.3800 224.0000 1.0000
19.4000 233.0000 1.0000
19.4200 258.0000 1.0000
19.4400 247.0000 1.0000
19.4600 256.0000 1.0000
19.4800 257.0000 1.0000
19.5000 305.0000 1.0000
19.5200 320.0000 1.0000
19.5400 348.0000 1.0000
19.5600 371.0000 1.0000
19.5800 373.0000 1.0000
19.6000 414.0000 1.0000
19.6200 476.0000 1.0000
19.6400 439.0000 1.0000
19.6600 462.0000 1.0000
19.6800 479.0000 1.0000
19.7000 491.0000 1.0000
19.7200 497.0000 1.0000
19.7400 437.0000 1.0000
19.7600 434.0000 1.0000
19.7800 419.0000 1.0000
19.8000 400.0000 1.0000
19.8200 408.0000 1.0000
19.8400 399.0000 1.0000
19.8600 401.0000 1.0000
19.8800 343.0000 1.0000
19.9000 327.0000 1.0000
19.9200 313.0000 1.0000
19.9400 336.0000 1.0000
19.9600 318.0000 1.0000
19.9800 304.0000 1.0000
20.0000 275.0000 1.0000
20.0200 299.0000 1.0000
20.0400 267.0000 1.0000
20.0600 309.0000 1.0000
20.0800 286.0000 1.0000
20.1000 274.0000 1.0000
20.1200 254.0000 1.0000
20.1400 287.0000 1.0000
20.1600 272.0000 1.0000
20.1800 276.0000 1.0000
20.2000 263.0000 1.0000
20.2200 254.0000 1.0000
20.2400 250.0000 1.0000
20.2600 252.0000 1.0000
20.2800 242.0000 1.0000
20.3000 253.0000 1.0000
20.3200 283.0000 1.0000
20.3400 239.0000 1.0000
20.3600 270.0000 1.0000
20.3800 270.0000 1.0000
20.4000 293.0000 1.0000
20.4200 271.0000 1.0000
20.4400 274.0000 1.0000
20.4600 298.0000 1.0000
20.4800 321.0000 1.0000
20.5000 341.0000 1.0000
20.5200 372.0000 1.0000
20.5400 412.0000 1.0000
20.5600 388.0000 1.0000
20.5800 444.0000 1.0000
20.6000 532.0000 1.0000
20.6200 579.0000 1.0000
20.6400 671.0000 1.0000
20.6600 794.0000 1.0000
20.6800 955.0000 1.0000
20.7000 1171.0000 1.0000
20.7200 1404.0000 1.0000
20.7400 1453.0000 1.0000
20.7600 1589.0000 1.0000
20.7800 1653.0000 1.0000
20.8000 1563.0000 1.0000
20.8200 1311.0000 1.0000
20.8400 1028.0000 1.0000
20.8600 852.0000 1.0000
20.8800 659.0000 1.0000
20.9000 504.0000 1.0000
20.9200 421.0000 1.0000
20.9400 402.0000 1.0000
20.9600 379.0000 1.0000
20.9800 353.0000 1.0000
21.0000 304.0000 1.0000
21.0200 355.0000 1.0000
21.0400 286.0000 1.0000
21.0600 291.0000 1.0000
21.0800 264.0000 1.0000
21.1000 258.0000 1.0000
21.1200 254.0000 1.0000
21.1400 276.0000 1.0000
21.1600 259.0000 1.0000
21.1800 284.0000 1.0000
21.2000 247.0000 1.0000
21.2200 244.0000 1.0000
21.2400 245.0000 1.0000
21.2600 252.0000 1.0000
21.2800 242.0000 1.0000
21.3000 235.0000 1.0000
21.3200 246.0000 1.0000
21.3400 229.0000 1.0000
21.3600 220.0000 1.0000
21.3800 231.0000 1.0000
21.4000 209.0000 1.0000
21.4200 199.0000 1.0000
21.4400 221.0000 1.0000
21.4600 192.0000 1.0000
21.4800 213.0000 1.0000
21.5000 207.0000 1.0000
21.5200 216.0000 1.0000
21.5400 210.0000 1.0000
21.5600 208.0000 1.0000
21.5800 213.0000 1.0000
21.6000 216.0000 1.0000
21.6200 261.0000 1.0000
21.6400 236.0000 1.0000
21.6600 227.0000 1.0000
21.6800 266.0000 1.0000
21.7000 253.0000 1.0000
21.7200 280.0000 1.0000
21.7400 320.0000 1.0000
21.7600 329.0000 1.0000
21.7800 337.0000 1.0000
21.8000 415.0000 1.0000
21.8200 424.0000 1.0000
21.8400 480.0000 1.0000
21.8600 549.0000 1.0000
21.8800 589.0000 1.0000
21.9000 560.0000 1.0000
21.9200 616.0000 1.0000
21.9400 566.0000 1.0000
21.9600 531.0000 1.0000
21.9800 502.0000 1.0000
22.0000 438.0000 1.0000
22.0200 363.0000 1.0000
22.0400 277.0000 1.0000
22.0600 284.0000 1.0000
22.0800 274.0000 1.0000
22.1000 231.0000 1.0000
22.1200 234.0000 1.0000
22.1400 198.0000 1.0000
22.1600 209.0000 1.0000
22.1800 202.0000 1.0000
22.2000 205.0000 1.0000
22.2200 214.0000 1.0000
22.2400 186.0000 1.0000
22.2600 217.0000 1.0000
22.2800 193.0000 1.0000
22.3000 221.0000 1.0000
22.3200 203.0000 1.0000
22.3400 208.0000 1.0000
22.3600 212.0000 1.0000
22.3800 210.0000 1.0000
22.4000 216.0000 1.0000
22.4200 233.0000 1.0000
22.4400 216.0000 1.0000
22.4600 234.0000 1.0000
22.4800 202.0000 1.0000
22.5000 223.0000 1.0000
22.5200 210.0000 1.0000
22.5400 210.0000 1.0000
22.5600 202.0000 1.0000
22.5800 210.0000 1.0000
22.6000 220.0000 1.0000
22.6200 216.0000 1.0000
22.6400 233.0000 1.0000
22.6600 228.0000 1.0000
22.6800 224.0000 1.0000
22.7000 220.0000 1.0000
22.7200 246.0000 1.0000
22.7400 265.0000 1.0000
22.7600 265.0000 1.0000
22.7800 223.0000 1.0000
22.8000 256.0000 1.0000
22.8200 229.0000 1.0000
22.8400 228.0000 1.0000
22.8600 268.0000 1.0000
22.8800 280.0000 1.0000
22.9000 273.0000 1.0000
22.9200 260.0000 1.0000
22.9400 272.0000 1.0000
22.9600 273.0000 1.0000
22.9800 270.0000 1.0000
23.0000 280.0000 1.0000
23.0200 288.0000 1.0000
23.0400 250.0000 1.0000
23.0600 216.0000 1.0000
23.0800 233.0000 1.0000
23.1000 233.0000 1.0000
23.1200 221.0000 1.0000
23.1400 213.0000 1.0000
23.1600 239.0000 1.0000
23.1800 255.0000 1.0000
23.2000 248.0000 1.0000
23.2200 268.0000 1.0000
23.2400 263.0000 1.0000
23.2600 278.0000 1.0000
23.2800 295.0000 1.0000
23.3000 296.0000 1.0000
23.3200 306.0000 1.0000
23.3400 312.0000 1.0000
23.3600 349.0000 1.0000
23.3800 383.0000 1.0000
23.4000 445.0000 1.0000
23.4200 437.0000 1.0000
23.4400 483.0000 1.0000
23.4600 542.0000 1.0000
23.4800 572.0000 1.0000
23.5000 541.0000 1.0000
23.5200 503.0000 1.0000
23.5400 507.0000 1.0000
23.5600 509.0000 1.0000
23.5800 497.0000 1.0000
23.6000 444.0000 1.0000
23.6200 418.0000 1.0000
23.6400 379.0000 1.0000
23.6600 329.0000 1.0000
23.6800 316.0000 1.0000
23.7000 319.0000 1.0000
23.7200 315.0000 1.0000
23.7400 316.0000 1.0000
23.7600 299.0000 1.0000
23.7800 279.0000 1.0000
23.8000 301.0000 1.0000
23.8200 274.0000 1.0000
23.8400 284.0000 1.0000
23.8600 287.0000 1.0000
23.8800 294.0000 1.0000
23.9000 292.0000 1.0000
23.9200 321.0000 1.0000
23.9400 302.0000 1.0000
23.9600 337.0000 1.0000
23.9800 368.0000 1.0000
24.0000 391.0000 1.0000
24.0200 399.0000 1.0000
24.0400 368.0000 1.0000
24.0600 382.0000 1.0000
24.0800 448.0000 1.0000
24.1000 501.0000 1.0000
24.1200 484.0000 1.0000
24.1400 480.0000 1.0000
24.1600 489.0000 1.0000
24.1800 531.0000 1.0000
24.2000 500.0000 1.0000
24.2200 501.0000 1.0000
24.2400 490.0000 1.0000
24.2600 421.0000 1.0000
24.2800 406.0000 1.0000
24.3000 403.0000 1.0000
24.3200 360.0000 1.0000
24.3400 381.0000 1.0000
24.3600 364.0000 1.0000
24.3800 353.0000 1.0000
24.4000 345.0000 1.0000
24.4200 310.0000 1.0000
24.4400 296.0000 1.0000
24.4600 303.0000 1.0000
24.4800 295.0000 1.0000
24.5000 280.0000 1.0000
24.5200 288.0000 1.0000
24.5400 273.0000 1.0000
24.5600 270.0000 1.0000
24.5800 268.0000 1.0000
24.6000 247.0000 1.0000
24.6200 244.0000 1.0000
24.6400 244.0000 1.0000
24.6600 259.0000 1.0000
24.6800 264.0000 1.0000
24.7000 238.0000 1.0000
24.7200 246.0000 1.0000
24.7400 267.0000 1.0000
24.7600 256.0000 1.0000
24.7800 256.0000 1.0000
24.8000 279.0000 1.0000
24.8200 260.0000 1.0000
24.8400 259.0000 1.0000
24.8600 272.0000 1.0000
24.8800 274.0000 1.0000
24.9000 277.0000 1.0000
24.9200 284.0000 1.0000
24.9400 287.0000 1.0000
24.9600 283.0000 1.0000
24.9800 307.0000 1.0000
25.0000 319.0000 1.0000
25.0200 324.0000 1.0000
25.0400 354.0000 1.0000
25.0600 377.0000 1.0000
25.0800 365.0000 1.0000
25.1000 390.0000 1.0000
25.1200 404.0000 1.0000
25.1400 408.0000 1.0000
25.1600 396.0000 1.0000
25.1800 388.0000 1.0000
25.2000 417.0000 1.0000
25.2200 427.0000 1.0000
25.2400 461.0000 1.0000
25.2600 516.0000 1.0000
25.2800 569.0000 1.0000
25.3000 580.0000 1.0000
25.3200 635.0000 1.0000
25.3400 717.0000 1.0000
25.3600 825.0000 1.0000
25.3800 911.0000 1.0000
25.4000 1008.0000 1.0000
25.4200 1147.0000 1.0000
25.4400 1351.0000 1.0000
25.4600 1459.0000 1.0000
25.4800 1452.0000 1.0000
25.5000 1490.0000 1.0000
25.5200 1404.0000 1.0000
25.5400 1242.0000 1.0000
25.5600 1070.0000 1.0000
25.5800 879.0000 1.0000
25.6000 726.0000 1.0000
25.6200 620.0000 1.0000
25.6400 504.0000 1.0000
25.6600 410.0000 1.0000
25.6800 397.0000 1.0000
25.7000 362.0000 1.0000
25.7200 332.0000 1.0000
25.7400 330.0000 1.0000
25.7600 324.0000 1.0000
25.7800 338.0000 1.0000
25.8000 337.0000 1.0000
25.8200 321.0000 1.0000
25.8400 330.0000 1.0000
25.8600 334.0000 1.0000
25.8800 319.0000 1.0000
25.9000 333.0000 1.0000
25.9200 358.0000 1.0000
25.9400 344.0000 1.0000
25.9600 319.0000 1.0000
25.9800 313.0000 1.0000
26.0000 332.0000 1.0000
26.0200 356.0000 1.0000
26.0400 384.0000 1.0000
26.0600 398.0000 1.0000
26.0800 399.0000 1.0000
26.1000 421.0000 1.0000
26.1200 437.0000 1.0000
26.1400 461.0000 1.0000
26.1600 521.0000 1.0000
26.1800 566.0000 1.0000
26.2000 576.0000 1.0000
26.2200 640.0000 1.0000
26.2400 690.0000 1.0000
26.2600 813.0000 1.0000
26.2800 917.0000 1.0000
26.3000 1028.0000 1.0000
26.3200 1154.0000 1.0000
26.3400 1276.0000 1.0000
26.3600 1495.0000 1.0000
26.3800 1791.0000 1.0000
26.4000 2193.0000 1.0000
26.4200 2668.0000 1.0000
26.4400 3244.0000 1.0000
26.4600 4071.0000 1.0000
26.4800 4988.0000 1.0000
26.5000 5989.0000 1.0000
26.5200 6735.0000 1.0000
26.5400 7231.0000 1.0000
26.5600 7329.0000 1.0000
26.5800 6829.0000 1.0000
26.6000 5976.0000 1.0000
26.6200 4780.0000 1.0000
26.6400 3654.0000 1.0000
26.6600 2777.0000 1.0000
26.6800 2022.0000 1.0000
26.7000 1483.0000 1.0000
26.7200 1141.0000 1.0000
26.7400 970.0000 1.0000
26.7600 877.0000 1.0000
26.7800 801.0000 1.0000
26.8000 768.0000 1.0000
26.8200 748.0000 1.0000
26.8400 720.0000 1.0000
26.8600 707.0000 1.0000
26.8800 671.0000 1.0000
26.9000 637.0000 1.0000
26.9200 660.0000 1.0000
26.9400 663.0000 1.0000
26.9600 641.0000 1.0000
26.9800 621.0000 1.0000
27.0000 585.0000 1.0000
27.0200 549.0000 1.0000
27.0400 533.0000 1.0000
27.0600 521.0000 1.0000
27.0800 497.0000 1.0000
27.1000 490.0000 1.0000
27.1200 483.0000 1.0000
27.1400 466.0000 1.0000
27.1600 464.0000 1.0000
27.1800 460.0000 1.0000
27.2000 465.0000 1.0000
27.2200 490.0000 1.0000
27.2400 510.0000 1.0000
27.2600 515.0000 1.0000
27.2800 542.0000 1.0000
27.3000 593.0000 1.0000
27.3200 667.0000 1.0000
27.3400 719.0000 1.0000
27.3600 734.0000 1.0000
27.3800 794.0000 1.0000
27.4000 852.0000 1.0000
27.4200 856.0000 1.0000
27.4400 862.0000 1.0000
27.4600 863.0000 1.0000
27.4800 882.0000 1.0000
27.5000 867.0000 1.0000
27.5200 825.0000 1.0000
27.5400 808.0000 1.0000
27.5600 832.0000 1.0000
27.5800 908.0000 1.0000
27.6000 934.0000 1.0000
27.6200 951.0000 1.0000
27.6400 1009.0000 1.0000
27.6600 1058.0000 1.0000
27.6800 1094.0000 1.0000
27.7000 1157.0000 1.0000
27.7200 1178.0000 1.0000
27.7400 1190.0000 1.0000
27.7600 1238.0000 1.0000
27.7800 1248.0000 1.0000
27.8000 1274.0000 1.0000
27.8200 1366.0000 1.0000
27.8400 1451.0000 1.0000
27.8600 1449.0000 1.0000
27.8800 1394.0000 1.0000
27.9000 1311.0000 1.0000
27.9200 1247.0000 1.0000
27.9400 1139.0000 1.0000
27.9600 1019.0000 1.0000
27.9800 946.0000 1.0000
28.0000 830.0000 1.0000
28.0200 714.0000 1.0000
28.0400 648.0000 1.0000
28.0600 614.0000 1.0000
28.0800 566.0000 1.0000
28.1000 525.0000 1.0000
28.1200 520.0000 1.0000
28.1400 489.0000 1.0000
28.1600 455.0000 1.0000
28.1800 457.0000 1.0000
28.2000 450.0000 1.0000
28.2200 419.0000 1.0000
28.2400 406.0000 1.0000
28.2600 400.0000 1.0000
28.2800 394.0000 1.0000
28.3000 374.0000 1.0000
28.3200 342.0000 1.0000
28.3400 328.0000 1.0000
28.3600 340.0000 1.0000
28.3800 322.0000 1.0000
28.4000 316.0000 1.0000
28.4200 302.0000 1.0000
28.4400 281.0000 1.0000
28.4600 275.0000 1.0000
28.4800 255.0000 1.0000
28.5000 244.0000 1.0000
28.5200 234.0000 1.0000
28.5400 234.0000 1.0000
28.5600 236.0000 1.0000
28.5800 218.0000 1.0000
28.6000 207.0000 1.0000
28.6200 207.0000 1.0000
28.6400 208.0000 1.0000
28.6600 192.0000 1.0000
28.6800 214.0000 1.0000
28.7000 238.0000 1.0000
28.7200 211.0000 1.0000
28.7400 215.0000 1.0000
28.7600 225.0000 1.0000
28.7800 231.0000 1.0000
28.8000 212.0000 1.0000
28.8200 202.0000 1.0000
28.8400 216.0000 1.0000
28.8600 217.0000 1.0000
28.8800 239.0000 1.0000
28.9000 256.0000 1.0000
28.9200 243.0000 1.0000
28.9400 238.0000 1.0000
28.9600 255.0000 1.0000
28.9800 237.0000 1.0000
29.0000 249.0000 1.0000
29.0200 267.0000 1.0000
29.0400 257.0000 1.0000
29.0600 255.0000 1.0000
29.0800 257.0000 1.0000
29.1000 261.0000 1.0000
29.1200 275.0000 1.0000
29.1400 290.0000 1.0000
29.1600 286.0000 1.0000
29.1800 295.0000 1.0000
29.2000 314.0000 1.0000
29.2200 317.0000 1.0000
29.2400 318.0000 1.0000
29.2600 313.0000 1.0000
29.2800 333.0000 1.0000
29.3000 370.0000 1.0000
29.3200 370.0000 1.0000
29.3400 350.0000 1.0000
29.3600 371.0000 1.0000
29.3800 375.0000 1.0000
29.4000 380.0000 1.0000
29.4200 385.0000 1.0000
29.4400 393.0000 1.0000
29.4600 397.0000 1.0000
29.4800 378.0000 1.0000
29.5000 377.0000 1.0000
29.5200 398.0000 1.0000
29.5400 428.0000 1.0000
29.5600 443.0000 1.0000
29.5800 471.0000 1.0000
29.6000 519.0000 1.0000
29.6200 520.0000 1.0000
29.6400 535.0000 1.0000
29.6600 579.0000 1.0000
29.6800 587.0000 1.0000
29.7000 567.0000 1.0000
29.7200 573.0000 1.0000
29.7400 573.0000 1.0000
29.7600 556.0000 1.0000
29.7800 501.0000 1.0000
29.8000 471.0000 1.0000
29.8200 484.0000 1.0000
29.8400 465.0000 1.0000
29.8600 439.0000 1.0000
29.8800 439.0000 1.0000
29.9000 449.0000 1.0000
29.9200 436.0000 1.0000
29.9400 391.0000 1.0000
29.9600 376.0000 1.0000
29.9800 407.0000 1.0000
30.0000 427.0000 1.0000
30.0200 428.0000 1.0000
30.0400 407.0000 1.0000
30.0600 406.0000 1.0000
30.0800 453.0000 1.0000
30.1000 445.0000 1.0000
30.1200 446.0000 1.0000
30.1400 470.0000 1.0000
30.1600 457.0000 1.0000
30.1800 445.0000 1.0000
30.2000 456.0000 1.0000
30.2200 469.0000 1.0000
30.2400 512.0000 1.0000
30.2600 462.0000 1.0000
30.2800 468.0000 1.0000
30.3000 494.0000 1.0000
30.3200 463.0000 1.0000
30.3400 473.0000 1.0000
30.3600 441.0000 1.0000
30.3800 441.0000 1.0000
30.4000 455.0000 1.0000
30.4200 427.0000 1.0000
30.4400 392.0000 1.0000
30.4600 398.0000 1.0000
30.4800 367.0000 1.0000
30.5000 339.0000 1.0000
30.5200 345.0000 1.0000
30.5400 327.0000 1.0000
30.5600 332.0000 1.0000
30.5800 327.0000 1.0000
30.6000 358.0000 1.0000
30.6200 351.0000 1.0000
30.6400 358.0000 1.0000
30.6600 353.0000 1.0000
30.6800 357.0000 1.0000
30.7000 383.0000 1.0000
30.7200 430.0000 1.0000
30.7400 411.0000 1.0000
30.7600 379.0000 1.0000
30.7800 369.0000 1.0000
30.8000 377.0000 1.0000
30.8200 365.0000 1.0000
30.8400 350.0000 1.0000
30.8600 345.0000 1.0000
30.8800 314.0000 1.0000
30.9000 312.0000 1.0000
30.9200 305.0000 1.0000
30.9400 290.0000 1.0000
30.9600 266.0000 1.0000
30.9800 234.0000 1.0000
31.0000 245.0000 1.0000
31.0200 271.0000 1.0000
31.0400 252.0000 1.0000
31.0600 251.0000 1.0000
31.0800 243.0000 1.0000
31.1000 243.0000 1.0000
31.1200 258.0000 1.0000
31.1400 288.0000 1.0000
31.1600 289.0000 1.0000
31.1800 269.0000 1.0000
31.2000 281.0000 1.0000
31.2200 288.0000 1.0000
31.2400 284.0000 1.0000
31.2600 306.0000 1.0000
31.2800 286.0000 1.0000
31.3000 270.0000 1.0000
31.3200 284.0000 1.0000
31.3400 317.0000 1.0000
31.3600 309.0000 1.0000
31.3800 315.0000 1.0000
31.4000 311.0000 1.0000
31.4200 315.0000 1.0000
31.4400 314.0000 1.0000
31.4600 322.0000 1.0000
31.4800 295.0000 1.0000
31.5000 309.0000 1.0000
31.5200 332.0000 1.0000
31.5400 321.0000 1.0000
31.5600 330.0000 1.0000
31.5800 308.0000 1.0000
31.6000 334.0000 1.0000
31.6200 287.0000 1.0000
31.6400 308.0000 1.0000
31.6600 287.0000 1.0000
31.6800 277.0000 1.0000
31.7000 242.0000 1.0000
31.7200 231.0000 1.0000
31.7400 226.0000 1.0000
31.7600 225.0000 1.0000
31.7800 219.0000 1.0000
31.8000 206.0000 1.0000
31.8200 208.0000 1.0000
31.8400 197.0000 1.0000
31.8600 169.0000 1.0000
31.8800 195.0000 1.0000
31.9000 204.0000 1.0000
31.9200 173.0000 1.0000
31.9400 164.0000 1.0000
31.9600 182.0000 1.0000
31.9800 170.0000 1.0000
32.0000 169.0000 1.0000
32.0200 172.0000 1.0000
32.0400 187.0000 1.0000
32.0600 189.0000 1.0000
32.0800 168.0000 1.0000
32.1000 183.0000 1.0000
32.1200 185.0000 1.0000
32.1400 175.0000 1.0000
32.1600 182.0000 1.0000
32.1800 174.0000 1.0000
32.2000 206.0000 1.0000
32.2200 178.0000 1.0000
32.2400 196.0000 1.0000
32.2600 201.0000 1.0000
32.2800 176.0000 1.0000
32.3000 179.0000 1.0000
32.3200 182.0000 1.0000
32.3400 161.0000 1.0000
32.3600 173.0000 1.0000
32.3800 188.0000 1.0000
32.4000 163.0000 1.0000
32.4200 168.0000 1.0000
32.4400 160.0000 1.0000
32.4600 165.0000 1.0000
32.4800 169.0000 1.0000
32.5000 172.0000 1.0000
32.5200 159.0000 1.0000
32.5400 169.0000 1.0000
32.5600 170.0000 1.0000
32.5800 159.0000 1.0000
32.6000 149.0000 1.0000
32.6200 133.0000 1.0000
32.6400 160.0000 1.0000
32.6600 140.0000 1.0000
32.6800 127.0000 1.0000
32.7000 135.0000 1.0000
32.7200 132.0000 1.0000
32.7400 162.0000 1.0000
32.7600 143.0000 1.0000
32.7800 164.0000 1.0000
32.8000 148.0000 1.0000
32.8200 146.0000 1.0000
32.8400 160.0000 1.0000
32.8600 161.0000 1.0000
32.8800 184.0000 1.0000
32.9000 175.0000 1.0000
32.9200 171.0000 1.0000
32.9400 182.0000 1.0000
32.9600 135.0000 1.0000
32.9800 168.0000 1.0000
33.0000 161.0000 1.0000
33.0200 153.0000 1.0000
33.0400 129.0000 1.0000
33.0600 172.0000 1.0000
33.0800 155.0000 1.0000
33.1000 161.0000 1.0000
33.1200 152.0000 1.0000
33.1400 162.0000 1.0000
33.1600 159.0000 1.0000
33.1800 145.0000 1.0000
33.2000 135.0000 1.0000
33.2200 155.0000 1.0000
33.2400 140.0000 1.0000
33.2600 138.0000 1.0000
33.2800 157.0000 1.0000
33.3000 135.0000 1.0000
33.3200 155.0000 1.0000
33.3400 142.0000 1.0000
33.3600 169.0000 1.0000
33.3800 149.0000 1.0000
33.4000 160.0000 1.0000
33.4200 152.0000 1.0000
33.4400 165.0000 1.0000
33.4600 146.0000 1.0000
33.4800 181.0000 1.0000
33.5000 166.0000 1.0000
33.5200 171.0000 1.0000
33.5400 145.0000 1.0000
33.5600 183.0000 1.0000
33.5800 164.0000 1.0000
33.6000 156.0000 1.0000
33.6200 218.0000 1.0000
33.6400 217.0000 1.0000
33.6600 196.0000 1.0000
33.6800 190.0000 1.0000
33.7000 203.0000 1.0000
33.7200 215.0000 1.0000
33.7400 191.0000 1.0000
33.7600 203.0000 1.0000
33.7800 214.0000 1.0000
33.8000 221.0000 1.0000
33.8200 219.0000 1.0000
33.8400 210.0000 1.0000
33.8600 195.0000 1.0000
33.8800 230.0000 1.0000
33.9000 208.0000 1.0000
33.9200 193.0000 1.0000
33.9400 212.0000 1.0000
33.9600 192.0000 1.0000
33.9800 179.0000 1.0000
34.0000 200.0000 1.0000
34.0200 212.0000 1.0000
34.0400 203.0000 1.0000
34.0600 218.0000 1.0000
34.0800 231.0000 1.0000
34.1000 209.0000 1.0000
34.1200 227.0000 1.0000
34.1400 231.0000 1.0000
34.1600 224.0000 1.0000
34.1800 243.0000 1.0000
34.2000 221.0000 1.0000
34.2200 234.0000 1.0000
34.2400 242.0000 1.0000
34.2600 251.0000 1.0000
34.2800 267.0000 1.0000
34.3000 298.0000 1.0000
34.3200 262.0000 1.0000
34.3400 304.0000 1.0000
34.3600 294.0000 1.0000
34.3800 322.0000 1.0000
34.4000 324.0000 1.0000
34.4200 333.0000 1.0000
34.4400 358.0000 1.0000
34.4600 389.0000 1.0000
34.4800 365.0000 1.0000
34.5000 400.0000 1.0000
34.5200 382.0000 1.0000
34.5400 433.0000 1.0000
34.5600 442.0000 1.0000
34.5800 420.0000 1.0000
34.6000 419.0000 1.0000
34.6200 448.0000 1.0000
34.6400 488.0000 1.0000
34.6600 536.0000 1.0000
34.6800 554.0000 1.0000
34.7000 525.0000 1.0000
34.7200 518.0000 1.0000
34.7400 540.0000 1.0000
34.7600 616.0000 1.0000
34.7800 599.0000 1.0000
34.8000 627.0000 1.0000
34.8200 673.0000 1.0000
34.8400 691.0000 1.0000
34.8600 697.0000 1.0000
34.8800 735.0000 1.0000
34.9000 847.0000 1.0000
34.9200 891.0000 1.0000
34.9400 1028.0000 1.0000
34.9600 1133.0000 1.0000
34.9800 1227.0000 1.0000
35.0000 1507.0000 1.0000
35.0200 1699.0000 1.0000
35.0400 1884.0000 1.0000
35.0600 1918.0000 1.0000
35.0800 1938.0000 1.0000
35.1000 1933.0000 1.0000
35.1200 1602.0000 1.0000
35.1400 1443.0000 1.0000
35.1600 1252.0000 1.0000
35.1800 1056.0000 1.0000
35.2000 876.0000 1.0000
35.2200 797.0000 1.0000
35.2400 647.0000 1.0000
35.2600 550.0000 1.0000
35.2800 518.0000 1.0000
35.3000 529.0000 1.0000
35.3200 505.0000 1.0000
35.3400 527.0000 1.0000
35.3600 493.0000 1.0000
35.3800 473.0000 1.0000
35.4000 511.0000 1.0000
35.4200 540.0000 1.0000
35.4400 476.0000 1.0000
35.4600 506.0000 1.0000
35.4800 497.0000 1.0000
35.5000 499.0000 1.0000
35.5200 489.0000 1.0000
35.5400 478.0000 1.0000
35.5600 483.0000 1.0000
35.5800 478.0000 1.0000
35.6000 478.0000 1.0000
35.6200 411.0000 1.0000
35.6400 410.0000 1.0000
35.6600 369.0000 1.0000
35.6800 389.0000 1.0000
35.7000 367.0000 1.0000
35.7200 354.0000 1.0000
35.7400 322.0000 1.0000
35.7600 328.0000 1.0000
35.7800 333.0000 1.0000
35.8000 321.0000 1.0000
35.8200 289.0000 1.0000
35.8400 275.0000 1.0000
35.8600 256.0000 1.0000
35.8800 270.0000 1.0000
35.9000 272.0000 1.0000
35.9200 283.0000 1.0000
35.9400 249.0000 1.0000
35.9600 251.0000 1.0000
35.9800 277.0000 1.0000
36.0000 238.0000 1.0000
36.0200 251.0000 1.0000
36.0400 272.0000 1.0000
36.0600 264.0000 1.0000
36.0800 267.0000 1.0000
36.1000 236.0000 1.0000
36.1200 245.0000 1.0000
36.1400 255.0000 1.0000
36.1600 256.0000 1.0000
36.1800 281.0000 1.0000
36.2000 291.0000 1.0000
36.2200 305.0000 1.0000
36.2400 309.0000 1.0000
36.2600 315.0000 1.0000
36.2800 346.0000 1.0000
36.3000 380.0000 1.0000
36.3200 363.0000 1.0000
36.3400 432.0000 1.0000
36.3600 466.0000 1.0000
36.3800 525.0000 1.0000
36.4000 560.0000 1.0000
36.4200 650.0000 1.0000
36.4400 703.0000 1.0000
36.4600 687.0000 1.0000
36.4800 711.0000 1.0000
36.5000 723.0000 1.0000
36.5200 684.0000 1.0000
36.5400 613.0000 1.0000
36.5600 542.0000 1.0000
36.5800 511.0000 1.0000
36.6000 464.0000 1.0000
36.6200 396.0000 1.0000
36.6400 330.0000 1.0000
36.6600 318.0000 1.0000
36.6800 295.0000 1.0000
36.7000 307.0000 1.0000
36.7200 312.0000 1.0000
36.7400 287.0000 1.0000
36.7600 280.0000 1.0000
36.7800 259.0000 1.0000
36.8000 264.0000 1.0000
36.8200 260.0000 1.0000
36.8400 273.0000 1.0000
36.8600 257.0000 1.0000
36.8800 242.0000 1.0000
36.9000 258.0000 1.0000
36.9200 262.0000 1.0000
36.9400 266.0000 1.0000
36.9600 252.0000 1.0000
36.9800 250.0000 1.0000
37.0000 236.0000 1.0000
37.0200 246.0000 1.0000
37.0400 245.0000 1.0000
37.0600 257.0000 1.0000
37.0800 261.0000 1.0000
37.1000 247.0000 1.0000
37.1200 219.0000 1.0000
37.1400 230.0000 1.0000
37.1600 252.0000 1.0000
37.1800 263.0000 1.0000
37.2000 220.0000 1.0000
37.2200 233.0000 1.0000
37.2400 264.0000 1.0000
37.2600 266.0000 1.0000
37.2800 269.0000 1.0000
37.3000 262.0000 1.0000
37.3200 262.0000 1.0000
37.3400 261.0000 1.0000
37.3600 253.0000 1.0000
37.3800 263.0000 1.0000
37.4000 270.0000 1.0000
37.4200 285.0000 1.0000
37.4400 284.0000 1.0000
37.4600 268.0000 1.0000
37.4800 289.0000 1.0000
37.5000 304.0000 1.0000
37.5200 353.0000 1.0000
37.5400 391.0000 1.0000
37.5600 421.0000 1.0000
37.5800 465.0000 1.0000
37.6000 547.0000 1.0000
37.6200 598.0000 1.0000
37.6400 707.0000 1.0000
37.6600 795.0000 1.0000
37.6800 837.0000 1.0000
37.7000 812.0000 1.0000
37.7200 817.0000 1.0000
37.7400 749.0000 1.0000
37.7600 702.0000 1.0000
37.7800 595.0000 1.0000
37.8000 517.0000 1.0000
37.8200 444.0000 1.0000
37.8400 388.0000 1.0000
37.8600 314.0000 1.0000
37.8800 281.0000 1.0000
37.9000 252.0000 1.0000
37.9200 219.0000 1.0000
37.9400 187.0000 1.0000
37.9600 187.0000 1.0000
37.9800 195.0000 1.0000
38.0000 197.0000 1.0000
38.0200 184.0000 1.0000
38.0400 173.0000 1.0000
38.0600 190.0000 1.0000
38.0800 185.0000 1.0000
38.1000 166.0000 1.0000
38.1200 168.0000 1.0000
38.1400 173.0000 1.0000
38.1600 174.0000 1.0000
38.1800 178.0000 1.0000
38.2000 160.0000 1.0000
38.2200 153.0000 1.0000
38.2400 154.0000 1.0000
38.2600 169.0000 1.0000
38.2800 162.0000 1.0000
38.3000 153.0000 1.0000
38.3200 168.0000 1.0000
38.3400 151.0000 1.0000
38.3600 151.0000 1.0000
38.3800 139.0000 1.0000
38.4000 148.0000 1.0000
38.4200 161.0000 1.0000
38.4400 169.0000 1.0000
38.4600 155.0000 1.0000
38.4800 154.0000 1.0000
38.5000 156.0000 1.0000
38.5200 171.0000 1.0000
38.5400 169.0000 1.0000
38.5600 166.0000 1.0000
38.5800 161.0000 1.0000
38.6000 150.0000 1.0000
38.6200 146.0000 1.0000
38.6400 163.0000 1.0000
38.6600 171.0000 1.0000
38.6800 174.0000 1.0000
38.7000 166.0000 1.0000
38.7200 187.0000 1.0000
38.7400 199.0000 1.0000
38.7600 173.0000 1.0000
38.7800 151.0000 1.0000
38.8000 154.0000 1.0000
38.8200 166.0000 1.0000
38.8400 171.0000 1.0000
38.8600 184.0000 1.0000
38.8800 194.0000 1.0000
38.9000 185.0000 1.0000
38.9200 195.0000 1.0000
38.9400 192.0000 1.0000
38.9600 183.0000 1.0000
38.9800 192.0000 1.0000
39.0000 177.0000 1.0000
39.0200 172.0000 1.0000
39.0400 170.0000 1.0000
39.0600 168.0000 1.0000
39.0800 177.0000 1.0000
39.1000 177.0000 1.0000
39.1200 188.0000 1.0000
39.1400 190.0000 1.0000
39.1600 175.0000 1.0000
39.1800 205.0000 1.0000
39.2000 214.0000 1.0000
39.2200 218.0000 1.0000
39.2400 221.0000 1.0000
39.2600 263.0000 1.0000
39.2800 317.0000 1.0000
39.3000 365.0000 1.0000
39.3200 411.0000 1.0000
39.3400 480.0000 1.0000
39.3600 534.0000 1.0000
39.3800 552.0000 1.0000
39.4000 544.0000 1.0000
39.4200 515.0000 1.0000
39.4400 483.0000 1.0000
39.4600 471.0000 1.0000
39.4800 417.0000 1.0000
39.5000 356.0000 1.0000
39.5200 321.0000 1.0000
39.5400 280.0000 1.0000
39.5600 241.0000 1.0000
39.5800 228.0000 1.0000
39.6000 217.0000 1.0000
39.6200 200.0000 1.0000
39.6400 186.0000 1.0000
39.6600 167.0000 1.0000
39.6800 171.0000 1.0000
39.7000 168.0000 1.0000
39.7200 161.0000 1.0000
39.7400 160.0000 1.0000
39.7600 162.0000 1.0000
39.7800 163.0000 1.0000
39.8000 164.0000 1.0000
39.8200 169.0000 1.0000
39.8400 172.0000 1.0000
39.8600 171.0000 1.0000
39.8800 161.0000 1.0000
39.9000 176.0000 1.0000
39.9200 187.0000 1.0000
39.9400 196.0000 1.0000
39.9600 201.0000 1.0000
39.9800 196.0000 1.0000
40.0000 199.0000 1.0000
40.0200 201.0000 1.0000
40.0400 207.0000 1.0000
40.0600 211.0000 1.0000
40.0800 226.0000 1.0000
40.1000 234.0000 1.0000
40.1200 259.0000 1.0000
40.1400 288.0000 1.0000
40.1600 310.0000 1.0000
40.1800 348.0000 1.0000
40.2000 370.0000 1.0000
40.2200 354.0000 1.0000
40.2400 359.0000 1.0000
40.2600 358.0000 1.0000
40.2800 340.0000 1.0000
40.3000 315.0000 1.0000
40.3200 267.0000 1.0000
40.3400 253.0000 1.0000
40.3600 257.0000 1.0000
40.3800 230.0000 1.0000
40.4000 198.0000 1.0000
40.4200 201.0000 1.0000
40.4400 206.0000 1.0000
40.4600 208.0000 1.0000
40.4800 205.0000 1.0000
40.5000 201.0000 1.0000
40.5200 201.0000 1.0000
40.5400 193.0000 1.0000
40.5600 194.0000 1.0000
40.5800 201.0000 1.0000
40.6000 202.0000 1.0000
40.6200 204.0000 1.0000
40.6400 197.0000 1.0000
40.6600 191.0000 1.0000
40.6800 191.0000 1.0000
40.7000 176.0000 1.0000
40.7200 199.0000 1.0000
40.7400 218.0000 1.0000
40.7600 198.0000 1.0000
40.7800 202.0000 1.0000
40.8000 192.0000 1.0000
40.8200 179.0000 1.0000
40.8400 203.0000 1.0000
40.8600 212.0000 1.0000
40.8800 194.0000 1.0000
40.9000 178.0000 1.0000
40.9200 184.0000 1.0000
40.9400 190.0000 1.0000
40.9600 186.0000 1.0000
40.9800 190.0000 1.0000
41.0000 175.0000 1.0000
41.0200 188.0000 1.0000
41.0400 200.0000 1.0000
41.0600 175.0000 1.0000
41.0800 180.0000 1.0000
41.1000 184.0000 1.0000
41.1200 187.0000 1.0000
41.1400 198.0000 1.0000
41.1600 174.0000 1.0000
41.1800 179.0000 1.0000
41.2000 185.0000 1.0000
41.2200 179.0000 1.0000
41.2400 185.0000 1.0000
41.2600 182.0000 1.0000
41.2800 189.0000 1.0000
41.3000 167.0000 1.0000
41.3200 171.0000 1.0000
41.3400 165.0000 1.0000
41.3600 156.0000 1.0000
41.3800 174.0000 1.0000
41.4000 179.0000 1.0000
41.4200 182.0000 1.0000
41.4400 191.0000 1.0000
41.4600 183.0000 1.0000
41.4800 195.0000 1.0000
41.5000 199.0000 1.0000
41.5200 205.0000 1.0000
41.5400 213.0000 1.0000
41.5600 223.0000 1.0000
41.5800 243.0000 1.0000
41.6000 236.0000 1.0000
41.6200 221.0000 1.0000
41.6400 237.0000 1.0000
41.6600 244.0000 1.0000
41.6800 237.0000 1.0000
41.7000 243.0000 1.0000
41.7200 248.0000 1.0000
41.7400 250.0000 1.0000
41.7600 249.0000 1.0000
41.7800 240.0000 1.0000
41.8000 244.0000 1.0000
41.8200 262.0000 1.0000
41.8400 276.0000 1.0000
41.8600 269.0000 1.0000
41.8800 259.0000 1.0000
41.9000 254.0000 1.0000
41.9200 228.0000 1.0000
41.9400 241.0000 1.0000
41.9600 251.0000 1.0000
41.9800 240.0000 1.0000
42.0000 258.0000 1.0000
42.0200 267.0000 1.0000
42.0400 286.0000 1.0000
42.0600 301.0000 1.0000
42.0800 309.0000 1.0000
42.1000 303.0000 1.0000
42.1200 299.0000 1.0000
42.1400 312.0000 1.0000
42.1600 314.0000 1.0000
42.1800 327.0000 1.0000
42.2000 353.0000 1.0000
42.2200 389.0000 1.0000
42.2400 382.0000 1.0000
42.2600 390.0000 1.0000
42.2800 446.0000 1.0000
42.3000 499.0000 1.0000
42.3200 527.0000 1.0000
42.3400 573.0000 1.0000
42.3600 596.0000 1.0000
42.3800 570.0000 1.0000
42.4000 559.0000 1.0000
42.4200 546.0000 1.0000
42.4400 504.0000 1.0000
42.4600 470.0000 1.0000
42.4800 409.0000 1.0000
42.5000 405.0000 1.0000
42.5200 383.0000 1.0000
42.5400 332.0000 1.0000
42.5600 292.0000 1.0000
42.5800 263.0000 1.0000
42.6000 269.0000 1.0000
42.6200 260.0000 1.0000
42.6400 239.0000 1.0000
42.6600 251.0000 1.0000
42.6800 259.0000 1.0000
42.7000 240.0000 1.0000
42.7200 258.0000 1.0000
42.7400 258.0000 1.0000
42.7600 244.0000 1.0000
42.7800 245.0000 1.0000
42.8000 240.0000 1.0000
42.8200 250.0000 1.0000
42.8400 236.0000 1.0000
42.8600 226.0000 1.0000
42.8800 236.0000 1.0000
42.9000 230.0000 1.0000
42.9200 258.0000 1.0000
42.9400 262.0000 1.0000
42.9600 260.0000 1.0000
42.9800 247.0000 1.0000
43.0000 280.0000 1.0000
43.0200 284.0000 1.0000
43.0400 306.0000 1.0000
43.0600 318.0000 1.0000
43.0800 344.0000 1.0000
43.1000 383.0000 1.0000
43.1200 456.0000 1.0000
43.1400 561.0000 1.0000
43.1600 721.0000 1.0000
43.1800 868.0000 1.0000
43.2000 1116.0000 1.0000
43.2200 1369.0000 1.0000
43.2400 1582.0000 1.0000
43.2600 1748.0000 1.0000
43.2800 1663.0000 1.0000
43.3000 1651.0000 1.0000
43.3200 1611.0000 1.0000
43.3400 1422.0000 1.0000
43.3600 1230.0000 1.0000
43.3800 1084.0000 1.0000
43.4000 936.0000 1.0000
43.4200 776.0000 1.0000
43.4400 695.0000 1.0000
43.4600 530.0000 1.0000
43.4800 424.0000 1.0000
43.5000 315.0000 1.0000
43.5200 262.0000 1.0000
43.5400 239.0000 1.0000
43.5600 237.0000 1.0000
43.5800 231.0000 1.0000
43.6000 202.0000 1.0000
43.6200 206.0000 1.0000
43.6400 189.0000 1.0000
43.6600 197.0000 1.0000
43.6800 172.0000 1.0000
43.7000 187.0000 1.0000
43.7200 186.0000 1.0000
43.7400 184.0000 1.0000
43.7600 165.0000 1.0000
43.7800 187.0000 1.0000
43.8000 177.0000 1.0000
43.8200 160.0000 1.0000
43.8400 152.0000 1.0000
43.8600 182.0000 1.0000
43.8800 168.0000 1.0000
43.9000 150.0000 1.0000
43.9200 180.0000 1.0000
43.9400 155.0000 1.0000
43.9600 172.0000 1.0000
43.9800 168.0000 1.0000
44.0000 177.0000 1.0000
44.0200 155.0000 1.0000
44.0400 176.0000 1.0000
44.0600 179.0000 1.0000
44.0800 157.0000 1.0000
44.1000 159.0000 1.0000
44.1200 158.0000 1.0000
44.1400 171.0000 1.0000
44.1600 178.0000 1.0000
44.1800 195.0000 1.0000
44.2000 164.0000 1.0000
44.2200 156.0000 1.0000
44.2400 169.0000 1.0000
44.2600 165.0000 1.0000
44.2800 162.0000 1.0000
44.3000 176.0000 1.0000
44.3200 180.0000 1.0000
44.3400 180.0000 1.0000
44.3600 163.0000 1.0000
44.3800 153.0000 1.0000
44.4000 171.0000 1.0000
44.4200 142.0000 1.0000
44.4400 187.0000 1.0000
44.4600 173.0000 1.0000
44.4800 131.0000 1.0000
44.5000 176.0000 1.0000
44.5200 165.0000 1.0000
44.5400 183.0000 1.0000
44.5600 169.0000 1.0000
44.5800 199.0000 1.0000
44.6000 177.0000 1.0000
44.6200 175.0000 1.0000
44.6400 183.0000 1.0000
44.6600 170.0000 1.0000
44.6800 186.0000 1.0000
44.7000 222.0000 1.0000
44.7200 199.0000 1.0000
44.7400 189.0000 1.0000
44.7600 177.0000 1.0000
44.7800 189.0000 1.0000
44.8000 194.0000 1.0000
44.8200 208.0000 1.0000
44.8400 207.0000 1.0000
44.8600 177.0000 1.0000
44.8800 175.0000 1.0000
44.9000 193.0000 1.0000
44.9200 172.0000 1.0000
44.9400 179.0000 1.0000
44.9600 187.0000 1.0000
44.9800 189.0000 1.0000
45.0000 195.0000 1.0000
45.0200 212.0000 1.0000
45.0400 206.0000 1.0000
45.0600 194.0000 1.0000
45.0800 197.0000 1.0000
45.1000 223.0000 1.0000
45.1200 217.0000 1.0000
45.1400 220.0000 1.0000
45.1600 225.0000 1.0000
45.1800 232.0000 1.0000
45.2000 247.0000 1.0000
45.2200 219.0000 1.0000
45.2400 221.0000 1.0000
45.2600 229.0000 1.0000
45.2800 210.0000 1.0000
45.3000 225.0000 1.0000
45.3200 211.0000 1.0000
45.3400 223.0000 1.0000
45.3600 221.0000 1.0000
45.3800 254.0000 1.0000
45.4000 221.0000 1.0000
45.4200 228.0000 1.0000
45.4400 190.0000 1.0000
45.4600 215.0000 1.0000
45.4800 206.0000 1.0000
45.5000 217.0000 1.0000
45.5200 227.0000 1.0000
45.5400 195.0000 1.0000
45.5600 214.0000 1.0000
45.5800 229.0000 1.0000
45.6000 253.0000 1.0000
45.6200 260.0000 1.0000
45.6400 316.0000 1.0000
45.6600 339.0000 1.0000
45.6800 386.0000 1.0000
45.7000 383.0000 1.0000
45.7200 334.0000 1.0000
45.7400 347.0000 1.0000
45.7600 341.0000 1.0000
45.7800 332.0000 1.0000
45.8000 305.0000 1.0000
45.8200 290.0000 1.0000
45.8400 265.0000 1.0000
45.8600 261.0000 1.0000
45.8800 242.0000 1.0000
45.9000 214.0000 1.0000
45.9200 219.0000 1.0000
45.9400 189.0000 1.0000
45.9600 184.0000 1.0000
45.9800 196.0000 1.0000
46.0000 203.0000 1.0000
46.0200 178.0000 1.0000
46.0400 186.0000 1.0000
46.0600 167.0000 1.0000
46.0800 185.0000 1.0000
46.1000 193.0000 1.0000
46.1200 172.0000 1.0000
46.1400 165.0000 1.0000
46.1600 161.0000 1.0000
46.1800 161.0000 1.0000
46.2000 140.0000 1.0000
46.2200 146.0000 1.0000
46.2400 151.0000 1.0000
46.2600 138.0000 1.0000
46.2800 134.0000 1.0000
46.3000 163.0000 1.0000
46.3200 160.0000 1.0000
46.3400 147.0000 1.0000
46.3600 122.0000 1.0000
46.3800 145.0000 1.0000
46.4000 149.0000 1.0000
46.4200 162.0000 1.0000
46.4400 121.0000 1.0000
46.4600 143.0000 1.0000
46.4800 153.0000 1.0000
46.5000 135.0000 1.0000
46.5200 160.0000 1.0000
46.5400 170.0000 1.0000
46.5600 162.0000 1.0000
46.5800 158.0000 1.0000
46.6000 163.0000 1.0000
46.6200 152.0000 1.0000
46.6400 151.0000 1.0000
46.6600 132.0000 1.0000
46.6800 142.0000 1.0000
46.7000 147.0000 1.0000
46.7200 149.0000 1.0000
46.7400 153.0000 1.0000
46.7600 144.0000 1.0000
46.7800 161.0000 1.0000
46.8000 141.0000 1.0000
46.8200 137.0000 1.0000
46.8400 143.0000 1.0000
46.8600 136.0000 1.0000
46.8800 147.0000 1.0000
46.9000 159.0000 1.0000
46.9200 155.0000 1.0000
46.9400 146.0000 1.0000
46.9600 145.0000 1.0000
46.9800 150.0000 1.0000
47.0000 151.0000 1.0000
47.0200 133.0000 1.0000
47.0400 152.0000 1.0000
47.0600 151.0000 1.0000
47.0800 152.0000 1.0000
47.1000 155.0000 1.0000
47.1200 146.0000 1.0000
47.1400 146.0000 1.0000
47.1600 141.0000 1.0000
47.1800 123.0000 1.0000
47.2000 132.0000 1.0000
47.2200 131.0000 1.0000
47.2400 118.0000 1.0000
47.2600 115.0000 1.0000
47.2800 122.0000 1.0000
47.3000 130.0000 1.0000
47.3200 131.0000 1.0000
47.3400 125.0000 1.0000
47.3600 115.0000 1.0000
47.3800 115.0000 1.0000
47.4000 121.0000 1.0000
47.4200 117.0000 1.0000
47.4400 121.0000 1.0000
47.4600 113.0000 1.0000
47.4800 121.0000 1.0000
47.5000 128.0000 1.0000
47.5200 104.0000 1.0000
47.5400 92.0000 1.0000
47.5600 106.0000 1.0000
47.5800 125.0000 1.0000
47.6000 137.0000 1.0000
47.6200 135.0000 1.0000
47.6400 120.0000 1.0000
47.6600 123.0000 1.0000
47.6800 133.0000 1.0000
47.7000 134.0000 1.0000
47.7200 122.0000 1.0000
47.7400 108.0000 1.0000
47.7600 114.0000 1.0000
47.7800 123.0000 1.0000
47.8000 125.0000 1.0000
47.8200 114.0000 1.0000
47.8400 134.0000 1.0000
47.8600 145.0000 1.0000
47.8800 139.0000 1.0000
47.9000 131.0000 1.0000
47.9200 125.0000 1.0000
47.9400 110.0000 1.0000
47.9600 138.0000 1.0000
47.9800 142.0000 1.0000
48.0000 126.0000 1.0000
48.0200 133.0000 1.0000
48.0400 128.0000 1.0000
48.0600 132.0000 1.0000
48.0800 138.0000 1.0000
48.1000 137.0000 1.0000
48.1200 141.0000 1.0000
48.1400 139.0000 1.0000
48.1600 135.0000 1.0000
48.1800 147.0000 1.0000
48.2000 161.0000 1.0000
48.2200 155.0000 1.0000
48.2400 151.0000 1.0000
48.2600 147.0000 1.0000
48.2800 147.0000 1.0000
48.3000 154.0000 1.0000
48.3200 159.0000 1.0000
48.3400 157.0000 1.0000
48.3600 151.0000 1.0000
48.3800 154.0000 1.0000
48.4000 148.0000 1.0000
48.4200 128.0000 1.0000
48.4400 127.0000 1.0000
48.4600 135.0000 1.0000
48.4800 137.0000 1.0000
48.5000 135.0000 1.0000
48.5200 136.0000 1.0000
48.5400 135.0000 1.0000
48.5600 127.0000 1.0000
48.5800 125.0000 1.0000
48.6000 129.0000 1.0000
48.6200 127.0000 1.0000
48.6400 141.0000 1.0000
48.6600 150.0000 1.0000
48.6800 140.0000 1.0000
48.7000 140.0000 1.0000
48.7200 141.0000 1.0000
48.7400 131.0000 1.0000
48.7600 130.0000 1.0000
48.7800 139.0000 1.0000
48.8000 150.0000 1.0000
48.8200 145.0000 1.0000
48.8400 137.0000 1.0000
48.8600 150.0000 1.0000
48.8800 144.0000 1.0000
48.9000 140.0000 1.0000
48.9200 143.0000 1.0000
48.9400 152.0000 1.0000
48.9600 148.0000 1.0000
48.9800 145.0000 1.0000
49.0000 155.0000 1.0000
49.0200 144.0000 1.0000
49.0400 153.0000 1.0000
49.0600 167.0000 1.0000
49.0800 174.0000 1.0000
49.1000 181.0000 1.0000
49.1200 195.0000 1.0000
49.1400 208.0000 1.0000
49.1600 198.0000 1.0000
49.1800 194.0000 1.0000
49.2000 205.0000 1.0000
49.2200 194.0000 1.0000
49.2400 194.0000 1.0000
49.2600 201.0000 1.0000
49.2800 191.0000 1.0000
49.3000 178.0000 1.0000
49.3200 179.0000 1.0000
49.3400 191.0000 1.0000
49.3600 188.0000 1.0000
49.3800 178.0000 1.0000
49.4000 178.0000 1.0000
49.4200 183.0000 1.0000
49.4400 172.0000 1.0000
49.4600 191.0000 1.0000
49.4800 199.0000 1.0000
49.5000 186.0000 1.0000
49.5200 183.0000 1.0000
49.5400 203.0000 1.0000
49.5600 225.0000 1.0000
49.5800 222.0000 1.0000
49.6000 226.0000 1.0000
49.6200 238.0000 1.0000
49.6400 241.0000 1.0000
49.6600 239.0000 1.0000
49.6800 228.0000 1.0000
49.7000 226.0000 1.0000
49.7200 236.0000 1.0000
49.7400 240.0000 1.0000
49.7600 239.0000 1.0000
49.7800 239.0000 1.0000
49.8000 246.0000 1.0000
49.8200 254.0000 1.0000
49.8400 268.0000 1.0000
49.8600 280.0000 1.0000
49.8800 288.0000 1.0000
49.9000 305.0000 1.0000
49.9200 343.0000 1.0000
49.9400 386.0000 1.0000
49.9600 466.0000 1.0000
49.9800 549.0000 1.0000
50.0000 662.0000 1.0000
50.0200 781.0000 1.0000
50.0400 837.0000 1.0000
50.0600 875.0000 1.0000
50.0800 871.0000 1.0000
50.1000 797.0000 1.0000
50.1200 731.0000 1.0000
50.1400 648.0000 1.0000
50.1600 592.0000 1.0000
50.1800 559.0000 1.0000
50.2000 534.0000 1.0000
50.2200 461.0000 1.0000
50.2400 412.0000 1.0000
50.2600 388.0000 1.0000
50.2800 315.0000 1.0000
50.3000 262.0000 1.0000
50.3200 239.0000 1.0000
50.3400 220.0000 1.0000
50.3600 194.0000 1.0000
50.3800 202.0000 1.0000
50.4000 208.0000 1.0000
50.4200 229.0000 1.0000
50.4400 214.0000 1.0000
50.4600 214.0000 1.0000
50.4800 218.0000 1.0000
50.5000 232.0000 1.0000
50.5200 236.0000 1.0000
50.5400 240.0000 1.0000
50.5600 208.0000 1.0000
50.5800 217.0000 1.0000
50.6000 214.0000 1.0000
50.6200 190.0000 1.0000
50.6400 208.0000 1.0000
50.6600 233.0000 1.0000
50.6800 236.0000 1.0000
50.7000 218.0000 1.0000
50.7200 212.0000 1.0000
50.7400 218.0000 1.0000
50.7600 201.0000 1.0000
50.7800 183.0000 1.0000
50.8000 188.0000 1.0000
50.8200 194.0000 1.0000
50.8400 170.0000 1.0000
50.8600 184.0000 1.0000
50.8800 187.0000 1.0000
50.9000 175.0000 1.0000
50.9200 141.0000 1.0000
50.9400 157.0000 1.0000
50.9600 158.0000 1.0000
50.9800 143.0000 1.0000
51.0000 142.0000 1.0000
51.0200 157.0000 1.0000
51.0400 155.0000 1.0000
51.0600 161.0000 1.0000
51.0800 180.0000 1.0000
51.1000 163.0000 1.0000
51.1200 196.0000 1.0000
51.1400 177.0000 1.0000
51.1600 164.0000 1.0000
51.1800 171.0000 1.0000
51.2000 181.0000 1.0000
51.2200 173.0000 1.0000
51.2400 178.0000 1.0000
51.2600 168.0000 1.0000
51.2800 165.0000 1.0000
51.3000 156.0000 1.0000
51.3200 147.0000 1.0000
51.3400 160.0000 1.0000
51.3600 159.0000 1.0000
51.3800 168.0000 1.0000
51.4000 163.0000 1.0000
51.4200 169.0000 1.0000
51.4400 182.0000 1.0000
51.4600 170.0000 1.0000
51.4800 208.0000 1.0000
51.5000 169.0000 1.0000
51.5200 134.0000 1.0000
51.5400 170.0000 1.0000
51.5600 139.0000 1.0000
51.5800 152.0000 1.0000
51.6000 149.0000 1.0000
51.6200 156.0000 1.0000
51.6400 138.0000 1.0000
51.6600 139.0000 1.0000
51.6800 131.0000 1.0000
51.7000 135.0000 1.0000
51.7200 131.0000 1.0000
51.7400 127.0000 1.0000
51.7600 137.0000 1.0000
51.7800 150.0000 1.0000
51.8000 151.0000 1.0000
51.8200 142.0000 1.0000
51.8400 134.0000 1.0000
51.8600 147.0000 1.0000
51.8800 152.0000 1.0000
51.9000 163.0000 1.0000
51.9200 148.0000 1.0000
51.9400 146.0000 1.0000
51.9600 158.0000 1.0000
51.9800 152.0000 1.0000
52.0000 160.0000 1.0000
52.0200 174.0000 1.0000
52.0400 162.0000 1.0000
52.0600 161.0000 1.0000
52.0800 170.0000 1.0000
52.1000 160.0000 1.0000
52.1200 195.0000 1.0000
52.1400 190.0000 1.0000
52.1600 193.0000 1.0000
52.1800 194.0000 1.0000
52.2000 206.0000 1.0000
52.2200 207.0000 1.0000
52.2400 215.0000 1.0000
52.2600 221.0000 1.0000
52.2800 206.0000 1.0000
52.3000 250.0000 1.0000
52.3200 298.0000 1.0000
52.3400 336.0000 1.0000
52.3600 355.0000 1.0000
52.3800 412.0000 1.0000
52.4000 537.0000 1.0000
52.4200 531.0000 1.0000
52.4400 709.0000 1.0000
52.4600 690.0000 1.0000
52.4800 763.0000 1.0000
52.5000 825.0000 1.0000
52.5200 766.0000 1.0000
52.5400 717.0000 1.0000
52.5600 637.0000 1.0000
52.5800 616.0000 1.0000
52.6000 536.0000 1.0000
52.6200 565.0000 1.0000
52.6400 498.0000 1.0000
52.6600 443.0000 1.0000
52.6800 392.0000 1.0000
52.7000 314.0000 1.0000
52.7200 251.0000 1.0000
52.7400 247.0000 1.0000
52.7600 233.0000 1.0000
52.7800 201.0000 1.0000
52.8000 189.0000 1.0000
52.8200 192.0000 1.0000
52.8400 177.0000 1.0000
52.8600 191.0000 1.0000
52.8800 194.0000 1.0000
52.9000 197.0000 1.0000
52.9200 175.0000 1.0000
52.9400 160.0000 1.0000
52.9600 189.0000 1.0000
52.9800 176.0000 1.0000
53.0000 172.0000 1.0000
53.0200 186.0000 1.0000
53.0400 165.0000 1.0000
53.0600 178.0000 1.0000
53.0800 201.0000 1.0000
53.1000 178.0000 1.0000
53.1200 196.0000 1.0000
53.1400 192.0000 1.0000
53.1600 194.0000 1.0000
53.1800 197.0000 1.0000
53.2000 190.0000 1.0000
53.2200 188.0000 1.0000
53.2400 191.0000 1.0000
53.2600 199.0000 1.0000
53.2800 189.0000 1.0000
53.3000 168.0000 1.0000
53.3200 181.0000 1.0000
53.3400 192.0000 1.0000
53.3600 164.0000 1.0000
53.3800 171.0000 1.0000
53.4000 141.0000 1.0000
53.4200 150.0000 1.0000
53.4400 156.0000 1.0000
53.4600 159.0000 1.0000
53.4800 169.0000 1.0000
53.5000 158.0000 1.0000
53.5200 155.0000 1.0000
53.5400 138.0000 1.0000
53.5600 140.0000 1.0000
53.5800 165.0000 1.0000
53.6000 154.0000 1.0000
53.6200 153.0000 1.0000
53.6400 135.0000 1.0000
53.6600 151.0000 1.0000
53.6800 163.0000 1.0000
53.7000 153.0000 1.0000
53.7200 158.0000 1.0000
53.7400 142.0000 1.0000
53.7600 167.0000 1.0000
53.7800 167.0000 1.0000
53.8000 155.0000 1.0000
53.8200 148.0000 1.0000
53.8400 153.0000 1.0000
53.8600 166.0000 1.0000
53.8800 162.0000 1.0000
53.9000 143.0000 1.0000
53.9200 161.0000 1.0000
53.9400 149.0000 1.0000
53.9600 165.0000 1.0000
53.9800 172.0000 1.0000
54.0000 162.0000 1.0000
54.0200 162.0000 1.0000
54.0400 138.0000 1.0000
54.0600 150.0000 1.0000
54.0800 145.0000 1.0000
54.1000 158.0000 1.0000
54.1200 158.0000 1.0000
54.1400 151.0000 1.0000
54.1600 163.0000 1.0000
54.1800 156.0000 1.0000
54.2000 158.0000 1.0000
54.2200 159.0000 1.0000
54.2400 177.0000 1.0000
54.2600 164.0000 1.0000
54.2800 165.0000 1.0000
54.3000 152.0000 1.0000
54.3200 146.0000 1.0000
54.3400 167.0000 1.0000
54.3600 174.0000 1.0000
54.3800 179.0000 1.0000
54.4000 167.0000 1.0000
54.4200 150.0000 1.0000
54.4400 159.0000 1.0000
54.4600 164.0000 1.0000
54.4800 165.0000 1.0000
54.5000 159.0000 1.0000
54.5200 160.0000 1.0000
54.5400 164.0000 1.0000
54.5600 170.0000 1.0000
54.5800 186.0000 1.0000
54.6000 191.0000 1.0000
54.6200 193.0000 1.0000
54.6400 188.0000 1.0000
54.6600 206.0000 1.0000
54.6800 226.0000 1.0000
54.7000 245.0000 1.0000
54.7200 294.0000 1.0000
54.7400 324.0000 1.0000
54.7600 366.0000 1.0000
54.7800 363.0000 1.0000
54.8000 359.0000 1.0000
54.8200 369.0000 1.0000
54.8400 334.0000 1.0000
54.8600 334.0000 1.0000
54.8800 343.0000 1.0000
54.9000 307.0000 1.0000
54.9200 294.0000 1.0000
54.9400 306.0000 1.0000
54.9600 299.0000 1.0000
54.9800 273.0000 1.0000
55.0000 238.0000 1.0000
55.0200 245.0000 1.0000
55.0400 246.0000 1.0000
55.0600 223.0000 1.0000
55.0800 202.0000 1.0000
55.1000 202.0000 1.0000
55.1200 208.0000 1.0000
55.1400 206.0000 1.0000
55.1600 212.0000 1.0000
55.1800 242.0000 1.0000
55.2000 243.0000 1.0000
55.2200 238.0000 1.0000
55.2400 245.0000 1.0000
55.2600 246.0000 1.0000
55.2800 242.0000 1.0000
55.3000 239.0000 1.0000
55.3200 237.0000 1.0000
55.3400 217.0000 1.0000
55.3600 206.0000 1.0000
55.3800 218.0000 1.0000
55.4000 224.0000 1.0000
55.4200 211.0000 1.0000
55.4400 205.0000 1.0000
55.4600 205.0000 1.0000
55.4800 215.0000 1.0000
55.5000 206.0000 1.0000
55.5200 198.0000 1.0000
55.5400 188.0000 1.0000
55.5600 179.0000 1.0000
55.5800 184.0000 1.0000
55.6000 177.0000 1.0000
55.6200 170.0000 1.0000
55.6400 173.0000 1.0000
55.6600 162.0000 1.0000
55.6800 149.0000 1.0000
55.7000 163.0000 1.0000
55.7200 169.0000 1.0000
55.7400 166.0000 1.0000
55.7600 162.0000 1.0000
55.7800 162.0000 1.0000
55.8000 167.0000 1.0000
55.8200 157.0000 1.0000
55.8400 163.0000 1.0000
55.8600 174.0000 1.0000
55.8800 167.0000 1.0000
55.9000 168.0000 1.0000
55.9200 173.0000 1.0000
55.9400 158.0000 1.0000
55.9600 157.0000 1.0000
55.9800 161.0000 1.0000
56.0000 160.0000 1.0000
56.0200 162.0000 1.0000
56.0400 178.0000 1.0000
56.0600 180.0000 1.0000
56.0800 168.0000 1.0000
56.1000 175.0000 1.0000
56.1200 170.0000 1.0000
56.1400 170.0000 1.0000
56.1600 170.0000 1.0000
56.1800 178.0000 1.0000
56.2000 180.0000 1.0000
56.2200 183.0000 1.0000
56.2400 192.0000 1.0000
56.2600 197.0000 1.0000
56.2800 183.0000 1.0000
56.3000 179.0000 1.0000
56.3200 207.0000 1.0000
56.3400 215.0000 1.0000
56.3600 217.0000 1.0000
56.3800 222.0000 1.0000
56.4000 213.0000 1.0000
56.4200 214.0000 1.0000
56.4400 208.0000 1.0000
56.4600 213.0000 1.0000
56.4800 214.0000 1.0000
56.5000 212.0000 1.0000
56.5200 221.0000 1.0000
56.5400 219.0000 1.0000
56.5600 227.0000 1.0000
56.5800 215.0000 1.0000
56.6000 202.0000 1.0000
56.6200 198.0000 1.0000
56.6400 209.0000 1.0000
56.6600 195.0000 1.0000
56.6800 192.0000 1.0000
56.7000 203.0000 1.0000
56.7200 208.0000 1.0000
56.7400 217.0000 1.0000
56.7600 210.0000 1.0000
56.7800 205.0000 1.0000
56.8000 211.0000 1.0000
56.8200 190.0000 1.0000
56.8400 168.0000 1.0000
56.8600 175.0000 1.0000
56.8800 182.0000 1.0000
56.9000 177.0000 1.0000
56.9200 192.0000 1.0000
56.9400 179.0000 1.0000
56.9600 170.0000 1.0000
56.9800 178.0000 1.0000
57.0000 184.0000 1.0000
57.0200 194.0000 1.0000
57.0400 193.0000 1.0000
57.0600 191.0000 1.0000
57.0800 196.0000 1.0000
57.1000 210.0000 1.0000
57.1200 217.0000 1.0000
57.1400 228.0000 1.0000
57.1600 232.0000 1.0000
57.1800 247.0000 1.0000
57.2000 272.0000 1.0000
57.2200 289.0000 1.0000
57.2400 314.0000 1.0000
57.2600 360.0000 1.0000
57.2800 411.0000 1.0000
57.3000 483.0000 1.0000
57.3200 581.0000 1.0000
57.3400 718.0000 1.0000
57.3600 907.0000 1.0000
57.3800 1114.0000 1.0000
57.4000 1230.0000 1.0000
57.4200 1357.0000 1.0000
57.4400 1382.0000 1.0000
57.4600 1323.0000 1.0000
57.4800 1199.0000 1.0000
57.5000 1065.0000 1.0000
57.5200 941.0000 1.0000
57.5400 940.0000 1.0000
57.5600 895.0000 1.0000
57.5800 856.0000 1.0000
57.6000 811.0000 1.0000
57.6200 703.0000 1.0000
57.6400 603.0000 1.0000
57.6600 515.0000 1.0000
57.6800 443.0000 1.0000
57.7000 333.0000 1.0000
57.7200 273.0000 1.0000
57.7400 258.0000 1.0000
57.7600 219.0000 1.0000
57.7800 194.0000 1.0000
57.8000 189.0000 1.0000
57.8200 192.0000 1.0000
57.8400 181.0000 1.0000
57.8600 169.0000 1.0000
57.8800 179.0000 1.0000
57.9000 178.0000 1.0000
57.9200 176.0000 1.0000
57.9400 157.0000 1.0000
57.9600 160.0000 1.0000
57.9800 157.0000 1.0000
58.0000 154.0000 1.0000
58.0200 161.0000 1.0000
58.0400 157.0000 1.0000
58.0600 163.0000 1.0000
58.0800 153.0000 1.0000
58.1000 144.0000 1.0000
58.1200 148.0000 1.0000
58.1400 142.0000 1.0000
58.1600 149.0000 1.0000
58.1800 150.0000 1.0000
58.2000 153.0000 1.0000
58.2200 155.0000 1.0000
58.2400 148.0000 1.0000
58.2600 137.0000 1.0000
58.2800 128.0000 1.0000
58.3000 147.0000 1.0000
58.3200 136.0000 1.0000
58.3400 138.0000 1.0000
58.3600 144.0000 1.0000
58.3800 151.0000 1.0000
58.4000 139.0000 1.0000
58.4200 138.0000 1.0000
58.4400 129.0000 1.0000
58.4600 156.0000 1.0000
58.4800 152.0000 1.0000
58.5000 153.0000 1.0000
58.5200 151.0000 1.0000
58.5400 148.0000 1.0000
58.5600 144.0000 1.0000
58.5800 153.0000 1.0000
58.6000 158.0000 1.0000
58.6200 129.0000 1.0000
58.6400 146.0000 1.0000
58.6600 176.0000 1.0000
58.6800 169.0000 1.0000
58.7000 161.0000 1.0000
58.7200 154.0000 1.0000
58.7400 154.0000 1.0000
58.7600 164.0000 1.0000
58.7800 161.0000 1.0000
58.8000 140.0000 1.0000
58.8200 141.0000 1.0000
58.8400 138.0000 1.0000
58.8600 146.0000 1.0000
58.8800 145.0000 1.0000
58.9000 148.0000 1.0000
58.9200 140.0000 1.0000
58.9400 155.0000 1.0000
58.9600 138.0000 1.0000
58.9800 141.0000 1.0000
59.0000 128.0000 1.0000
59.0200 138.0000 1.0000
59.0400 151.0000 1.0000
59.0600 129.0000 1.0000
59.0800 151.0000 1.0000
59.1000 154.0000 1.0000
59.1200 166.0000 1.0000
59.1400 143.0000 1.0000
59.1600 155.0000 1.0000
59.1800 148.0000 1.0000
59.2000 154.0000 1.0000
59.2200 151.0000 1.0000
59.2400 163.0000 1.0000
59.2600 169.0000 1.0000
59.2800 153.0000 1.0000
59.3000 146.0000 1.0000
59.3200 152.0000 1.0000
59.3400 164.0000 1.0000
59.3600 174.0000 1.0000
59.3800 166.0000 1.0000
59.4000 169.0000 1.0000
59.4200 179.0000 1.0000
59.4400 161.0000 1.0000
59.4600 162.0000 1.0000
59.4800 176.0000 1.0000
59.5000 182.0000 1.0000
59.5200 174.0000 1.0000
59.5400 191.0000 1.0000
59.5600 205.0000 1.0000
59.5800 203.0000 1.0000
59.6000 203.0000 1.0000
59.6200 199.0000 1.0000
59.6400 225.0000 1.0000
59.6600 228.0000 1.0000
59.6800 229.0000 1.0000
59.7000 261.0000 1.0000
59.7200 264.0000 1.0000
59.7400 309.0000 1.0000
59.7600 304.0000 1.0000
59.7800 379.0000 1.0000
59.8000 442.0000 1.0000
59.8200 474.0000 1.0000
59.8400 566.0000 1.0000
59.8600 597.0000 1.0000
59.8800 679.0000 1.0000
59.9000 629.0000 1.0000
59.9200 583.0000 1.0000
59.9400 571.0000 1.0000
59.9600 505.0000 1.0000
59.9800 467.0000 1.0000
60.0000 427.0000 1.0000
60.0200 452.0000 1.0000
60.0400 456.0000 1.0000
60.0600 404.0000 1.0000
60.0800 376.0000 1.0000
60.1000 370.0000 1.0000
60.1200 328.0000 1.0000
60.1400 268.0000 1.0000
60.1600 258.0000 1.0000
60.1800 247.0000 1.0000
60.2000 207.0000 1.0000
60.2200 216.0000 1.0000
60.2400 241.0000 1.0000
60.2600 184.0000 1.0000
60.2800 212.0000 1.0000
60.3000 201.0000 1.0000
60.3200 209.0000 1.0000
60.3400 193.0000 1.0000
60.3600 199.0000 1.0000
60.3800 171.0000 1.0000
60.4000 183.0000 1.0000
60.4200 177.0000 1.0000
60.4400 174.0000 1.0000
60.4600 180.0000 1.0000
60.4800 188.0000 1.0000
60.5000 191.0000 1.0000
60.5200 198.0000 1.0000
60.5400 170.0000 1.0000
60.5600 158.0000 1.0000
60.5800 174.0000 1.0000
60.6000 188.0000 1.0000
60.6200 204.0000 1.0000
60.6400 173.0000 1.0000
60.6600 166.0000 1.0000
60.6800 172.0000 1.0000
60.7000 195.0000 1.0000
60.7200 160.0000 1.0000
60.7400 175.0000 1.0000
60.7600 192.0000 1.0000
60.7800 192.0000 1.0000
60.8000 179.0000 1.0000
60.8200 195.0000 1.0000
60.8400 177.0000 1.0000
60.8600 188.0000 1.0000
60.8800 182.0000 1.0000
60.9000 182.0000 1.0000
60.9200 184.0000 1.0000
60.9400 178.0000 1.0000
60.9600 205.0000 1.0000
60.9800 214.0000 1.0000
61.0000 196.0000 1.0000
61.0200 220.0000 1.0000
61.0400 224.0000 1.0000
61.0600 230.0000 1.0000
61.0800 250.0000 1.0000
61.1000 236.0000 1.0000
61.1200 227.0000 1.0000
61.1400 262.0000 1.0000
61.1600 248.0000 1.0000
61.1800 253.0000 1.0000
61.2000 269.0000 1.0000
61.2200 288.0000 1.0000
61.2400 311.0000 1.0000
61.2600 287.0000 1.0000
61.2800 283.0000 1.0000
61.3000 284.0000 1.0000
61.3200 258.0000 1.0000
61.3400 252.0000 1.0000
61.3600 278.0000 1.0000
61.3800 279.0000 1.0000
61.4000 282.0000 1.0000
61.4200 272.0000 1.0000
61.4400 250.0000 1.0000
61.4600 265.0000 1.0000
61.4800 281.0000 1.0000
61.5000 252.0000 1.0000
61.5200 233.0000 1.0000
61.5400 244.0000 1.0000
61.5600 274.0000 1.0000
61.5800 266.0000 1.0000
61.6000 226.0000 1.0000
61.6200 260.0000 1.0000
61.6400 259.0000 1.0000
61.6600 264.0000 1.0000
61.6800 235.0000 1.0000
61.7000 268.0000 1.0000
61.7200 265.0000 1.0000
61.7400 271.0000 1.0000
61.7600 256.0000 1.0000
61.7800 237.0000 1.0000
61.8000 271.0000 1.0000
61.8200 273.0000 1.0000
61.8400 251.0000 1.0000
61.8600 258.0000 1.0000
61.8800 276.0000 1.0000
61.9000 246.0000 1.0000
61.9200 221.0000 1.0000
61.9400 242.0000 1.0000
61.9600 250.0000 1.0000
61.9800 237.0000 1.0000
62.0000 227.0000 1.0000
62.0200 245.0000 1.0000
62.0400 256.0000 1.0000
62.0600 247.0000 1.0000
62.0800 229.0000 1.0000
62.1000 201.0000 1.0000
62.1200 215.0000 1.0000
62.1400 200.0000 1.0000
62.1600 221.0000 1.0000
62.1800 203.0000 1.0000
62.2000 207.0000 1.0000
62.2200 206.0000 1.0000
62.2400 200.0000 1.0000
62.2600 184.0000 1.0000
62.2800 177.0000 1.0000
62.3000 183.0000 1.0000
62.3200 190.0000 1.0000
62.3400 187.0000 1.0000
62.3600 192.0000 1.0000
62.3800 173.0000 1.0000
62.4000 163.0000 1.0000
62.4200 176.0000 1.0000
62.4400 182.0000 1.0000
62.4600 171.0000 1.0000
62.4800 158.0000 1.0000
62.5000 170.0000 1.0000
62.5200 189.0000 1.0000
62.5400 179.0000 1.0000
62.5600 160.0000 1.0000
62.5800 170.0000 1.0000
62.6000 176.0000 1.0000
62.6200 186.0000 1.0000
62.6400 166.0000 1.0000
62.6600 174.0000 1.0000
62.6800 163.0000 1.0000
62.7000 152.0000 1.0000
62.7200 177.0000 1.0000
62.7400 152.0000 1.0000
62.7600 127.0000 1.0000
62.7800 127.0000 1.0000
62.8000 151.0000 1.0000
62.8200 172.0000 1.0000
62.8400 171.0000 1.0000
62.8600 160.0000 1.0000
62.8800 149.0000 1.0000
62.9000 146.0000 1.0000
62.9200 132.0000 1.0000
62.9400 134.0000 1.0000
62.9600 145.0000 1.0000
62.9800 140.0000 1.0000
63.0000 155.0000 1.0000
63.0200 133.0000 1.0000
63.0400 132.0000 1.0000
63.0600 147.0000 1.0000
63.0800 128.0000 1.0000
63.1000 121.0000 1.0000
63.1200 116.0000 1.0000
63.1400 133.0000 1.0000
63.1600 125.0000 1.0000
63.1800 131.0000 1.0000
63.2000 138.0000 1.0000
63.2200 137.0000 1.0000
63.2400 139.0000 1.0000
63.2600 137.0000 1.0000
63.2800 138.0000 1.0000
63.3000 123.0000 1.0000
63.3200 126.0000 1.0000
63.3400 137.0000 1.0000
63.3600 139.0000 1.0000
63.3800 157.0000 1.0000
63.4000 146.0000 1.0000
63.4200 136.0000 1.0000
63.4400 158.0000 1.0000
63.4600 146.0000 1.0000
63.4800 139.0000 1.0000
63.5000 145.0000 1.0000
63.5200 139.0000 1.0000
63.5400 148.0000 1.0000
63.5600 152.0000 1.0000
63.5800 138.0000 1.0000
63.6000 155.0000 1.0000
63.6200 149.0000 1.0000
63.6400 152.0000 1.0000
63.6600 153.0000 1.0000
63.6800 171.0000 1.0000
63.7000 158.0000 1.0000
63.7200 157.0000 1.0000
63.7400 169.0000 1.0000
63.7600 166.0000 1.0000
63.7800 186.0000 1.0000
63.8000 157.0000 1.0000
63.8200 171.0000 1.0000
63.8400 187.0000 1.0000
63.8600 181.0000 1.0000
63.8800 224.0000 1.0000
63.9000 225.0000 1.0000
63.9200 208.0000 1.0000
63.9400 224.0000 1.0000
63.9600 198.0000 1.0000
63.9800 203.0000 1.0000
64.0000 254.0000 1.0000
64.0200 236.0000 1.0000
64.0400 197.0000 1.0000
64.0600 191.0000 1.0000
64.0800 175.0000 1.0000
64.1000 201.0000 1.0000
64.1200 201.0000 1.0000
64.1400 191.0000 1.0000
64.1600 187.0000 1.0000
64.1800 171.0000 1.0000
64.2000 170.0000 1.0000
64.2200 156.0000 1.0000
64.2400 132.0000 1.0000
64.2600 141.0000 1.0000
64.2800 157.0000 1.0000
64.3000 140.0000 1.0000
64.3200 137.0000 1.0000
64.3400 134.0000 1.0000
64.3600 132.0000 1.0000
64.3800 133.0000 1.0000
64.4000 138.0000 1.0000
64.4200 129.0000 1.0000
64.4400 126.0000 1.0000
64.4600 138.0000 1.0000
64.4800 128.0000 1.0000
64.5000 129.0000 1.0000
64.5200 135.0000 1.0000
64.5400 132.0000 1.0000
64.5600 123.0000 1.0000
64.5800 126.0000 1.0000
64.6000 131.0000 1.0000
64.6200 131.0000 1.0000
64.6400 134.0000 1.0000
64.6600 137.0000 1.0000
64.6800 145.0000 1.0000
64.7000 133.0000 1.0000
64.7200 133.0000 1.0000
64.7400 136.0000 1.0000
64.7600 124.0000 1.0000
64.7800 145.0000 1.0000
64.8000 137.0000 1.0000
64.8200 141.0000 1.0000
64.8400 143.0000 1.0000
64.8600 144.0000 1.0000
64.8800 130.0000 1.0000
64.9000 135.0000 1.0000
64.9200 138.0000 1.0000
64.9400 139.0000 1.0000
64.9600 140.0000 1.0000
64.9800 140.0000 1.0000
65.0000 140.0000 1.0000
*RAS_INT_END
*RAS_DATA_END
