*RAS_DATA_START
*RAS_HEADER_START
*CORR_POS_DB_NAME "Angle Correction ASC6 SC WITH Mono_04082019"
*CORR_POS_GONIO_RADIUS ""
*CORR_POS_NODE_INDEX01 ""
*CORR_POS_NODE_INDEX02 ""
*CORR_POS_NODE_INDEX03 ""
*CORR_POS_NODE_INDEX04 ""
*CORR_POS_NODE_INDEX05 ""
*CORR_POS_NODE_INDEX06 ""
*CORR_POS_NODE_INDEX07 ""
*CORR_POS_NODE_INDEX08 ""
*CORR_POS_NODE_INDEX09 ""
*CORR_POS_NODE_INDEX10 ""
*CORR_POS_NODE_INDEX11 ""
*CORR_POS_NODE_LABEL01 "Si(111)"
*CORR_POS_NODE_LABEL02 "Si(220)"
*CORR_POS_NODE_LABEL03 "Si(311)"
*CORR_POS_NODE_LABEL04 "Si(400)"
*CORR_POS_NODE_LABEL05 "Si(331)"
*CORR_POS_NODE_LABEL06 "Si(422)"
*CORR_POS_NODE_LABEL07 "Si(511)"
*CORR_POS_NODE_LABEL08 "Si(440)"
*CORR_POS_NODE_LABEL09 "Si(531)"
*CORR_POS_NODE_LABEL10 "Si(620)"
*CORR_POS_NODE_LABEL11 "Si(533)"
*CORR_POS_NODE_POS_CALC01 "28.377"
*CORR_POS_NODE_POS_CALC02 "47.2506"
*CORR_POS_NODE_POS_CALC03 "56.0725"
*CORR_POS_NODE_POS_CALC04 "69.0822"
*CORR_POS_NODE_POS_CALC05 "76.3294"
*CORR_POS_NODE_POS_CALC06 "87.9853"
*CORR_POS_NODE_POS_CALC07 "94.9091"
*CORR_POS_NODE_POS_CALC08 "106.668"
*CORR_POS_NODE_POS_CALC09 "114.054"
*CORR_POS_NODE_POS_CALC10 "127.511"
*CORR_POS_NODE_POS_CALC11 "136.864"
*CORR_POS_NODE_POS_MEAS01 "28.5058"
*CORR_POS_NODE_POS_MEAS02 "47.345"
*CORR_POS_NODE_POS_MEAS03 "56.1421"
*CORR_POS_NODE_POS_MEAS04 "69.1304"
*CORR_POS_NODE_POS_MEAS05 "76.366"
*CORR_POS_NODE_POS_MEAS06 "88.0213"
*CORR_POS_NODE_POS_MEAS07 "94.9406"
*CORR_POS_NODE_POS_MEAS08 "106.689"
*CORR_POS_NODE_POS_MEAS09 "114.065"
*CORR_POS_NODE_POS_MEAS10 "127.518"
*CORR_POS_NODE_POS_MEAS11 "136.869"
*CORR_POS_OPT_ATTR "集中法"
*CORR_POS_PARAM_MU ""
*CORR_POS_PARAM_PL ""
*CORR_POS_SEMODEL_TYPE "0"
*CORR_POS_STANDARD_TYPE ""
*CORR_POS_VALUE_ANALYZER "None"
*CORR_POS_VALUE_CMONO "None"
*CORR_POS_VALUE_IMONO "None"
*CORR_POS_VALUE_IS "1.250deg"
*CORR_POS_VALUE_ISL "10.0mm"
*CORR_POS_VALUE_ISOLLER "5.0deg"
*CORR_POS_VALUE_RS1 "1.250deg"
*CORR_POS_VALUE_RS2 "0.3mm"
*CORR_POS_VALUE_RSOLLER "5.0deg"
*CORR_POS_XG_FOCUS_L ""
*CORR_POS_XG_WAVE_TYPE ""
*CORR_POS_XG_WAVE_VALUE ""
*DISP_FMT_X "%.2f"
*DISP_FMT_Y "%.0f"
*DISP_FULLSCALE "5964.6000000000"
*DISP_LINE_COLOR "255.0000000000"
*DISP_LINE_STYLE "0.0000000000"
*DISP_LINE_WIDTH "0.2500000000"
*DISP_NOTE "Collected Data-36"
*DISP_OFFSET_Y "0.0000000000"
*DISP_PEAKSEARCH_UNIT_Y "CPS"
*DISP_RANGE_BOTTOM "0.0000000000"
*DISP_RANGE_LEFT "5.0000000000"
*DISP_RANGE_LOGCUTOFF "0.0100000000"
*DISP_RANGE_RIGHT "65.0000000000"
*DISP_RANGE_TOP "5964.6000000000"
*DISP_SCALE_MODE_Y "0.0000000000"
*DISP_TAB_NAME "Theta/2-Theta"
*DISP_TITLE_Y "Intensity"
*DISP_UNIT_Y "CPS"
*DISP_WINDOW_NAME "MSG_MACROENGINE"
*FILE_COMMENT " "
*FILE_MD5 ""
*FILE_MEMO " "
*FILE_OPERATOR "Administrator"
*FILE_PART_ID "MEAS_PBEA_00223"
*FILE_SAMPLE " "
*FILE_TYPE "RAS_RAW"
*FILE_USERGROUP "System Manager"
*FILE_VERSION "1.0000000000"
*HW_ATTACHMENT_ID "ATT1031"
*HW_ATTACHMENT_NAME "6サンプルチェンジャ|ASC-6"
*HW_COUNTER_ID-0 "CUT0021"
*HW_COUNTER_ID-1 "CUT0020"
*HW_COUNTER_ID-2 "CUT0020"
*HW_COUNTER_ID-3 "CMC0021"
*HW_COUNTER_NAME-0 "SC-70|SC-70"
*HW_COUNTER_NAME-1 "None|None"
*HW_COUNTER_NAME-2 "None|None"
*HW_COUNTER_NAME-3 "検出器モノクロメータ|Detector monochromator"
*HW_COUNTER_SELECT_NAME "SC-70|SC-70"
*HW_ECP_HV "671.5000000000"
*HW_ECP_HV_UNIT "V"
*HW_GONIOMETER_ID "GON0070"
*HW_GONIOMETER_NAME "MiniFlex 300/600|MiniFlex 300/600"
*HW_GONIOMETER_RADIUS-0 "79.0"
*HW_GONIOMETER_RADIUS-1 "91.5"
*HW_GONIOMETER_RADIUS-2 "150.0"
*HW_GONIOMETER_RADIUS-3 "0"
*HW_GONIOMETER_RADIUS-4 "103.4"
*HW_GONIOMETER_RADIUS-5 "150.0"
*HW_GONIOMETER_RADIUS-6 "46.6"
*HW_GONIOMETER_RADIUS-7 "160.0"
*HW_I_OPT_ID-0 "ISL0021"
*HW_I_OPT_ID-1 "ISO0021"
*HW_I_OPT_NAME-0 "発散スリット|Divergence slit"
*HW_I_OPT_NAME-1 "入射平行スリット|Incident parallel slit"
*HW_R_ATTENUATER_AUTOMODE "0"
*HW_R_OPT_ID-0 "RSS0021"
*HW_R_OPT_ID-1 "RSO0021"
*HW_R_OPT_ID-2 "RRS0021"
*HW_R_OPT_NAME-0 "散乱スリット|Scattering slit"
*HW_R_OPT_NAME-1 "受光平行スリット|Receiving soller slit"
*HW_R_OPT_NAME-2 "受光スリット|Receiving slit"
*HW_SAMPLE_HOLDER_ID "SMP0000"
*HW_SAMPLE_HOLDER_NAME "無し|None"
*HW_XG_CURRENT_MAX "15"
*HW_XG_CURRENT_MIN "2"
*HW_XG_CURRENT_RESOLUTION "1"
*HW_XG_CURRENT_UNIT "mA"
*HW_XG_FOCUS "1mm x 10mm"
*HW_XG_FOCUS_TYPE "Normal"
*HW_XG_ID "1060"
*HW_XG_NAME "300W/600W 封入管-B|300W/600W Sealed tube-B"
*HW_XG_TARGET_ATOMIC_NUMBER "29.0000000000"
*HW_XG_TARGET_NAME "Cu"
*HW_XG_TYPE "Hermetic"
*HW_XG_VOLTAGE_MAX "40"
*HW_XG_VOLTAGE_MIN "20"
*HW_XG_VOLTAGE_RESOLUTION "1"
*HW_XG_VOLTAGE_UNIT "kV"
*HW_XG_WATT_MAX "0.600"
*HW_XG_WATT_UNIT "kW"
*HW_XG_WAVE_LENGTH_ALPHA1 "1.540593"
*HW_XG_WAVE_LENGTH_ALPHA2 "1.544414"
*HW_XG_WAVE_LENGTH_BETA "1.392250"
*MEAS_COND_AXIS_NAME-0 "Theta/2-Theta"
*MEAS_COND_AXIS_NAME-1 "Spin"
*MEAS_COND_AXIS_NAME-2 "Change"
*MEAS_COND_AXIS_NAME-3 "Soller(inc.)"
*MEAS_COND_AXIS_NAME-4 "IHS"
*MEAS_COND_AXIS_NAME-5 "DS"
*MEAS_COND_AXIS_NAME-6 "SS"
*MEAS_COND_AXIS_NAME-7 "Soller(rec.)"
*MEAS_COND_AXIS_NAME-8 "RS"
*MEAS_COND_AXIS_NAME-9 "Filter"
*MEAS_COND_AXIS_NAME-10 "Monochromator"
*MEAS_COND_AXIS_NAME-11 "HV"
*MEAS_COND_AXIS_NAME-12 "PHA"
*MEAS_COND_AXIS_NAME_INTERNAL-0 "TwoThetaTheta"
*MEAS_COND_AXIS_NAME_INTERNAL-1 "Spin"
*MEAS_COND_AXIS_NAME_INTERNAL-2 "Change"
*MEAS_COND_AXIS_NAME_INTERNAL-3 "IncidentSollerSlit"
*MEAS_COND_AXIS_NAME_INTERNAL-4 "IncidentAxdSlit"
*MEAS_COND_AXIS_NAME_INTERNAL-5 "IncidentSlitBox"
*MEAS_COND_AXIS_NAME_INTERNAL-6 "ReceivingSlitBox1"
*MEAS_COND_AXIS_NAME_INTERNAL-7 "ReceivingSollerSlit"
*MEAS_COND_AXIS_NAME_INTERNAL-8 "ReceivingSlitBox2"
*MEAS_COND_AXIS_NAME_INTERNAL-9 "Filter"
*MEAS_COND_AXIS_NAME_INTERNAL-10 "CounterMonochromator"
*MEAS_COND_AXIS_NAME_INTERNAL-11 "HV"
*MEAS_COND_AXIS_NAME_INTERNAL-12 "PHA"
*MEAS_COND_AXIS_NAME_MAGICNO-0 "268632064.0000000000"
*MEAS_COND_AXIS_NAME_MAGICNO-1 "16842752.0000000000"
*MEAS_COND_AXIS_NAME_MAGICNO-2 "16842752.0000000000"
*MEAS_COND_AXIS_NAME_MAGICNO-3 "20971521.0000000000"
*MEAS_COND_AXIS_NAME_MAGICNO-4 "22020097.0000000000"
*MEAS_COND_AXIS_NAME_MAGICNO-5 "22020097.0000000000"
*MEAS_COND_AXIS_NAME_MAGICNO-6 "23068673.0000000000"
*MEAS_COND_AXIS_NAME_MAGICNO-7 "20971521.0000000000"
*MEAS_COND_AXIS_NAME_MAGICNO-8 "23068673.0000000000"
*MEAS_COND_AXIS_NAME_MAGICNO-9 "20971521.0000000000"
*MEAS_COND_AXIS_NAME_MAGICNO-10 "20971521.0000000000"
*MEAS_COND_AXIS_NAME_MAGICNO-11 "0.0000000000"
*MEAS_COND_AXIS_NAME_MAGICNO-12 "0.0000000000"
*MEAS_COND_AXIS_OFFSET-0 "0.0000000000"
*MEAS_COND_AXIS_OFFSET-1 "-"
*MEAS_COND_AXIS_OFFSET-2 "-"
*MEAS_COND_AXIS_OFFSET-3 "-"
*MEAS_COND_AXIS_OFFSET-4 "-"
*MEAS_COND_AXIS_OFFSET-5 "-"
*MEAS_COND_AXIS_OFFSET-6 "-"
*MEAS_COND_AXIS_OFFSET-7 "-"
*MEAS_COND_AXIS_OFFSET-8 "-"
*MEAS_COND_AXIS_OFFSET-9 "-"
*MEAS_COND_AXIS_OFFSET-10 "-"
*MEAS_COND_AXIS_OFFSET-11 "-"
*MEAS_COND_AXIS_OFFSET-12 "-"
*MEAS_COND_AXIS_POSITION-0 "65.0000000000"
*MEAS_COND_AXIS_POSITION-1 "0.0000000000"
*MEAS_COND_AXIS_POSITION-2 "4.0000000000"
*MEAS_COND_AXIS_POSITION-3 "5.0deg"
*MEAS_COND_AXIS_POSITION-4 "10.0mm"
*MEAS_COND_AXIS_POSITION-5 "1.250deg"
*MEAS_COND_AXIS_POSITION-6 "1.250deg"
*MEAS_COND_AXIS_POSITION-7 "5.0deg"
*MEAS_COND_AXIS_POSITION-8 "0.3mm"
*MEAS_COND_AXIS_POSITION-9 "None"
*MEAS_COND_AXIS_POSITION-10 "Bent"
*MEAS_COND_AXIS_POSITION-11 "671.5000000000"
*MEAS_COND_AXIS_POSITION-12 "551.2500000000"
*MEAS_COND_AXIS_UNIT-0 "deg"
*MEAS_COND_AXIS_UNIT-1 ""
*MEAS_COND_AXIS_UNIT-2 ""
*MEAS_COND_AXIS_UNIT-3 ""
*MEAS_COND_AXIS_UNIT-4 ""
*MEAS_COND_AXIS_UNIT-5 ""
*MEAS_COND_AXIS_UNIT-6 ""
*MEAS_COND_AXIS_UNIT-7 ""
*MEAS_COND_AXIS_UNIT-8 ""
*MEAS_COND_AXIS_UNIT-9 ""
*MEAS_COND_AXIS_UNIT-10 ""
*MEAS_COND_AXIS_UNIT-11 "V"
*MEAS_COND_AXIS_UNIT-12 "mV"
*MEAS_COND_CORRECTION_SLIT_COUNTERMONO "None"
*MEAS_COND_CORRECTION_SLIT_DS "1.250deg"
*MEAS_COND_CORRECTION_SLIT_FILTER "None"
*MEAS_COND_CORRECTION_SLIT_IHS "10.0mm"
*MEAS_COND_CORRECTION_SLIT_RS "0.3mm"
*MEAS_COND_CORRECTION_SLIT_SOLLER_INC "5.0deg"
*MEAS_COND_CORRECTION_SLIT_SOLLER_REC "5.0deg"
*MEAS_COND_CORRECTION_SLIT_SS "1.250deg"
*MEAS_COND_COUNTER_CNTLOSS_CORR "0.0000000000"
*MEAS_COND_COUNTER_PHABASE "551.2500000000"
*MEAS_COND_COUNTER_PHAWINDOW "926.2500000000"
*MEAS_COND_COUNTER_PHA_UNIT "mV"
*MEAS_COND_COUNTER_TAUDIFF "0.2500000000"
*MEAS_COND_COUNTER_TAUINT "0.7500000000"
*MEAS_COND_IRRADIATION_MODE "OFF"
*MEAS_COND_IRRADIATION_WIDTH ""
*MEAS_COND_OPT_ATTR " "
*MEAS_COND_OPT_NAME ""
*MEAS_COND_UNSYMMETRIC_MODE "OFF"
*MEAS_COND_XG_CURRENT "15.0000000000"
*MEAS_COND_XG_VOLTAGE "40.0000000000"
*MEAS_COND_XG_WAVE_TYPE "Ka"
*MEAS_DATA_COUNT "3001.0000000000"
*MEAS_SCAN_AXIS_X "Theta/2-Theta"
*MEAS_SCAN_AXIS_X_INTERNAL "TwoThetaTheta"
*MEAS_SCAN_END_TIME "05/09/25 23:31:32"
*MEAS_SCAN_MODE "STEP"
*MEAS_SCAN_MONITOR "0"
*MEAS_SCAN_RESOLUTION_X "0.0025"
*MEAS_SCAN_SPEED "2.00"
*MEAS_SCAN_SPEED_UNIT "sec."
*MEAS_SCAN_SPEED_USER "2.00"
*MEAS_SCAN_START "5.0000000000"
*MEAS_SCAN_START_TIME "05/09/25 21:46:15"
*MEAS_SCAN_STEP "0.0200000000"
*MEAS_SCAN_STOP "65.0000000000"
*MEAS_SCAN_UNIT_X "deg"
*MEAS_SCAN_UNIT_Y "counts"
*SLIT_SYSTEM "0"
*RAS_HEADER_END
*RAS_INT_START
5.0000 971.0000 1.0000
5.0200 960.0000 1.0000
5.0400 871.0000 1.0000
5.0600 982.0000 1.0000
5.0800 981.0000 1.0000
5.1000 989.0000 1.0000
5.1200 919.0000 1.0000
5.1400 915.0000 1.0000
5.1600 912.0000 1.0000
5.1800 973.0000 1.0000
5.2000 912.0000 1.0000
5.2200 1030.0000 1.0000
5.2400 887.0000 1.0000
5.2600 866.0000 1.0000
5.2800 877.0000 1.0000
5.3000 934.0000 1.0000
5.3200 934.0000 1.0000
5.3400 874.0000 1.0000
5.3600 902.0000 1.0000
5.3800 972.0000 1.0000
5.4000 954.0000 1.0000
5.4200 848.0000 1.0000
5.4400 841.0000 1.0000
5.4600 879.0000 1.0000
5.4800 872.0000 1.0000
5.5000 883.0000 1.0000
5.5200 866.0000 1.0000
5.5400 883.0000 1.0000
5.5600 914.0000 1.0000
5.5800 833.0000 1.0000
5.6000 797.0000 1.0000
5.6200 884.0000 1.0000
5.6400 930.0000 1.0000
5.6600 822.0000 1.0000
5.6800 894.0000 1.0000
5.7000 829.0000 1.0000
5.7200 819.0000 1.0000
5.7400 878.0000 1.0000
5.7600 814.0000 1.0000
5.7800 782.0000 1.0000
5.8000 824.0000 1.0000
5.8200 854.0000 1.0000
5.8400 902.0000 1.0000
5.8600 899.0000 1.0000
5.8800 810.0000 1.0000
5.9000 769.0000 1.0000
5.9200 757.0000 1.0000
5.9400 817.0000 1.0000
5.9600 765.0000 1.0000
5.9800 796.0000 1.0000
6.0000 859.0000 1.0000
6.0200 853.0000 1.0000
6.0400 816.0000 1.0000
6.0600 774.0000 1.0000
6.0800 737.0000 1.0000
6.1000 778.0000 1.0000
6.1200 745.0000 1.0000
6.1400 770.0000 1.0000
6.1600 734.0000 1.0000
6.1800 734.0000 1.0000
6.2000 756.0000 1.0000
6.2200 661.0000 1.0000
6.2400 691.0000 1.0000
6.2600 779.0000 1.0000
6.2800 681.0000 1.0000
6.3000 700.0000 1.0000
6.3200 680.0000 1.0000
6.3400 633.0000 1.0000
6.3600 681.0000 1.0000
6.3800 697.0000 1.0000
6.4000 674.0000 1.0000
6.4200 669.0000 1.0000
6.4400 638.0000 1.0000
6.4600 610.0000 1.0000
6.4800 680.0000 1.0000
6.5000 736.0000 1.0000
6.5200 716.0000 1.0000
6.5400 645.0000 1.0000
6.5600 606.0000 1.0000
6.5800 605.0000 1.0000
6.6000 628.0000 1.0000
6.6200 626.0000 1.0000
6.6400 627.0000 1.0000
6.6600 659.0000 1.0000
6.6800 632.0000 1.0000
6.7000 569.0000 1.0000
6.7200 603.0000 1.0000
6.7400 596.0000 1.0000
6.7600 583.0000 1.0000
6.7800 609.0000 1.0000
6.8000 613.0000 1.0000
6.8200 603.0000 1.0000
6.8400 576.0000 1.0000
6.8600 572.0000 1.0000
6.8800 565.0000 1.0000
6.9000 525.0000 1.0000
6.9200 594.0000 1.0000
6.9400 622.0000 1.0000
6.9600 588.0000 1.0000
6.9800 565.0000 1.0000
7.0000 547.0000 1.0000
7.0200 519.0000 1.0000
7.0400 488.0000 1.0000
7.0600 527.0000 1.0000
7.0800 559.0000 1.0000
7.1000 516.0000 1.0000
7.1200 533.0000 1.0000
7.1400 552.0000 1.0000
7.1600 532.0000 1.0000
7.1800 541.0000 1.0000
7.2000 514.0000 1.0000
7.2200 523.0000 1.0000
7.2400 521.0000 1.0000
7.2600 527.0000 1.0000
7.2800 547.0000 1.0000
7.3000 519.0000 1.0000
7.3200 544.0000 1.0000
7.3400 568.0000 1.0000
7.3600 536.0000 1.0000
7.3800 557.0000 1.0000
7.4000 565.0000 1.0000
7.4200 514.0000 1.0000
7.4400 507.0000 1.0000
7.4600 513.0000 1.0000
7.4800 524.0000 1.0000
7.5000 543.0000 1.0000
7.5200 537.0000 1.0000
7.5400 496.0000 1.0000
7.5600 477.0000 1.0000
7.5800 483.0000 1.0000
7.6000 504.0000 1.0000
7.6200 493.0000 1.0000
7.6400 501.0000 1.0000
7.6600 515.0000 1.0000
7.6800 521.0000 1.0000
7.7000 517.0000 1.0000
7.7200 525.0000 1.0000
7.7400 533.0000 1.0000
7.7600 525.0000 1.0000
7.7800 526.0000 1.0000
7.8000 498.0000 1.0000
7.8200 480.0000 1.0000
7.8400 524.0000 1.0000
7.8600 559.0000 1.0000
7.8800 507.0000 1.0000
7.9000 478.0000 1.0000
7.9200 498.0000 1.0000
7.9400 522.0000 1.0000
7.9600 509.0000 1.0000
7.9800 543.0000 1.0000
8.0000 521.0000 1.0000
8.0200 529.0000 1.0000
8.0400 572.0000 1.0000
8.0600 556.0000 1.0000
8.0800 587.0000 1.0000
8.1000 584.0000 1.0000
8.1200 580.0000 1.0000
8.1400 567.0000 1.0000
8.1600 520.0000 1.0000
8.1800 598.0000 1.0000
8.2000 570.0000 1.0000
8.2200 543.0000 1.0000
8.2400 540.0000 1.0000
8.2600 581.0000 1.0000
8.2800 593.0000 1.0000
8.3000 590.0000 1.0000
8.3200 602.0000 1.0000
8.3400 621.0000 1.0000
8.3600 697.0000 1.0000
8.3800 664.0000 1.0000
8.4000 634.0000 1.0000
8.4200 708.0000 1.0000
8.4400 688.0000 1.0000
8.4600 727.0000 1.0000
8.4800 793.0000 1.0000
8.5000 796.0000 1.0000
8.5200 796.0000 1.0000
8.5400 766.0000 1.0000
8.5600 773.0000 1.0000
8.5800 777.0000 1.0000
8.6000 739.0000 1.0000
8.6200 763.0000 1.0000
8.6400 763.0000 1.0000
8.6600 701.0000 1.0000
8.6800 618.0000 1.0000
8.7000 591.0000 1.0000
8.7200 564.0000 1.0000
8.7400 453.0000 1.0000
8.7600 442.0000 1.0000
8.7800 443.0000 1.0000
8.8000 450.0000 1.0000
8.8200 432.0000 1.0000
8.8400 412.0000 1.0000
8.8600 390.0000 1.0000
8.8800 383.0000 1.0000
8.9000 414.0000 1.0000
8.9200 369.0000 1.0000
8.9400 397.0000 1.0000
8.9600 398.0000 1.0000
8.9800 366.0000 1.0000
9.0000 363.0000 1.0000
9.0200 410.0000 1.0000
9.0400 364.0000 1.0000
9.0600 384.0000 1.0000
9.0800 405.0000 1.0000
9.1000 376.0000 1.0000
9.1200 414.0000 1.0000
9.1400 403.0000 1.0000
9.1600 359.0000 1.0000
9.1800 401.0000 1.0000
9.2000 364.0000 1.0000
9.2200 359.0000 1.0000
9.2400 354.0000 1.0000
9.2600 278.0000 1.0000
9.2800 298.0000 1.0000
9.3000 324.0000 1.0000
9.3200 313.0000 1.0000
9.3400 306.0000 1.0000
9.3600 276.0000 1.0000
9.3800 305.0000 1.0000
9.4000 302.0000 1.0000
9.4200 286.0000 1.0000
9.4400 281.0000 1.0000
9.4600 294.0000 1.0000
9.4800 258.0000 1.0000
9.5000 283.0000 1.0000
9.5200 265.0000 1.0000
9.5400 272.0000 1.0000
9.5600 262.0000 1.0000
9.5800 207.0000 1.0000
9.6000 273.0000 1.0000
9.6200 256.0000 1.0000
9.6400 291.0000 1.0000
9.6600 271.0000 1.0000
9.6800 272.0000 1.0000
9.7000 276.0000 1.0000
9.7200 311.0000 1.0000
9.7400 299.0000 1.0000
9.7600 253.0000 1.0000
9.7800 281.0000 1.0000
9.8000 273.0000 1.0000
9.8200 244.0000 1.0000
9.8400 264.0000 1.0000
9.8600 241.0000 1.0000
9.8800 263.0000 1.0000
9.9000 255.0000 1.0000
9.9200 254.0000 1.0000
9.9400 288.0000 1.0000
9.9600 263.0000 1.0000
9.9800 240.0000 1.0000
10.0000 249.0000 1.0000
10.0200 256.0000 1.0000
10.0400 229.0000 1.0000
10.0600 284.0000 1.0000
10.0800 252.0000 1.0000
10.1000 207.0000 1.0000
10.1200 266.0000 1.0000
10.1400 273.0000 1.0000
10.1600 259.0000 1.0000
10.1800 231.0000 1.0000
10.2000 277.0000 1.0000
10.2200 243.0000 1.0000
10.2400 263.0000 1.0000
10.2600 270.0000 1.0000
10.2800 273.0000 1.0000
10.3000 252.0000 1.0000
10.3200 225.0000 1.0000
10.3400 278.0000 1.0000
10.3600 238.0000 1.0000
10.3800 223.0000 1.0000
10.4000 235.0000 1.0000
10.4200 213.0000 1.0000
10.4400 211.0000 1.0000
10.4600 220.0000 1.0000
10.4800 223.0000 1.0000
10.5000 244.0000 1.0000
10.5200 245.0000 1.0000
10.5400 255.0000 1.0000
10.5600 209.0000 1.0000
10.5800 208.0000 1.0000
10.6000 226.0000 1.0000
10.6200 229.0000 1.0000
10.6400 248.0000 1.0000
10.6600 210.0000 1.0000
10.6800 242.0000 1.0000
10.7000 220.0000 1.0000
10.7200 246.0000 1.0000
10.7400 225.0000 1.0000
10.7600 254.0000 1.0000
10.7800 231.0000 1.0000
10.8000 189.0000 1.0000
10.8200 223.0000 1.0000
10.8400 238.0000 1.0000
10.8600 208.0000 1.0000
10.8800 180.0000 1.0000
10.9000 237.0000 1.0000
10.9200 253.0000 1.0000
10.9400 219.0000 1.0000
10.9600 261.0000 1.0000
10.9800 215.0000 1.0000
11.0000 209.0000 1.0000
11.0200 176.0000 1.0000
11.0400 205.0000 1.0000
11.0600 235.0000 1.0000
11.0800 214.0000 1.0000
11.1000 219.0000 1.0000
11.1200 205.0000 1.0000
11.1400 191.0000 1.0000
11.1600 204.0000 1.0000
11.1800 192.0000 1.0000
11.2000 185.0000 1.0000
11.2200 167.0000 1.0000
11.2400 178.0000 1.0000
11.2600 224.0000 1.0000
11.2800 206.0000 1.0000
11.3000 238.0000 1.0000
11.3200 231.0000 1.0000
11.3400 200.0000 1.0000
11.3600 189.0000 1.0000
11.3800 209.0000 1.0000
11.4000 195.0000 1.0000
11.4200 201.0000 1.0000
11.4400 217.0000 1.0000
11.4600 238.0000 1.0000
11.4800 208.0000 1.0000
11.5000 202.0000 1.0000
11.5200 208.0000 1.0000
11.5400 188.0000 1.0000
11.5600 191.0000 1.0000
11.5800 205.0000 1.0000
11.6000 200.0000 1.0000
11.6200 201.0000 1.0000
11.6400 207.0000 1.0000
11.6600 215.0000 1.0000
11.6800 186.0000 1.0000
11.7000 205.0000 1.0000
11.7200 203.0000 1.0000
11.7400 204.0000 1.0000
11.7600 199.0000 1.0000
11.7800 230.0000 1.0000
11.8000 214.0000 1.0000
11.8200 239.0000 1.0000
11.8400 240.0000 1.0000
11.8600 225.0000 1.0000
11.8800 249.0000 1.0000
11.9000 244.0000 1.0000
11.9200 229.0000 1.0000
11.9400 222.0000 1.0000
11.9600 263.0000 1.0000
11.9800 283.0000 1.0000
12.0000 246.0000 1.0000
12.0200 241.0000 1.0000
12.0400 276.0000 1.0000
12.0600 284.0000 1.0000
12.0800 269.0000 1.0000
12.1000 321.0000 1.0000
12.1200 304.0000 1.0000
12.1400 336.0000 1.0000
12.1600 352.0000 1.0000
12.1800 318.0000 1.0000
12.2000 371.0000 1.0000
12.2200 407.0000 1.0000
12.2400 408.0000 1.0000
12.2600 406.0000 1.0000
12.2800 419.0000 1.0000
12.3000 406.0000 1.0000
12.3200 389.0000 1.0000
12.3400 370.0000 1.0000
12.3600 351.0000 1.0000
12.3800 296.0000 1.0000
12.4000 284.0000 1.0000
12.4200 265.0000 1.0000
12.4400 268.0000 1.0000
12.4600 219.0000 1.0000
12.4800 228.0000 1.0000
12.5000 201.0000 1.0000
12.5200 209.0000 1.0000
12.5400 194.0000 1.0000
12.5600 201.0000 1.0000
12.5800 187.0000 1.0000
12.6000 183.0000 1.0000
12.6200 185.0000 1.0000
12.6400 228.0000 1.0000
12.6600 210.0000 1.0000
12.6800 207.0000 1.0000
12.7000 240.0000 1.0000
12.7200 206.0000 1.0000
12.7400 201.0000 1.0000
12.7600 195.0000 1.0000
12.7800 209.0000 1.0000
12.8000 165.0000 1.0000
12.8200 172.0000 1.0000
12.8400 163.0000 1.0000
12.8600 169.0000 1.0000
12.8800 171.0000 1.0000
12.9000 162.0000 1.0000
12.9200 201.0000 1.0000
12.9400 186.0000 1.0000
12.9600 191.0000 1.0000
12.9800 179.0000 1.0000
13.0000 170.0000 1.0000
13.0200 172.0000 1.0000
13.0400 162.0000 1.0000
13.0600 158.0000 1.0000
13.0800 173.0000 1.0000
13.1000 177.0000 1.0000
13.1200 164.0000 1.0000
13.1400 178.0000 1.0000
13.1600 162.0000 1.0000
13.1800 177.0000 1.0000
13.2000 186.0000 1.0000
13.2200 185.0000 1.0000
13.2400 184.0000 1.0000
13.2600 199.0000 1.0000
13.2800 203.0000 1.0000
13.3000 205.0000 1.0000
13.3200 190.0000 1.0000
13.3400 227.0000 1.0000
13.3600 248.0000 1.0000
13.3800 242.0000 1.0000
13.4000 233.0000 1.0000
13.4200 247.0000 1.0000
13.4400 248.0000 1.0000
13.4600 238.0000 1.0000
13.4800 242.0000 1.0000
13.5000 238.0000 1.0000
13.5200 234.0000 1.0000
13.5400 281.0000 1.0000
13.5600 277.0000 1.0000
13.5800 284.0000 1.0000
13.6000 321.0000 1.0000
13.6200 319.0000 1.0000
13.6400 340.0000 1.0000
13.6600 315.0000 1.0000
13.6800 302.0000 1.0000
13.7000 281.0000 1.0000
13.7200 220.0000 1.0000
13.7400 212.0000 1.0000
13.7600 224.0000 1.0000
13.7800 213.0000 1.0000
13.8000 184.0000 1.0000
13.8200 184.0000 1.0000
13.8400 181.0000 1.0000
13.8600 170.0000 1.0000
13.8800 152.0000 1.0000
13.9000 127.0000 1.0000
13.9200 144.0000 1.0000
13.9400 142.0000 1.0000
13.9600 150.0000 1.0000
13.9800 161.0000 1.0000
14.0000 158.0000 1.0000
14.0200 141.0000 1.0000
14.0400 133.0000 1.0000
14.0600 137.0000 1.0000
14.0800 141.0000 1.0000
14.1000 133.0000 1.0000
14.1200 126.0000 1.0000
14.1400 134.0000 1.0000
14.1600 130.0000 1.0000
14.1800 129.0000 1.0000
14.2000 136.0000 1.0000
14.2200 128.0000 1.0000
14.2400 120.0000 1.0000
14.2600 137.0000 1.0000
14.2800 134.0000 1.0000
14.3000 123.0000 1.0000
14.3200 129.0000 1.0000
14.3400 136.0000 1.0000
14.3600 124.0000 1.0000
14.3800 120.0000 1.0000
14.4000 139.0000 1.0000
14.4200 151.0000 1.0000
14.4400 144.0000 1.0000
14.4600 136.0000 1.0000
14.4800 147.0000 1.0000
14.5000 157.0000 1.0000
14.5200 148.0000 1.0000
14.5400 152.0000 1.0000
14.5600 149.0000 1.0000
14.5800 137.0000 1.0000
14.6000 142.0000 1.0000
14.6200 152.0000 1.0000
14.6400 155.0000 1.0000
14.6600 157.0000 1.0000
14.6800 162.0000 1.0000
14.7000 171.0000 1.0000
14.7200 186.0000 1.0000
14.7400 189.0000 1.0000
14.7600 194.0000 1.0000
14.7800 191.0000 1.0000
14.8000 181.0000 1.0000
14.8200 184.0000 1.0000
14.8400 196.0000 1.0000
14.8600 204.0000 1.0000
14.8800 189.0000 1.0000
14.9000 158.0000 1.0000
14.9200 143.0000 1.0000
14.9400 140.0000 1.0000
14.9600 151.0000 1.0000
14.9800 137.0000 1.0000
15.0000 127.0000 1.0000
15.0200 141.0000 1.0000
15.0400 133.0000 1.0000
15.0600 126.0000 1.0000
15.0800 134.0000 1.0000
15.1000 134.0000 1.0000
15.1200 134.0000 1.0000
15.1400 142.0000 1.0000
15.1600 138.0000 1.0000
15.1800 146.0000 1.0000
15.2000 137.0000 1.0000
15.2200 119.0000 1.0000
15.2400 113.0000 1.0000
15.2600 107.0000 1.0000
15.2800 121.0000 1.0000
15.3000 131.0000 1.0000
15.3200 125.0000 1.0000
15.3400 123.0000 1.0000
15.3600 140.0000 1.0000
15.3800 147.0000 1.0000
15.4000 141.0000 1.0000
15.4200 125.0000 1.0000
15.4400 115.0000 1.0000
15.4600 125.0000 1.0000
15.4800 131.0000 1.0000
15.5000 135.0000 1.0000
15.5200 135.0000 1.0000
15.5400 134.0000 1.0000
15.5600 147.0000 1.0000
15.5800 141.0000 1.0000
15.6000 134.0000 1.0000
15.6200 143.0000 1.0000
15.6400 139.0000 1.0000
15.6600 134.0000 1.0000
15.6800 137.0000 1.0000
15.7000 140.0000 1.0000
15.7200 137.0000 1.0000
15.7400 115.0000 1.0000
15.7600 126.0000 1.0000
15.7800 127.0000 1.0000
15.8000 119.0000 1.0000
15.8200 120.0000 1.0000
15.8400 114.0000 1.0000
15.8600 125.0000 1.0000
15.8800 136.0000 1.0000
15.9000 141.0000 1.0000
15.9200 134.0000 1.0000
15.9400 115.0000 1.0000
15.9600 111.0000 1.0000
15.9800 129.0000 1.0000
16.0000 133.0000 1.0000
16.0200 111.0000 1.0000
16.0400 110.0000 1.0000
16.0600 113.0000 1.0000
16.0800 108.0000 1.0000
16.1000 114.0000 1.0000
16.1200 127.0000 1.0000
16.1400 117.0000 1.0000
16.1600 108.0000 1.0000
16.1800 127.0000 1.0000
16.2000 127.0000 1.0000
16.2200 129.0000 1.0000
16.2400 136.0000 1.0000
16.2600 131.0000 1.0000
16.2800 128.0000 1.0000
16.3000 140.0000 1.0000
16.3200 149.0000 1.0000
16.3400 136.0000 1.0000
16.3600 127.0000 1.0000
16.3800 132.0000 1.0000
16.4000 115.0000 1.0000
16.4200 121.0000 1.0000
16.4400 108.0000 1.0000
16.4600 112.0000 1.0000
16.4800 117.0000 1.0000
16.5000 125.0000 1.0000
16.5200 120.0000 1.0000
16.5400 116.0000 1.0000
16.5600 119.0000 1.0000
16.5800 131.0000 1.0000
16.6000 116.0000 1.0000
16.6200 117.0000 1.0000
16.6400 117.0000 1.0000
16.6600 125.0000 1.0000
16.6800 112.0000 1.0000
16.7000 120.0000 1.0000
16.7200 123.0000 1.0000
16.7400 116.0000 1.0000
16.7600 114.0000 1.0000
16.7800 123.0000 1.0000
16.8000 129.0000 1.0000
16.8200 119.0000 1.0000
16.8400 120.0000 1.0000
16.8600 128.0000 1.0000
16.8800 121.0000 1.0000
16.9000 111.0000 1.0000
16.9200 105.0000 1.0000
16.9400 114.0000 1.0000
16.9600 127.0000 1.0000
16.9800 135.0000 1.0000
17.0000 131.0000 1.0000
17.0200 126.0000 1.0000
17.0400 121.0000 1.0000
17.0600 120.0000 1.0000
17.0800 131.0000 1.0000
17.1000 138.0000 1.0000
17.1200 128.0000 1.0000
17.1400 147.0000 1.0000
17.1600 132.0000 1.0000
17.1800 134.0000 1.0000
17.2000 150.0000 1.0000
17.2200 143.0000 1.0000
17.2400 137.0000 1.0000
17.2600 138.0000 1.0000
17.2800 167.0000 1.0000
17.3000 165.0000 1.0000
17.3200 140.0000 1.0000
17.3400 151.0000 1.0000
17.3600 159.0000 1.0000
17.3800 167.0000 1.0000
17.4000 177.0000 1.0000
17.4200 171.0000 1.0000
17.4400 178.0000 1.0000
17.4600 191.0000 1.0000
17.4800 167.0000 1.0000
17.5000 168.0000 1.0000
17.5200 164.0000 1.0000
17.5400 188.0000 1.0000
17.5600 185.0000 1.0000
17.5800 183.0000 1.0000
17.6000 168.0000 1.0000
17.6200 160.0000 1.0000
17.6400 150.0000 1.0000
17.6600 143.0000 1.0000
17.6800 139.0000 1.0000
17.7000 148.0000 1.0000
17.7200 162.0000 1.0000
17.7400 149.0000 1.0000
17.7600 145.0000 1.0000
17.7800 143.0000 1.0000
17.8000 143.0000 1.0000
17.8200 162.0000 1.0000
17.8400 132.0000 1.0000
17.8600 132.0000 1.0000
17.8800 157.0000 1.0000
17.9000 141.0000 1.0000
17.9200 135.0000 1.0000
17.9400 138.0000 1.0000
17.9600 125.0000 1.0000
17.9800 122.0000 1.0000
18.0000 145.0000 1.0000
18.0200 130.0000 1.0000
18.0400 133.0000 1.0000
18.0600 125.0000 1.0000
18.0800 104.0000 1.0000
18.1000 115.0000 1.0000
18.1200 117.0000 1.0000
18.1400 132.0000 1.0000
18.1600 109.0000 1.0000
18.1800 127.0000 1.0000
18.2000 134.0000 1.0000
18.2200 121.0000 1.0000
18.2400 117.0000 1.0000
18.2600 131.0000 1.0000
18.2800 134.0000 1.0000
18.3000 124.0000 1.0000
18.3200 150.0000 1.0000
18.3400 162.0000 1.0000
18.3600 144.0000 1.0000
18.3800 136.0000 1.0000
18.4000 128.0000 1.0000
18.4200 132.0000 1.0000
18.4400 138.0000 1.0000
18.4600 156.0000 1.0000
18.4800 152.0000 1.0000
18.5000 152.0000 1.0000
18.5200 156.0000 1.0000
18.5400 171.0000 1.0000
18.5600 174.0000 1.0000
18.5800 152.0000 1.0000
18.6000 159.0000 1.0000
18.6200 176.0000 1.0000
18.6400 168.0000 1.0000
18.6600 161.0000 1.0000
18.6800 158.0000 1.0000
18.7000 167.0000 1.0000
18.7200 174.0000 1.0000
18.7400 164.0000 1.0000
18.7600 160.0000 1.0000
18.7800 166.0000 1.0000
18.8000 156.0000 1.0000
18.8200 152.0000 1.0000
18.8400 139.0000 1.0000
18.8600 151.0000 1.0000
18.8800 161.0000 1.0000
18.9000 168.0000 1.0000
18.9200 177.0000 1.0000
18.9400 171.0000 1.0000
18.9600 157.0000 1.0000
18.9800 179.0000 1.0000
19.0000 185.0000 1.0000
19.0200 177.0000 1.0000
19.0400 178.0000 1.0000
19.0600 184.0000 1.0000
19.0800 187.0000 1.0000
19.1000 192.0000 1.0000
19.1200 205.0000 1.0000
19.1400 184.0000 1.0000
19.1600 182.0000 1.0000
19.1800 188.0000 1.0000
19.2000 214.0000 1.0000
19.2200 203.0000 1.0000
19.2400 200.0000 1.0000
19.2600 192.0000 1.0000
19.2800 205.0000 1.0000
19.3000 187.0000 1.0000
19.3200 206.0000 1.0000
19.3400 197.0000 1.0000
19.3600 217.0000 1.0000
19.3800 249.0000 1.0000
19.4000 277.0000 1.0000
19.4200 285.0000 1.0000
19.4400 267.0000 1.0000
19.4600 324.0000 1.0000
19.4800 316.0000 1.0000
19.5000 327.0000 1.0000
19.5200 374.0000 1.0000
19.5400 360.0000 1.0000
19.5600 366.0000 1.0000
19.5800 373.0000 1.0000
19.6000 385.0000 1.0000
19.6200 382.0000 1.0000
19.6400 366.0000 1.0000
19.6600 372.0000 1.0000
19.6800 344.0000 1.0000
19.7000 301.0000 1.0000
19.7200 291.0000 1.0000
19.7400 312.0000 1.0000
19.7600 300.0000 1.0000
19.7800 280.0000 1.0000
19.8000 280.0000 1.0000
19.8200 272.0000 1.0000
19.8400 242.0000 1.0000
19.8600 256.0000 1.0000
19.8800 220.0000 1.0000
19.9000 256.0000 1.0000
19.9200 240.0000 1.0000
19.9400 238.0000 1.0000
19.9600 255.0000 1.0000
19.9800 218.0000 1.0000
20.0000 220.0000 1.0000
20.0200 223.0000 1.0000
20.0400 204.0000 1.0000
20.0600 204.0000 1.0000
20.0800 215.0000 1.0000
20.1000 232.0000 1.0000
20.1200 261.0000 1.0000
20.1400 192.0000 1.0000
20.1600 224.0000 1.0000
20.1800 234.0000 1.0000
20.2000 242.0000 1.0000
20.2200 229.0000 1.0000
20.2400 222.0000 1.0000
20.2600 281.0000 1.0000
20.2800 288.0000 1.0000
20.3000 269.0000 1.0000
20.3200 300.0000 1.0000
20.3400 317.0000 1.0000
20.3600 294.0000 1.0000
20.3800 333.0000 1.0000
20.4000 344.0000 1.0000
20.4200 375.0000 1.0000
20.4400 432.0000 1.0000
20.4600 491.0000 1.0000
20.4800 561.0000 1.0000
20.5000 661.0000 1.0000
20.5200 813.0000 1.0000
20.5400 913.0000 1.0000
20.5600 1124.0000 1.0000
20.5800 1374.0000 1.0000
20.6000 1715.0000 1.0000
20.6200 1967.0000 1.0000
20.6400 2197.0000 1.0000
20.6600 2168.0000 1.0000
20.6800 2098.0000 1.0000
20.7000 1795.0000 1.0000
20.7200 1429.0000 1.0000
20.7400 1124.0000 1.0000
20.7600 785.0000 1.0000
20.7800 655.0000 1.0000
20.8000 549.0000 1.0000
20.8200 465.0000 1.0000
20.8400 413.0000 1.0000
20.8600 397.0000 1.0000
20.8800 349.0000 1.0000
20.9000 328.0000 1.0000
20.9200 270.0000 1.0000
20.9400 251.0000 1.0000
20.9600 281.0000 1.0000
20.9800 278.0000 1.0000
21.0000 238.0000 1.0000
21.0200 249.0000 1.0000
21.0400 222.0000 1.0000
21.0600 219.0000 1.0000
21.0800 230.0000 1.0000
21.1000 247.0000 1.0000
21.1200 219.0000 1.0000
21.1400 233.0000 1.0000
21.1600 225.0000 1.0000
21.1800 214.0000 1.0000
21.2000 212.0000 1.0000
21.2200 181.0000 1.0000
21.2400 217.0000 1.0000
21.2600 197.0000 1.0000
21.2800 187.0000 1.0000
21.3000 164.0000 1.0000
21.3200 194.0000 1.0000
21.3400 193.0000 1.0000
21.3600 177.0000 1.0000
21.3800 188.0000 1.0000
21.4000 215.0000 1.0000
21.4200 210.0000 1.0000
21.4400 217.0000 1.0000
21.4600 199.0000 1.0000
21.4800 228.0000 1.0000
21.5000 220.0000 1.0000
21.5200 200.0000 1.0000
21.5400 232.0000 1.0000
21.5600 228.0000 1.0000
21.5800 258.0000 1.0000
21.6000 266.0000 1.0000
21.6200 295.0000 1.0000
21.6400 353.0000 1.0000
21.6600 364.0000 1.0000
21.6800 438.0000 1.0000
21.7000 480.0000 1.0000
21.7200 540.0000 1.0000
21.7400 648.0000 1.0000
21.7600 736.0000 1.0000
21.7800 737.0000 1.0000
21.8000 801.0000 1.0000
21.8200 744.0000 1.0000
21.8400 701.0000 1.0000
21.8600 642.0000 1.0000
21.8800 588.0000 1.0000
21.9000 479.0000 1.0000
21.9200 373.0000 1.0000
21.9400 324.0000 1.0000
21.9600 276.0000 1.0000
21.9800 235.0000 1.0000
22.0000 251.0000 1.0000
22.0200 232.0000 1.0000
22.0400 182.0000 1.0000
22.0600 204.0000 1.0000
22.0800 217.0000 1.0000
22.1000 218.0000 1.0000
22.1200 238.0000 1.0000
22.1400 204.0000 1.0000
22.1600 214.0000 1.0000
22.1800 210.0000 1.0000
22.2000 215.0000 1.0000
22.2200 228.0000 1.0000
22.2400 217.0000 1.0000
22.2600 195.0000 1.0000
22.2800 202.0000 1.0000
22.3000 234.0000 1.0000
22.3200 206.0000 1.0000
22.3400 217.0000 1.0000
22.3600 233.0000 1.0000
22.3800 194.0000 1.0000
22.4000 198.0000 1.0000
22.4200 200.0000 1.0000
22.4400 206.0000 1.0000
22.4600 185.0000 1.0000
22.4800 185.0000 1.0000
22.5000 195.0000 1.0000
22.5200 211.0000 1.0000
22.5400 207.0000 1.0000
22.5600 209.0000 1.0000
22.5800 235.0000 1.0000
22.6000 219.0000 1.0000
22.6200 230.0000 1.0000
22.6400 225.0000 1.0000
22.6600 216.0000 1.0000
22.6800 241.0000 1.0000
22.7000 253.0000 1.0000
22.7200 244.0000 1.0000
22.7400 244.0000 1.0000
22.7600 261.0000 1.0000
22.7800 252.0000 1.0000
22.8000 283.0000 1.0000
22.8200 283.0000 1.0000
22.8400 288.0000 1.0000
22.8600 292.0000 1.0000
22.8800 299.0000 1.0000
22.9000 263.0000 1.0000
22.9200 245.0000 1.0000
22.9400 231.0000 1.0000
22.9600 230.0000 1.0000
22.9800 230.0000 1.0000
23.0000 245.0000 1.0000
23.0200 238.0000 1.0000
23.0400 243.0000 1.0000
23.0600 248.0000 1.0000
23.0800 248.0000 1.0000
23.1000 246.0000 1.0000
23.1200 261.0000 1.0000
23.1400 279.0000 1.0000
23.1600 297.0000 1.0000
23.1800 314.0000 1.0000
23.2000 330.0000 1.0000
23.2200 363.0000 1.0000
23.2400 389.0000 1.0000
23.2600 403.0000 1.0000
23.2800 455.0000 1.0000
23.3000 536.0000 1.0000
23.3200 577.0000 1.0000
23.3400 579.0000 1.0000
23.3600 605.0000 1.0000
23.3800 622.0000 1.0000
23.4000 591.0000 1.0000
23.4200 572.0000 1.0000
23.4400 530.0000 1.0000
23.4600 505.0000 1.0000
23.4800 472.0000 1.0000
23.5000 426.0000 1.0000
23.5200 410.0000 1.0000
23.5400 360.0000 1.0000
23.5600 337.0000 1.0000
23.5800 336.0000 1.0000
23.6000 325.0000 1.0000
23.6200 313.0000 1.0000
23.6400 285.0000 1.0000
23.6600 282.0000 1.0000
23.6800 293.0000 1.0000
23.7000 278.0000 1.0000
23.7200 269.0000 1.0000
23.7400 279.0000 1.0000
23.7600 278.0000 1.0000
23.7800 285.0000 1.0000
23.8000 306.0000 1.0000
23.8200 325.0000 1.0000
23.8400 354.0000 1.0000
23.8600 368.0000 1.0000
23.8800 364.0000 1.0000
23.9000 436.0000 1.0000
23.9200 481.0000 1.0000
23.9400 475.0000 1.0000
23.9600 531.0000 1.0000
23.9800 561.0000 1.0000
24.0000 565.0000 1.0000
24.0200 575.0000 1.0000
24.0400 585.0000 1.0000
24.0600 569.0000 1.0000
24.0800 550.0000 1.0000
24.1000 556.0000 1.0000
24.1200 523.0000 1.0000
24.1400 488.0000 1.0000
24.1600 460.0000 1.0000
24.1800 432.0000 1.0000
24.2000 410.0000 1.0000
24.2200 378.0000 1.0000
24.2400 362.0000 1.0000
24.2600 369.0000 1.0000
24.2800 304.0000 1.0000
24.3000 302.0000 1.0000
24.3200 279.0000 1.0000
24.3400 281.0000 1.0000
24.3600 269.0000 1.0000
24.3800 256.0000 1.0000
24.4000 244.0000 1.0000
24.4200 250.0000 1.0000
24.4400 232.0000 1.0000
24.4600 215.0000 1.0000
24.4800 210.0000 1.0000
24.5000 221.0000 1.0000
24.5200 233.0000 1.0000
24.5400 223.0000 1.0000
24.5600 217.0000 1.0000
24.5800 202.0000 1.0000
24.6000 236.0000 1.0000
24.6200 230.0000 1.0000
24.6400 235.0000 1.0000
24.6600 215.0000 1.0000
24.6800 214.0000 1.0000
24.7000 236.0000 1.0000
24.7200 209.0000 1.0000
24.7400 220.0000 1.0000
24.7600 243.0000 1.0000
24.7800 249.0000 1.0000
24.8000 239.0000 1.0000
24.8200 251.0000 1.0000
24.8400 256.0000 1.0000
24.8600 269.0000 1.0000
24.8800 284.0000 1.0000
24.9000 288.0000 1.0000
24.9200 319.0000 1.0000
24.9400 305.0000 1.0000
24.9600 327.0000 1.0000
24.9800 330.0000 1.0000
25.0000 328.0000 1.0000
25.0200 337.0000 1.0000
25.0400 339.0000 1.0000
25.0600 365.0000 1.0000
25.0800 359.0000 1.0000
25.1000 377.0000 1.0000
25.1200 394.0000 1.0000
25.1400 421.0000 1.0000
25.1600 463.0000 1.0000
25.1800 495.0000 1.0000
25.2000 558.0000 1.0000
25.2200 620.0000 1.0000
25.2400 666.0000 1.0000
25.2600 793.0000 1.0000
25.2800 892.0000 1.0000
25.3000 1042.0000 1.0000
25.3200 1200.0000 1.0000
25.3400 1347.0000 1.0000
25.3600 1504.0000 1.0000
25.3800 1493.0000 1.0000
25.4000 1410.0000 1.0000
25.4200 1266.0000 1.0000
25.4400 1089.0000 1.0000
25.4600 903.0000 1.0000
25.4800 790.0000 1.0000
25.5000 653.0000 1.0000
25.5200 519.0000 1.0000
25.5400 433.0000 1.0000
25.5600 389.0000 1.0000
25.5800 350.0000 1.0000
25.6000 340.0000 1.0000
25.6200 298.0000 1.0000
25.6400 276.0000 1.0000
25.6600 305.0000 1.0000
25.6800 288.0000 1.0000
25.7000 285.0000 1.0000
25.7200 301.0000 1.0000
25.7400 308.0000 1.0000
25.7600 292.0000 1.0000
25.7800 307.0000 1.0000
25.8000 317.0000 1.0000
25.8200 328.0000 1.0000
25.8400 348.0000 1.0000
25.8600 338.0000 1.0000
25.8800 356.0000 1.0000
25.9000 358.0000 1.0000
25.9200 377.0000 1.0000
25.9400 399.0000 1.0000
25.9600 415.0000 1.0000
25.9800 431.0000 1.0000
26.0000 465.0000 1.0000
26.0200 506.0000 1.0000
26.0400 519.0000 1.0000
26.0600 578.0000 1.0000
26.0800 651.0000 1.0000
26.1000 715.0000 1.0000
26.1200 795.0000 1.0000
26.1400 883.0000 1.0000
26.1600 986.0000 1.0000
26.1800 1154.0000 1.0000
26.2000 1342.0000 1.0000
26.2200 1522.0000 1.0000
26.2400 1792.0000 1.0000
26.2600 2124.0000 1.0000
26.2800 2524.0000 1.0000
26.3000 3123.0000 1.0000
26.3200 3912.0000 1.0000
26.3400 4895.0000 1.0000
26.3600 6301.0000 1.0000
26.3800 7805.0000 1.0000
26.4000 9104.0000 1.0000
26.4200 9921.0000 1.0000
26.4400 9941.0000 1.0000
26.4600 9322.0000 1.0000
26.4800 8144.0000 1.0000
26.5000 6600.0000 1.0000
26.5200 5125.0000 1.0000
26.5400 3707.0000 1.0000
26.5600 2643.0000 1.0000
26.5800 1959.0000 1.0000
26.6000 1482.0000 1.0000
26.6200 1188.0000 1.0000
26.6400 1016.0000 1.0000
26.6600 928.0000 1.0000
26.6800 878.0000 1.0000
26.7000 816.0000 1.0000
26.7200 769.0000 1.0000
26.7400 711.0000 1.0000
26.7600 679.0000 1.0000
26.7800 703.0000 1.0000
26.8000 690.0000 1.0000
26.8200 677.0000 1.0000
26.8400 667.0000 1.0000
26.8600 622.0000 1.0000
26.8800 602.0000 1.0000
26.9000 572.0000 1.0000
26.9200 531.0000 1.0000
26.9400 553.0000 1.0000
26.9600 549.0000 1.0000
26.9800 502.0000 1.0000
27.0000 462.0000 1.0000
27.0200 441.0000 1.0000
27.0400 437.0000 1.0000
27.0600 426.0000 1.0000
27.0800 442.0000 1.0000
27.1000 446.0000 1.0000
27.1200 463.0000 1.0000
27.1400 511.0000 1.0000
27.1600 549.0000 1.0000
27.1800 573.0000 1.0000
27.2000 611.0000 1.0000
27.2200 668.0000 1.0000
27.2400 731.0000 1.0000
27.2600 769.0000 1.0000
27.2800 791.0000 1.0000
27.3000 832.0000 1.0000
27.3200 894.0000 1.0000
27.3400 929.0000 1.0000
27.3600 896.0000 1.0000
27.3800 887.0000 1.0000
27.4000 917.0000 1.0000
27.4200 926.0000 1.0000
27.4400 936.0000 1.0000
27.4600 948.0000 1.0000
27.4800 1030.0000 1.0000
27.5000 1123.0000 1.0000
27.5200 1171.0000 1.0000
27.5400 1241.0000 1.0000
27.5600 1290.0000 1.0000
27.5800 1327.0000 1.0000
27.6000 1357.0000 1.0000
27.6200 1411.0000 1.0000
27.6400 1468.0000 1.0000
27.6600 1529.0000 1.0000
27.6800 1595.0000 1.0000
27.7000 1637.0000 1.0000
27.7200 1698.0000 1.0000
27.7400 1735.0000 1.0000
27.7600 1742.0000 1.0000
27.7800 1670.0000 1.0000
27.8000 1559.0000 1.0000
27.8200 1430.0000 1.0000
27.8400 1216.0000 1.0000
27.8600 1096.0000 1.0000
27.8800 991.0000 1.0000
27.9000 832.0000 1.0000
27.9200 749.0000 1.0000
27.9400 699.0000 1.0000
27.9600 663.0000 1.0000
27.9800 627.0000 1.0000
28.0000 588.0000 1.0000
28.0200 575.0000 1.0000
28.0400 569.0000 1.0000
28.0600 513.0000 1.0000
28.0800 494.0000 1.0000
28.1000 480.0000 1.0000
28.1200 424.0000 1.0000
28.1400 395.0000 1.0000
28.1600 371.0000 1.0000
28.1800 363.0000 1.0000
28.2000 355.0000 1.0000
28.2200 343.0000 1.0000
28.2400 316.0000 1.0000
28.2600 281.0000 1.0000
28.2800 271.0000 1.0000
28.3000 253.0000 1.0000
28.3200 256.0000 1.0000
28.3400 244.0000 1.0000
28.3600 220.0000 1.0000
28.3800 206.0000 1.0000
28.4000 192.0000 1.0000
28.4200 201.0000 1.0000
28.4400 203.0000 1.0000
28.4600 191.0000 1.0000
28.4800 182.0000 1.0000
28.5000 180.0000 1.0000
28.5200 190.0000 1.0000
28.5400 177.0000 1.0000
28.5600 164.0000 1.0000
28.5800 167.0000 1.0000
28.6000 186.0000 1.0000
28.6200 184.0000 1.0000
28.6400 168.0000 1.0000
28.6600 172.0000 1.0000
28.6800 178.0000 1.0000
28.7000 187.0000 1.0000
28.7200 185.0000 1.0000
28.7400 179.0000 1.0000
28.7600 171.0000 1.0000
28.7800 178.0000 1.0000
28.8000 188.0000 1.0000
28.8200 202.0000 1.0000
28.8400 203.0000 1.0000
28.8600 189.0000 1.0000
28.8800 183.0000 1.0000
28.9000 202.0000 1.0000
28.9200 210.0000 1.0000
28.9400 195.0000 1.0000
28.9600 183.0000 1.0000
28.9800 186.0000 1.0000
29.0000 196.0000 1.0000
29.0200 194.0000 1.0000
29.0400 188.0000 1.0000
29.0600 196.0000 1.0000
29.0800 198.0000 1.0000
29.1000 197.0000 1.0000
29.1200 213.0000 1.0000
29.1400 215.0000 1.0000
29.1600 233.0000 1.0000
29.1800 260.0000 1.0000
29.2000 253.0000 1.0000
29.2200 276.0000 1.0000
29.2400 276.0000 1.0000
29.2600 288.0000 1.0000
29.2800 313.0000 1.0000
29.3000 283.0000 1.0000
29.3200 289.0000 1.0000
29.3400 321.0000 1.0000
29.3600 318.0000 1.0000
29.3800 318.0000 1.0000
29.4000 336.0000 1.0000
29.4200 369.0000 1.0000
29.4400 394.0000 1.0000
29.4600 401.0000 1.0000
29.4800 430.0000 1.0000
29.5000 426.0000 1.0000
29.5200 448.0000 1.0000
29.5400 486.0000 1.0000
29.5600 507.0000 1.0000
29.5800 524.0000 1.0000
29.6000 515.0000 1.0000
29.6200 548.0000 1.0000
29.6400 548.0000 1.0000
29.6600 524.0000 1.0000
29.6800 485.0000 1.0000
29.7000 469.0000 1.0000
29.7200 456.0000 1.0000
29.7400 428.0000 1.0000
29.7600 416.0000 1.0000
29.7800 441.0000 1.0000
29.8000 432.0000 1.0000
29.8200 396.0000 1.0000
29.8400 411.0000 1.0000
29.8600 432.0000 1.0000
29.8800 455.0000 1.0000
29.9000 417.0000 1.0000
29.9200 431.0000 1.0000
29.9400 458.0000 1.0000
29.9600 468.0000 1.0000
29.9800 459.0000 1.0000
30.0000 436.0000 1.0000
30.0200 465.0000 1.0000
30.0400 477.0000 1.0000
30.0600 496.0000 1.0000
30.0800 480.0000 1.0000
30.1000 451.0000 1.0000
30.1200 449.0000 1.0000
30.1400 453.0000 1.0000
30.1600 431.0000 1.0000
30.1800 441.0000 1.0000
30.2000 475.0000 1.0000
30.2200 452.0000 1.0000
30.2400 475.0000 1.0000
30.2600 497.0000 1.0000
30.2800 474.0000 1.0000
30.3000 450.0000 1.0000
30.3200 442.0000 1.0000
30.3400 396.0000 1.0000
30.3600 367.0000 1.0000
30.3800 370.0000 1.0000
30.4000 344.0000 1.0000
30.4200 315.0000 1.0000
30.4400 297.0000 1.0000
30.4600 290.0000 1.0000
30.4800 319.0000 1.0000
30.5000 343.0000 1.0000
30.5200 347.0000 1.0000
30.5400 359.0000 1.0000
30.5600 378.0000 1.0000
30.5800 391.0000 1.0000
30.6000 406.0000 1.0000
30.6200 394.0000 1.0000
30.6400 375.0000 1.0000
30.6600 380.0000 1.0000
30.6800 381.0000 1.0000
30.7000 352.0000 1.0000
30.7200 325.0000 1.0000
30.7400 317.0000 1.0000
30.7600 308.0000 1.0000
30.7800 284.0000 1.0000
30.8000 284.0000 1.0000
30.8200 254.0000 1.0000
30.8400 220.0000 1.0000
30.8600 235.0000 1.0000
30.8800 229.0000 1.0000
30.9000 205.0000 1.0000
30.9200 194.0000 1.0000
30.9400 208.0000 1.0000
30.9600 211.0000 1.0000
30.9800 244.0000 1.0000
31.0000 256.0000 1.0000
31.0200 241.0000 1.0000
31.0400 237.0000 1.0000
31.0600 232.0000 1.0000
31.0800 263.0000 1.0000
31.1000 257.0000 1.0000
31.1200 241.0000 1.0000
31.1400 216.0000 1.0000
31.1600 236.0000 1.0000
31.1800 231.0000 1.0000
31.2000 218.0000 1.0000
31.2200 235.0000 1.0000
31.2400 231.0000 1.0000
31.2600 231.0000 1.0000
31.2800 238.0000 1.0000
31.3000 247.0000 1.0000
31.3200 235.0000 1.0000
31.3400 230.0000 1.0000
31.3600 197.0000 1.0000
31.3800 200.0000 1.0000
31.4000 198.0000 1.0000
31.4200 201.0000 1.0000
31.4400 188.0000 1.0000
31.4600 182.0000 1.0000
31.4800 151.0000 1.0000
31.5000 159.0000 1.0000
31.5200 159.0000 1.0000
31.5400 164.0000 1.0000
31.5600 161.0000 1.0000
31.5800 150.0000 1.0000
31.6000 137.0000 1.0000
31.6200 145.0000 1.0000
31.6400 134.0000 1.0000
31.6600 172.0000 1.0000
31.6800 175.0000 1.0000
31.7000 144.0000 1.0000
31.7200 146.0000 1.0000
31.7400 145.0000 1.0000
31.7600 152.0000 1.0000
31.7800 158.0000 1.0000
31.8000 139.0000 1.0000
31.8200 150.0000 1.0000
31.8400 147.0000 1.0000
31.8600 160.0000 1.0000
31.8800 153.0000 1.0000
31.9000 152.0000 1.0000
31.9200 162.0000 1.0000
31.9400 180.0000 1.0000
31.9600 178.0000 1.0000
31.9800 171.0000 1.0000
32.0000 171.0000 1.0000
32.0200 149.0000 1.0000
32.0400 158.0000 1.0000
32.0600 151.0000 1.0000
32.0800 151.0000 1.0000
32.1000 146.0000 1.0000
32.1200 167.0000 1.0000
32.1400 156.0000 1.0000
32.1600 180.0000 1.0000
32.1800 169.0000 1.0000
32.2000 162.0000 1.0000
32.2200 144.0000 1.0000
32.2400 153.0000 1.0000
32.2600 155.0000 1.0000
32.2800 143.0000 1.0000
32.3000 163.0000 1.0000
32.3200 141.0000 1.0000
32.3400 158.0000 1.0000
32.3600 156.0000 1.0000
32.3800 113.0000 1.0000
32.4000 130.0000 1.0000
32.4200 149.0000 1.0000
32.4400 142.0000 1.0000
32.4600 144.0000 1.0000
32.4800 122.0000 1.0000
32.5000 114.0000 1.0000
32.5200 110.0000 1.0000
32.5400 132.0000 1.0000
32.5600 140.0000 1.0000
32.5800 125.0000 1.0000
32.6000 128.0000 1.0000
32.6200 150.0000 1.0000
32.6400 120.0000 1.0000
32.6600 139.0000 1.0000
32.6800 126.0000 1.0000
32.7000 125.0000 1.0000
32.7200 127.0000 1.0000
32.7400 132.0000 1.0000
32.7600 115.0000 1.0000
32.7800 140.0000 1.0000
32.8000 140.0000 1.0000
32.8200 151.0000 1.0000
32.8400 137.0000 1.0000
32.8600 145.0000 1.0000
32.8800 139.0000 1.0000
32.9000 139.0000 1.0000
32.9200 144.0000 1.0000
32.9400 149.0000 1.0000
32.9600 149.0000 1.0000
32.9800 124.0000 1.0000
33.0000 138.0000 1.0000
33.0200 150.0000 1.0000
33.0400 151.0000 1.0000
33.0600 126.0000 1.0000
33.0800 136.0000 1.0000
33.1000 124.0000 1.0000
33.1200 138.0000 1.0000
33.1400 139.0000 1.0000
33.1600 152.0000 1.0000
33.1800 131.0000 1.0000
33.2000 130.0000 1.0000
33.2200 145.0000 1.0000
33.2400 140.0000 1.0000
33.2600 130.0000 1.0000
33.2800 130.0000 1.0000
33.3000 142.0000 1.0000
33.3200 146.0000 1.0000
33.3400 149.0000 1.0000
33.3600 152.0000 1.0000
33.3800 149.0000 1.0000
33.4000 148.0000 1.0000
33.4200 168.0000 1.0000
33.4400 173.0000 1.0000
33.4600 181.0000 1.0000
33.4800 167.0000 1.0000
33.5000 168.0000 1.0000
33.5200 184.0000 1.0000
33.5400 186.0000 1.0000
33.5600 203.0000 1.0000
33.5800 200.0000 1.0000
33.6000 205.0000 1.0000
33.6200 190.0000 1.0000
33.6400 208.0000 1.0000
33.6600 205.0000 1.0000
33.6800 191.0000 1.0000
33.7000 196.0000 1.0000
33.7200 216.0000 1.0000
33.7400 204.0000 1.0000
33.7600 215.0000 1.0000
33.7800 198.0000 1.0000
33.8000 174.0000 1.0000
33.8200 205.0000 1.0000
33.8400 195.0000 1.0000
33.8600 199.0000 1.0000
33.8800 205.0000 1.0000
33.9000 189.0000 1.0000
33.9200 161.0000 1.0000
33.9400 180.0000 1.0000
33.9600 168.0000 1.0000
33.9800 166.0000 1.0000
34.0000 172.0000 1.0000
34.0200 206.0000 1.0000
34.0400 188.0000 1.0000
34.0600 209.0000 1.0000
34.0800 207.0000 1.0000
34.1000 221.0000 1.0000
34.1200 219.0000 1.0000
34.1400 211.0000 1.0000
34.1600 202.0000 1.0000
34.1800 249.0000 1.0000
34.2000 273.0000 1.0000
34.2200 248.0000 1.0000
34.2400 247.0000 1.0000
34.2600 303.0000 1.0000
34.2800 299.0000 1.0000
34.3000 294.0000 1.0000
34.3200 292.0000 1.0000
34.3400 353.0000 1.0000
34.3600 299.0000 1.0000
34.3800 327.0000 1.0000
34.4000 300.0000 1.0000
34.4200 348.0000 1.0000
34.4400 365.0000 1.0000
34.4600 345.0000 1.0000
34.4800 410.0000 1.0000
34.5000 380.0000 1.0000
34.5200 395.0000 1.0000
34.5400 425.0000 1.0000
34.5600 418.0000 1.0000
34.5800 449.0000 1.0000
34.6000 444.0000 1.0000
34.6200 505.0000 1.0000
34.6400 505.0000 1.0000
34.6600 513.0000 1.0000
34.6800 549.0000 1.0000
34.7000 549.0000 1.0000
34.7200 597.0000 1.0000
34.7400 627.0000 1.0000
34.7600 651.0000 1.0000
34.7800 695.0000 1.0000
34.8000 775.0000 1.0000
34.8200 821.0000 1.0000
34.8400 960.0000 1.0000
34.8600 1151.0000 1.0000
34.8800 1355.0000 1.0000
34.9000 1619.0000 1.0000
34.9200 1769.0000 1.0000
34.9400 1855.0000 1.0000
34.9600 1873.0000 1.0000
34.9800 1881.0000 1.0000
35.0000 1666.0000 1.0000
35.0200 1522.0000 1.0000
35.0400 1263.0000 1.0000
35.0600 1088.0000 1.0000
35.0800 860.0000 1.0000
35.1000 802.0000 1.0000
35.1200 614.0000 1.0000
35.1400 536.0000 1.0000
35.1600 460.0000 1.0000
35.1800 428.0000 1.0000
35.2000 415.0000 1.0000
35.2200 406.0000 1.0000
35.2400 451.0000 1.0000
35.2600 452.0000 1.0000
35.2800 465.0000 1.0000
35.3000 420.0000 1.0000
35.3200 473.0000 1.0000
35.3400 452.0000 1.0000
35.3600 450.0000 1.0000
35.3800 446.0000 1.0000
35.4000 468.0000 1.0000
35.4200 430.0000 1.0000
35.4400 438.0000 1.0000
35.4600 401.0000 1.0000
35.4800 427.0000 1.0000
35.5000 423.0000 1.0000
35.5200 354.0000 1.0000
35.5400 371.0000 1.0000
35.5600 334.0000 1.0000
35.5800 337.0000 1.0000
35.6000 328.0000 1.0000
35.6200 310.0000 1.0000
35.6400 269.0000 1.0000
35.6600 253.0000 1.0000
35.6800 265.0000 1.0000
35.7000 249.0000 1.0000
35.7200 232.0000 1.0000
35.7400 236.0000 1.0000
35.7600 245.0000 1.0000
35.7800 227.0000 1.0000
35.8000 225.0000 1.0000
35.8200 227.0000 1.0000
35.8400 202.0000 1.0000
35.8600 221.0000 1.0000
35.8800 235.0000 1.0000
35.9000 217.0000 1.0000
35.9200 198.0000 1.0000
35.9400 217.0000 1.0000
35.9600 221.0000 1.0000
35.9800 207.0000 1.0000
36.0000 227.0000 1.0000
36.0200 226.0000 1.0000
36.0400 219.0000 1.0000
36.0600 229.0000 1.0000
36.0800 238.0000 1.0000
36.1000 261.0000 1.0000
36.1200 267.0000 1.0000
36.1400 289.0000 1.0000
36.1600 292.0000 1.0000
36.1800 339.0000 1.0000
36.2000 383.0000 1.0000
36.2200 393.0000 1.0000
36.2400 464.0000 1.0000
36.2600 572.0000 1.0000
36.2800 638.0000 1.0000
36.3000 722.0000 1.0000
36.3200 826.0000 1.0000
36.3400 903.0000 1.0000
36.3600 878.0000 1.0000
36.3800 832.0000 1.0000
36.4000 780.0000 1.0000
36.4200 691.0000 1.0000
36.4400 681.0000 1.0000
36.4600 556.0000 1.0000
36.4800 495.0000 1.0000
36.5000 432.0000 1.0000
36.5200 403.0000 1.0000
36.5400 338.0000 1.0000
36.5600 314.0000 1.0000
36.5800 304.0000 1.0000
36.6000 275.0000 1.0000
36.6200 299.0000 1.0000
36.6400 277.0000 1.0000
36.6600 250.0000 1.0000
36.6800 258.0000 1.0000
36.7000 248.0000 1.0000
36.7200 220.0000 1.0000
36.7400 253.0000 1.0000
36.7600 254.0000 1.0000
36.7800 232.0000 1.0000
36.8000 235.0000 1.0000
36.8200 242.0000 1.0000
36.8400 209.0000 1.0000
36.8600 233.0000 1.0000
36.8800 218.0000 1.0000
36.9000 240.0000 1.0000
36.9200 241.0000 1.0000
36.9400 231.0000 1.0000
36.9600 245.0000 1.0000
36.9800 231.0000 1.0000
37.0000 242.0000 1.0000
37.0200 219.0000 1.0000
37.0400 218.0000 1.0000
37.0600 201.0000 1.0000
37.0800 226.0000 1.0000
37.1000 208.0000 1.0000
37.1200 209.0000 1.0000
37.1400 236.0000 1.0000
37.1600 259.0000 1.0000
37.1800 240.0000 1.0000
37.2000 240.0000 1.0000
37.2200 257.0000 1.0000
37.2400 240.0000 1.0000
37.2600 242.0000 1.0000
37.2800 239.0000 1.0000
37.3000 242.0000 1.0000
37.3200 273.0000 1.0000
37.3400 273.0000 1.0000
37.3600 272.0000 1.0000
37.3800 286.0000 1.0000
37.4000 315.0000 1.0000
37.4200 337.0000 1.0000
37.4400 381.0000 1.0000
37.4600 421.0000 1.0000
37.4800 499.0000 1.0000
37.5000 591.0000 1.0000
37.5200 654.0000 1.0000
37.5400 742.0000 1.0000
37.5600 814.0000 1.0000
37.5800 859.0000 1.0000
37.6000 820.0000 1.0000
37.6200 741.0000 1.0000
37.6400 680.0000 1.0000
37.6600 607.0000 1.0000
37.6800 518.0000 1.0000
37.7000 455.0000 1.0000
37.7200 361.0000 1.0000
37.7400 305.0000 1.0000
37.7600 262.0000 1.0000
37.7800 227.0000 1.0000
37.8000 214.0000 1.0000
37.8200 182.0000 1.0000
37.8400 163.0000 1.0000
37.8600 167.0000 1.0000
37.8800 166.0000 1.0000
37.9000 154.0000 1.0000
37.9200 154.0000 1.0000
37.9400 155.0000 1.0000
37.9600 148.0000 1.0000
37.9800 132.0000 1.0000
38.0000 144.0000 1.0000
38.0200 155.0000 1.0000
38.0400 164.0000 1.0000
38.0600 151.0000 1.0000
38.0800 139.0000 1.0000
38.1000 135.0000 1.0000
38.1200 120.0000 1.0000
38.1400 133.0000 1.0000
38.1600 132.0000 1.0000
38.1800 124.0000 1.0000
38.2000 119.0000 1.0000
38.2200 119.0000 1.0000
38.2400 138.0000 1.0000
38.2600 126.0000 1.0000
38.2800 123.0000 1.0000
38.3000 112.0000 1.0000
38.3200 133.0000 1.0000
38.3400 130.0000 1.0000
38.3600 119.0000 1.0000
38.3800 132.0000 1.0000
38.4000 146.0000 1.0000
38.4200 140.0000 1.0000
38.4400 148.0000 1.0000
38.4600 143.0000 1.0000
38.4800 136.0000 1.0000
38.5000 148.0000 1.0000
38.5200 153.0000 1.0000
38.5400 157.0000 1.0000
38.5600 151.0000 1.0000
38.5800 144.0000 1.0000
38.6000 157.0000 1.0000
38.6200 171.0000 1.0000
38.6400 173.0000 1.0000
38.6600 174.0000 1.0000
38.6800 180.0000 1.0000
38.7000 185.0000 1.0000
38.7200 171.0000 1.0000
38.7400 173.0000 1.0000
38.7600 168.0000 1.0000
38.7800 168.0000 1.0000
38.8000 173.0000 1.0000
38.8200 178.0000 1.0000
38.8400 153.0000 1.0000
38.8600 158.0000 1.0000
38.8800 170.0000 1.0000
38.9000 179.0000 1.0000
38.9200 180.0000 1.0000
38.9400 175.0000 1.0000
38.9600 168.0000 1.0000
38.9800 173.0000 1.0000
39.0000 175.0000 1.0000
39.0200 184.0000 1.0000
39.0400 184.0000 1.0000
39.0600 178.0000 1.0000
39.0800 207.0000 1.0000
39.1000 233.0000 1.0000
39.1200 249.0000 1.0000
39.1400 292.0000 1.0000
39.1600 335.0000 1.0000
39.1800 431.0000 1.0000
39.2000 512.0000 1.0000
39.2200 581.0000 1.0000
39.2400 666.0000 1.0000
39.2600 700.0000 1.0000
39.2800 695.0000 1.0000
39.3000 674.0000 1.0000
39.3200 616.0000 1.0000
39.3400 560.0000 1.0000
39.3600 545.0000 1.0000
39.3800 476.0000 1.0000
39.4000 381.0000 1.0000
39.4200 338.0000 1.0000
39.4400 291.0000 1.0000
39.4600 237.0000 1.0000
39.4800 211.0000 1.0000
39.5000 208.0000 1.0000
39.5200 189.0000 1.0000
39.5400 181.0000 1.0000
39.5600 170.0000 1.0000
39.5800 167.0000 1.0000
39.6000 180.0000 1.0000
39.6200 179.0000 1.0000
39.6400 158.0000 1.0000
39.6600 166.0000 1.0000
39.6800 169.0000 1.0000
39.7000 168.0000 1.0000
39.7200 155.0000 1.0000
39.7400 144.0000 1.0000
39.7600 161.0000 1.0000
39.7800 173.0000 1.0000
39.8000 167.0000 1.0000
39.8200 164.0000 1.0000
39.8400 171.0000 1.0000
39.8600 183.0000 1.0000
39.8800 190.0000 1.0000
39.9000 205.0000 1.0000
39.9200 200.0000 1.0000
39.9400 202.0000 1.0000
39.9600 222.0000 1.0000
39.9800 233.0000 1.0000
40.0000 270.0000 1.0000
40.0200 295.0000 1.0000
40.0400 320.0000 1.0000
40.0600 380.0000 1.0000
40.0800 413.0000 1.0000
40.1000 412.0000 1.0000
40.1200 422.0000 1.0000
40.1400 386.0000 1.0000
40.1600 350.0000 1.0000
40.1800 345.0000 1.0000
40.2000 313.0000 1.0000
40.2200 292.0000 1.0000
40.2400 269.0000 1.0000
40.2600 243.0000 1.0000
40.2800 218.0000 1.0000
40.3000 201.0000 1.0000
40.3200 189.0000 1.0000
40.3400 174.0000 1.0000
40.3600 166.0000 1.0000
40.3800 173.0000 1.0000
40.4000 168.0000 1.0000
40.4200 169.0000 1.0000
40.4400 177.0000 1.0000
40.4600 168.0000 1.0000
40.4800 166.0000 1.0000
40.5000 169.0000 1.0000
40.5200 161.0000 1.0000
40.5400 149.0000 1.0000
40.5600 158.0000 1.0000
40.5800 164.0000 1.0000
40.6000 160.0000 1.0000
40.6200 155.0000 1.0000
40.6400 160.0000 1.0000
40.6600 172.0000 1.0000
40.6800 171.0000 1.0000
40.7000 168.0000 1.0000
40.7200 167.0000 1.0000
40.7400 165.0000 1.0000
40.7600 156.0000 1.0000
40.7800 169.0000 1.0000
40.8000 179.0000 1.0000
40.8200 159.0000 1.0000
40.8400 156.0000 1.0000
40.8600 160.0000 1.0000
40.8800 159.0000 1.0000
40.9000 158.0000 1.0000
40.9200 158.0000 1.0000
40.9400 161.0000 1.0000
40.9600 161.0000 1.0000
40.9800 169.0000 1.0000
41.0000 175.0000 1.0000
41.0200 170.0000 1.0000
41.0400 166.0000 1.0000
41.0600 168.0000 1.0000
41.0800 165.0000 1.0000
41.1000 162.0000 1.0000
41.1200 166.0000 1.0000
41.1400 154.0000 1.0000
41.1600 150.0000 1.0000
41.1800 156.0000 1.0000
41.2000 139.0000 1.0000
41.2200 148.0000 1.0000
41.2400 153.0000 1.0000
41.2600 152.0000 1.0000
41.2800 164.0000 1.0000
41.3000 161.0000 1.0000
41.3200 156.0000 1.0000
41.3400 167.0000 1.0000
41.3600 168.0000 1.0000
41.3800 170.0000 1.0000
41.4000 183.0000 1.0000
41.4200 188.0000 1.0000
41.4400 186.0000 1.0000
41.4600 210.0000 1.0000
41.4800 207.0000 1.0000
41.5000 209.0000 1.0000
41.5200 238.0000 1.0000
41.5400 231.0000 1.0000
41.5600 227.0000 1.0000
41.5800 226.0000 1.0000
41.6000 232.0000 1.0000
41.6200 242.0000 1.0000
41.6400 244.0000 1.0000
41.6600 223.0000 1.0000
41.6800 223.0000 1.0000
41.7000 227.0000 1.0000
41.7200 222.0000 1.0000
41.7400 226.0000 1.0000
41.7600 221.0000 1.0000
41.7800 205.0000 1.0000
41.8000 196.0000 1.0000
41.8200 222.0000 1.0000
41.8400 215.0000 1.0000
41.8600 227.0000 1.0000
41.8800 239.0000 1.0000
41.9000 232.0000 1.0000
41.9200 241.0000 1.0000
41.9400 242.0000 1.0000
41.9600 229.0000 1.0000
41.9800 252.0000 1.0000
42.0000 275.0000 1.0000
42.0200 278.0000 1.0000
42.0400 273.0000 1.0000
42.0600 302.0000 1.0000
42.0800 335.0000 1.0000
42.1000 355.0000 1.0000
42.1200 357.0000 1.0000
42.1400 389.0000 1.0000
42.1600 440.0000 1.0000
42.1800 516.0000 1.0000
42.2000 593.0000 1.0000
42.2200 656.0000 1.0000
42.2400 665.0000 1.0000
42.2600 667.0000 1.0000
42.2800 666.0000 1.0000
42.3000 645.0000 1.0000
42.3200 601.0000 1.0000
42.3400 566.0000 1.0000
42.3600 508.0000 1.0000
42.3800 463.0000 1.0000
42.4000 410.0000 1.0000
42.4200 384.0000 1.0000
42.4400 332.0000 1.0000
42.4600 288.0000 1.0000
42.4800 248.0000 1.0000
42.5000 260.0000 1.0000
42.5200 260.0000 1.0000
42.5400 249.0000 1.0000
42.5600 242.0000 1.0000
42.5800 242.0000 1.0000
42.6000 246.0000 1.0000
42.6200 232.0000 1.0000
42.6400 234.0000 1.0000
42.6600 236.0000 1.0000
42.6800 219.0000 1.0000
42.7000 214.0000 1.0000
42.7200 229.0000 1.0000
42.7400 217.0000 1.0000
42.7600 212.0000 1.0000
42.7800 220.0000 1.0000
42.8000 216.0000 1.0000
42.8200 249.0000 1.0000
42.8400 227.0000 1.0000
42.8600 225.0000 1.0000
42.8800 232.0000 1.0000
42.9000 257.0000 1.0000
42.9200 271.0000 1.0000
42.9400 305.0000 1.0000
42.9600 308.0000 1.0000
42.9800 345.0000 1.0000
43.0000 416.0000 1.0000
43.0200 525.0000 1.0000
43.0400 607.0000 1.0000
43.0600 753.0000 1.0000
43.0800 950.0000 1.0000
43.1000 1213.0000 1.0000
43.1200 1501.0000 1.0000
43.1400 1646.0000 1.0000
43.1600 1700.0000 1.0000
43.1800 1682.0000 1.0000
43.2000 1563.0000 1.0000
43.2200 1471.0000 1.0000
43.2400 1280.0000 1.0000
43.2600 1187.0000 1.0000
43.2800 975.0000 1.0000
43.3000 827.0000 1.0000
43.3200 737.0000 1.0000
43.3400 574.0000 1.0000
43.3600 430.0000 1.0000
43.3800 345.0000 1.0000
43.4000 271.0000 1.0000
43.4200 228.0000 1.0000
43.4400 233.0000 1.0000
43.4600 199.0000 1.0000
43.4800 202.0000 1.0000
43.5000 206.0000 1.0000
43.5200 177.0000 1.0000
43.5400 173.0000 1.0000
43.5600 177.0000 1.0000
43.5800 159.0000 1.0000
43.6000 151.0000 1.0000
43.6200 152.0000 1.0000
43.6400 158.0000 1.0000
43.6600 158.0000 1.0000
43.6800 143.0000 1.0000
43.7000 159.0000 1.0000
43.7200 155.0000 1.0000
43.7400 147.0000 1.0000
43.7600 141.0000 1.0000
43.7800 129.0000 1.0000
43.8000 137.0000 1.0000
43.8200 132.0000 1.0000
43.8400 156.0000 1.0000
43.8600 162.0000 1.0000
43.8800 136.0000 1.0000
43.9000 137.0000 1.0000
43.9200 138.0000 1.0000
43.9400 138.0000 1.0000
43.9600 146.0000 1.0000
43.9800 142.0000 1.0000
44.0000 141.0000 1.0000
44.0200 153.0000 1.0000
44.0400 151.0000 1.0000
44.0600 168.0000 1.0000
44.0800 168.0000 1.0000
44.1000 173.0000 1.0000
44.1200 162.0000 1.0000
44.1400 138.0000 1.0000
44.1600 134.0000 1.0000
44.1800 151.0000 1.0000
44.2000 148.0000 1.0000
44.2200 145.0000 1.0000
44.2400 152.0000 1.0000
44.2600 150.0000 1.0000
44.2800 154.0000 1.0000
44.3000 147.0000 1.0000
44.3200 153.0000 1.0000
44.3400 161.0000 1.0000
44.3600 127.0000 1.0000
44.3800 133.0000 1.0000
44.4000 146.0000 1.0000
44.4200 130.0000 1.0000
44.4400 138.0000 1.0000
44.4600 144.0000 1.0000
44.4800 143.0000 1.0000
44.5000 160.0000 1.0000
44.5200 140.0000 1.0000
44.5400 145.0000 1.0000
44.5600 157.0000 1.0000
44.5800 174.0000 1.0000
44.6000 169.0000 1.0000
44.6200 160.0000 1.0000
44.6400 170.0000 1.0000
44.6600 195.0000 1.0000
44.6800 180.0000 1.0000
44.7000 168.0000 1.0000
44.7200 168.0000 1.0000
44.7400 163.0000 1.0000
44.7600 167.0000 1.0000
44.7800 155.0000 1.0000
44.8000 188.0000 1.0000
44.8200 203.0000 1.0000
44.8400 187.0000 1.0000
44.8600 195.0000 1.0000
44.8800 162.0000 1.0000
44.9000 160.0000 1.0000
44.9200 190.0000 1.0000
44.9400 183.0000 1.0000
44.9600 175.0000 1.0000
44.9800 190.0000 1.0000
45.0000 192.0000 1.0000
45.0200 204.0000 1.0000
45.0400 181.0000 1.0000
45.0600 220.0000 1.0000
45.0800 188.0000 1.0000
45.1000 192.0000 1.0000
45.1200 184.0000 1.0000
45.1400 168.0000 1.0000
45.1600 192.0000 1.0000
45.1800 178.0000 1.0000
45.2000 196.0000 1.0000
45.2200 186.0000 1.0000
45.2400 182.0000 1.0000
45.2600 191.0000 1.0000
45.2800 213.0000 1.0000
45.3000 208.0000 1.0000
45.3200 190.0000 1.0000
45.3400 206.0000 1.0000
45.3600 201.0000 1.0000
45.3800 205.0000 1.0000
45.4000 191.0000 1.0000
45.4200 191.0000 1.0000
45.4400 225.0000 1.0000
45.4600 220.0000 1.0000
45.4800 236.0000 1.0000
45.5000 288.0000 1.0000
45.5200 314.0000 1.0000
45.5400 347.0000 1.0000
45.5600 388.0000 1.0000
45.5800 429.0000 1.0000
45.6000 407.0000 1.0000
45.6200 426.0000 1.0000
45.6400 420.0000 1.0000
45.6600 395.0000 1.0000
45.6800 337.0000 1.0000
45.7000 313.0000 1.0000
45.7200 319.0000 1.0000
45.7400 308.0000 1.0000
45.7600 269.0000 1.0000
45.7800 249.0000 1.0000
45.8000 225.0000 1.0000
45.8200 187.0000 1.0000
45.8400 187.0000 1.0000
45.8600 188.0000 1.0000
45.8800 172.0000 1.0000
45.9000 183.0000 1.0000
45.9200 163.0000 1.0000
45.9400 190.0000 1.0000
45.9600 159.0000 1.0000
45.9800 178.0000 1.0000
46.0000 175.0000 1.0000
46.0200 169.0000 1.0000
46.0400 174.0000 1.0000
46.0600 151.0000 1.0000
46.0800 152.0000 1.0000
46.1000 150.0000 1.0000
46.1200 140.0000 1.0000
46.1400 149.0000 1.0000
46.1600 116.0000 1.0000
46.1800 132.0000 1.0000
46.2000 139.0000 1.0000
46.2200 112.0000 1.0000
46.2400 121.0000 1.0000
46.2600 116.0000 1.0000
46.2800 128.0000 1.0000
46.3000 125.0000 1.0000
46.3200 127.0000 1.0000
46.3400 119.0000 1.0000
46.3600 120.0000 1.0000
46.3800 102.0000 1.0000
46.4000 105.0000 1.0000
46.4200 135.0000 1.0000
46.4400 103.0000 1.0000
46.4600 102.0000 1.0000
46.4800 99.0000 1.0000
46.5000 101.0000 1.0000
46.5200 94.0000 1.0000
46.5400 121.0000 1.0000
46.5600 114.0000 1.0000
46.5800 111.0000 1.0000
46.6000 122.0000 1.0000
46.6200 128.0000 1.0000
46.6400 111.0000 1.0000
46.6600 119.0000 1.0000
46.6800 120.0000 1.0000
46.7000 126.0000 1.0000
46.7200 131.0000 1.0000
46.7400 132.0000 1.0000
46.7600 119.0000 1.0000
46.7800 121.0000 1.0000
46.8000 131.0000 1.0000
46.8200 119.0000 1.0000
46.8400 148.0000 1.0000
46.8600 134.0000 1.0000
46.8800 145.0000 1.0000
46.9000 143.0000 1.0000
46.9200 156.0000 1.0000
46.9400 155.0000 1.0000
46.9600 151.0000 1.0000
46.9800 154.0000 1.0000
47.0000 133.0000 1.0000
47.0200 115.0000 1.0000
47.0400 116.0000 1.0000
47.0600 122.0000 1.0000
47.0800 111.0000 1.0000
47.1000 114.0000 1.0000
47.1200 117.0000 1.0000
47.1400 113.0000 1.0000
47.1600 113.0000 1.0000
47.1800 109.0000 1.0000
47.2000 111.0000 1.0000
47.2200 121.0000 1.0000
47.2400 119.0000 1.0000
47.2600 118.0000 1.0000
47.2800 101.0000 1.0000
47.3000 88.0000 1.0000
47.3200 111.0000 1.0000
47.3400 117.0000 1.0000
47.3600 97.0000 1.0000
47.3800 110.0000 1.0000
47.4000 116.0000 1.0000
47.4200 116.0000 1.0000
47.4400 121.0000 1.0000
47.4600 113.0000 1.0000
47.4800 111.0000 1.0000
47.5000 120.0000 1.0000
47.5200 111.0000 1.0000
47.5400 104.0000 1.0000
47.5600 120.0000 1.0000
47.5800 108.0000 1.0000
47.6000 112.0000 1.0000
47.6200 123.0000 1.0000
47.6400 125.0000 1.0000
47.6600 121.0000 1.0000
47.6800 136.0000 1.0000
47.7000 123.0000 1.0000
47.7200 130.0000 1.0000
47.7400 129.0000 1.0000
47.7600 131.0000 1.0000
47.7800 131.0000 1.0000
47.8000 133.0000 1.0000
47.8200 126.0000 1.0000
47.8400 130.0000 1.0000
47.8600 136.0000 1.0000
47.8800 141.0000 1.0000
47.9000 137.0000 1.0000
47.9200 137.0000 1.0000
47.9400 139.0000 1.0000
47.9600 143.0000 1.0000
47.9800 146.0000 1.0000
48.0000 130.0000 1.0000
48.0200 127.0000 1.0000
48.0400 145.0000 1.0000
48.0600 155.0000 1.0000
48.0800 148.0000 1.0000
48.1000 138.0000 1.0000
48.1200 153.0000 1.0000
48.1400 152.0000 1.0000
48.1600 141.0000 1.0000
48.1800 135.0000 1.0000
48.2000 120.0000 1.0000
48.2200 110.0000 1.0000
48.2400 134.0000 1.0000
48.2600 140.0000 1.0000
48.2800 128.0000 1.0000
48.3000 121.0000 1.0000
48.3200 119.0000 1.0000
48.3400 111.0000 1.0000
48.3600 111.0000 1.0000
48.3800 129.0000 1.0000
48.4000 126.0000 1.0000
48.4200 102.0000 1.0000
48.4400 101.0000 1.0000
48.4600 109.0000 1.0000
48.4800 102.0000 1.0000
48.5000 111.0000 1.0000
48.5200 121.0000 1.0000
48.5400 123.0000 1.0000
48.5600 118.0000 1.0000
48.5800 120.0000 1.0000
48.6000 131.0000 1.0000
48.6200 126.0000 1.0000
48.6400 123.0000 1.0000
48.6600 124.0000 1.0000
48.6800 124.0000 1.0000
48.7000 130.0000 1.0000
48.7200 132.0000 1.0000
48.7400 131.0000 1.0000
48.7600 126.0000 1.0000
48.7800 132.0000 1.0000
48.8000 143.0000 1.0000
48.8200 142.0000 1.0000
48.8400 142.0000 1.0000
48.8600 142.0000 1.0000
48.8800 153.0000 1.0000
48.9000 169.0000 1.0000
48.9200 168.0000 1.0000
48.9400 168.0000 1.0000
48.9600 174.0000 1.0000
48.9800 188.0000 1.0000
49.0000 203.0000 1.0000
49.0200 190.0000 1.0000
49.0400 188.0000 1.0000
49.0600 203.0000 1.0000
49.0800 204.0000 1.0000
49.1000 191.0000 1.0000
49.1200 179.0000 1.0000
49.1400 183.0000 1.0000
49.1600 178.0000 1.0000
49.1800 178.0000 1.0000
49.2000 187.0000 1.0000
49.2200 177.0000 1.0000
49.2400 173.0000 1.0000
49.2600 173.0000 1.0000
49.2800 159.0000 1.0000
49.3000 165.0000 1.0000
49.3200 176.0000 1.0000
49.3400 180.0000 1.0000
49.3600 179.0000 1.0000
49.3800 172.0000 1.0000
49.4000 189.0000 1.0000
49.4200 211.0000 1.0000
49.4400 207.0000 1.0000
49.4600 213.0000 1.0000
49.4800 222.0000 1.0000
49.5000 220.0000 1.0000
49.5200 238.0000 1.0000
49.5400 233.0000 1.0000
49.5600 239.0000 1.0000
49.5800 265.0000 1.0000
49.6000 255.0000 1.0000
49.6200 257.0000 1.0000
49.6400 258.0000 1.0000
49.6600 277.0000 1.0000
49.6800 282.0000 1.0000
49.7000 305.0000 1.0000
49.7200 325.0000 1.0000
49.7400 345.0000 1.0000
49.7600 338.0000 1.0000
49.7800 345.0000 1.0000
49.8000 400.0000 1.0000
49.8200 453.0000 1.0000
49.8400 527.0000 1.0000
49.8600 654.0000 1.0000
49.8800 800.0000 1.0000
49.9000 916.0000 1.0000
49.9200 980.0000 1.0000
49.9400 1073.0000 1.0000
49.9600 1135.0000 1.0000
49.9800 1082.0000 1.0000
50.0000 995.0000 1.0000
50.0200 886.0000 1.0000
50.0400 814.0000 1.0000
50.0600 727.0000 1.0000
50.0800 663.0000 1.0000
50.1000 611.0000 1.0000
50.1200 573.0000 1.0000
50.1400 491.0000 1.0000
50.1600 394.0000 1.0000
50.1800 322.0000 1.0000
50.2000 257.0000 1.0000
50.2200 248.0000 1.0000
50.2400 234.0000 1.0000
50.2600 209.0000 1.0000
50.2800 186.0000 1.0000
50.3000 201.0000 1.0000
50.3200 221.0000 1.0000
50.3400 205.0000 1.0000
50.3600 221.0000 1.0000
50.3800 232.0000 1.0000
50.4000 245.0000 1.0000
50.4200 252.0000 1.0000
50.4400 265.0000 1.0000
50.4600 248.0000 1.0000
50.4800 256.0000 1.0000
50.5000 265.0000 1.0000
50.5200 263.0000 1.0000
50.5400 246.0000 1.0000
50.5600 255.0000 1.0000
50.5800 251.0000 1.0000
50.6000 246.0000 1.0000
50.6200 219.0000 1.0000
50.6400 203.0000 1.0000
50.6600 207.0000 1.0000
50.6800 203.0000 1.0000
50.7000 186.0000 1.0000
50.7200 194.0000 1.0000
50.7400 179.0000 1.0000
50.7600 166.0000 1.0000
50.7800 150.0000 1.0000
50.8000 143.0000 1.0000
50.8200 176.0000 1.0000
50.8400 159.0000 1.0000
50.8600 165.0000 1.0000
50.8800 154.0000 1.0000
50.9000 187.0000 1.0000
50.9200 182.0000 1.0000
50.9400 200.0000 1.0000
50.9600 193.0000 1.0000
50.9800 207.0000 1.0000
51.0000 198.0000 1.0000
51.0200 200.0000 1.0000
51.0400 215.0000 1.0000
51.0600 192.0000 1.0000
51.0800 207.0000 1.0000
51.1000 187.0000 1.0000
51.1200 216.0000 1.0000
51.1400 192.0000 1.0000
51.1600 178.0000 1.0000
51.1800 184.0000 1.0000
51.2000 168.0000 1.0000
51.2200 172.0000 1.0000
51.2400 158.0000 1.0000
51.2600 165.0000 1.0000
51.2800 167.0000 1.0000
51.3000 181.0000 1.0000
51.3200 177.0000 1.0000
51.3400 182.0000 1.0000
51.3600 177.0000 1.0000
51.3800 163.0000 1.0000
51.4000 185.0000 1.0000
51.4200 143.0000 1.0000
51.4400 140.0000 1.0000
51.4600 156.0000 1.0000
51.4800 157.0000 1.0000
51.5000 126.0000 1.0000
51.5200 134.0000 1.0000
51.5400 162.0000 1.0000
51.5600 131.0000 1.0000
51.5800 113.0000 1.0000
51.6000 117.0000 1.0000
51.6200 134.0000 1.0000
51.6400 124.0000 1.0000
51.6600 114.0000 1.0000
51.6800 126.0000 1.0000
51.7000 120.0000 1.0000
51.7200 127.0000 1.0000
51.7400 117.0000 1.0000
51.7600 118.0000 1.0000
51.7800 134.0000 1.0000
51.8000 130.0000 1.0000
51.8200 138.0000 1.0000
51.8400 142.0000 1.0000
51.8600 139.0000 1.0000
51.8800 147.0000 1.0000
51.9000 154.0000 1.0000
51.9200 167.0000 1.0000
51.9400 135.0000 1.0000
51.9600 153.0000 1.0000
51.9800 174.0000 1.0000
52.0000 183.0000 1.0000
52.0200 169.0000 1.0000
52.0400 192.0000 1.0000
52.0600 181.0000 1.0000
52.0800 192.0000 1.0000
52.1000 184.0000 1.0000
52.1200 204.0000 1.0000
52.1400 164.0000 1.0000
52.1600 214.0000 1.0000
52.1800 221.0000 1.0000
52.2000 225.0000 1.0000
52.2200 256.0000 1.0000
52.2400 307.0000 1.0000
52.2600 357.0000 1.0000
52.2800 417.0000 1.0000
52.3000 494.0000 1.0000
52.3200 593.0000 1.0000
52.3400 728.0000 1.0000
52.3600 751.0000 1.0000
52.3800 757.0000 1.0000
52.4000 748.0000 1.0000
52.4200 738.0000 1.0000
52.4400 655.0000 1.0000
52.4600 595.0000 1.0000
52.4800 547.0000 1.0000
52.5000 482.0000 1.0000
52.5200 490.0000 1.0000
52.5400 480.0000 1.0000
52.5600 423.0000 1.0000
52.5800 358.0000 1.0000
52.6000 300.0000 1.0000
52.6200 255.0000 1.0000
52.6400 207.0000 1.0000
52.6600 212.0000 1.0000
52.6800 175.0000 1.0000
52.7000 172.0000 1.0000
52.7200 159.0000 1.0000
52.7400 162.0000 1.0000
52.7600 159.0000 1.0000
52.7800 161.0000 1.0000
52.8000 156.0000 1.0000
52.8200 153.0000 1.0000
52.8400 138.0000 1.0000
52.8600 140.0000 1.0000
52.8800 172.0000 1.0000
52.9000 180.0000 1.0000
52.9200 166.0000 1.0000
52.9400 158.0000 1.0000
52.9600 163.0000 1.0000
52.9800 153.0000 1.0000
53.0000 154.0000 1.0000
53.0200 144.0000 1.0000
53.0400 174.0000 1.0000
53.0600 150.0000 1.0000
53.0800 170.0000 1.0000
53.1000 163.0000 1.0000
53.1200 168.0000 1.0000
53.1400 175.0000 1.0000
53.1600 173.0000 1.0000
53.1800 163.0000 1.0000
53.2000 167.0000 1.0000
53.2200 153.0000 1.0000
53.2400 144.0000 1.0000
53.2600 151.0000 1.0000
53.2800 133.0000 1.0000
53.3000 131.0000 1.0000
53.3200 141.0000 1.0000
53.3400 135.0000 1.0000
53.3600 136.0000 1.0000
53.3800 139.0000 1.0000
53.4000 135.0000 1.0000
53.4200 131.0000 1.0000
53.4400 134.0000 1.0000
53.4600 146.0000 1.0000
53.4800 124.0000 1.0000
53.5000 120.0000 1.0000
53.5200 148.0000 1.0000
53.5400 123.0000 1.0000
53.5600 130.0000 1.0000
53.5800 140.0000 1.0000
53.6000 124.0000 1.0000
53.6200 125.0000 1.0000
53.6400 123.0000 1.0000
53.6600 143.0000 1.0000
53.6800 140.0000 1.0000
53.7000 169.0000 1.0000
53.7200 132.0000 1.0000
53.7400 141.0000 1.0000
53.7600 158.0000 1.0000
53.7800 143.0000 1.0000
53.8000 154.0000 1.0000
53.8200 144.0000 1.0000
53.8400 147.0000 1.0000
53.8600 134.0000 1.0000
53.8800 131.0000 1.0000
53.9000 147.0000 1.0000
53.9200 164.0000 1.0000
53.9400 136.0000 1.0000
53.9600 128.0000 1.0000
53.9800 147.0000 1.0000
54.0000 160.0000 1.0000
54.0200 154.0000 1.0000
54.0400 136.0000 1.0000
54.0600 132.0000 1.0000
54.0800 132.0000 1.0000
54.1000 147.0000 1.0000
54.1200 150.0000 1.0000
54.1400 149.0000 1.0000
54.1600 135.0000 1.0000
54.1800 148.0000 1.0000
54.2000 148.0000 1.0000
54.2200 154.0000 1.0000
54.2400 160.0000 1.0000
54.2600 165.0000 1.0000
54.2800 175.0000 1.0000
54.3000 168.0000 1.0000
54.3200 167.0000 1.0000
54.3400 170.0000 1.0000
54.3600 170.0000 1.0000
54.3800 176.0000 1.0000
54.4000 175.0000 1.0000
54.4200 161.0000 1.0000
54.4400 153.0000 1.0000
54.4600 155.0000 1.0000
54.4800 163.0000 1.0000
54.5000 175.0000 1.0000
54.5200 183.0000 1.0000
54.5400 192.0000 1.0000
54.5600 217.0000 1.0000
54.5800 243.0000 1.0000
54.6000 304.0000 1.0000
54.6200 312.0000 1.0000
54.6400 347.0000 1.0000
54.6600 404.0000 1.0000
54.6800 419.0000 1.0000
54.7000 438.0000 1.0000
54.7200 430.0000 1.0000
54.7400 398.0000 1.0000
54.7600 380.0000 1.0000
54.7800 333.0000 1.0000
54.8000 320.0000 1.0000
54.8200 329.0000 1.0000
54.8400 302.0000 1.0000
54.8600 291.0000 1.0000
54.8800 278.0000 1.0000
54.9000 243.0000 1.0000
54.9200 224.0000 1.0000
54.9400 212.0000 1.0000
54.9600 191.0000 1.0000
54.9800 180.0000 1.0000
55.0000 195.0000 1.0000
55.0200 200.0000 1.0000
55.0400 207.0000 1.0000
55.0600 232.0000 1.0000
55.0800 240.0000 1.0000
55.1000 264.0000 1.0000
55.1200 273.0000 1.0000
55.1400 267.0000 1.0000
55.1600 254.0000 1.0000
55.1800 246.0000 1.0000
55.2000 249.0000 1.0000
55.2200 221.0000 1.0000
55.2400 208.0000 1.0000
55.2600 228.0000 1.0000
55.2800 233.0000 1.0000
55.3000 217.0000 1.0000
55.3200 218.0000 1.0000
55.3400 213.0000 1.0000
55.3600 196.0000 1.0000
55.3800 191.0000 1.0000
55.4000 175.0000 1.0000
55.4200 155.0000 1.0000
55.4400 147.0000 1.0000
55.4600 148.0000 1.0000
55.4800 155.0000 1.0000
55.5000 158.0000 1.0000
55.5200 156.0000 1.0000
55.5400 147.0000 1.0000
55.5600 139.0000 1.0000
55.5800 142.0000 1.0000
55.6000 146.0000 1.0000
55.6200 136.0000 1.0000
55.6400 135.0000 1.0000
55.6600 148.0000 1.0000
55.6800 160.0000 1.0000
55.7000 166.0000 1.0000
55.7200 161.0000 1.0000
55.7400 152.0000 1.0000
55.7600 150.0000 1.0000
55.7800 143.0000 1.0000
55.8000 151.0000 1.0000
55.8200 147.0000 1.0000
55.8400 145.0000 1.0000
55.8600 153.0000 1.0000
55.8800 159.0000 1.0000
55.9000 165.0000 1.0000
55.9200 153.0000 1.0000
55.9400 141.0000 1.0000
55.9600 137.0000 1.0000
55.9800 140.0000 1.0000
56.0000 142.0000 1.0000
56.0200 146.0000 1.0000
56.0400 155.0000 1.0000
56.0600 158.0000 1.0000
56.0800 151.0000 1.0000
56.1000 161.0000 1.0000
56.1200 184.0000 1.0000
56.1400 183.0000 1.0000
56.1600 169.0000 1.0000
56.1800 173.0000 1.0000
56.2000 164.0000 1.0000
56.2200 160.0000 1.0000
56.2400 176.0000 1.0000
56.2600 178.0000 1.0000
56.2800 187.0000 1.0000
56.3000 194.0000 1.0000
56.3200 201.0000 1.0000
56.3400 193.0000 1.0000
56.3600 186.0000 1.0000
56.3800 201.0000 1.0000
56.4000 202.0000 1.0000
56.4200 200.0000 1.0000
56.4400 214.0000 1.0000
56.4600 198.0000 1.0000
56.4800 191.0000 1.0000
56.5000 193.0000 1.0000
56.5200 186.0000 1.0000
56.5400 193.0000 1.0000
56.5600 186.0000 1.0000
56.5800 184.0000 1.0000
56.6000 181.0000 1.0000
56.6200 154.0000 1.0000
56.6400 160.0000 1.0000
56.6600 173.0000 1.0000
56.6800 179.0000 1.0000
56.7000 175.0000 1.0000
56.7200 165.0000 1.0000
56.7400 159.0000 1.0000
56.7600 156.0000 1.0000
56.7800 171.0000 1.0000
56.8000 168.0000 1.0000
56.8200 163.0000 1.0000
56.8400 171.0000 1.0000
56.8600 167.0000 1.0000
56.8800 162.0000 1.0000
56.9000 168.0000 1.0000
56.9200 163.0000 1.0000
56.9400 155.0000 1.0000
56.9600 168.0000 1.0000
56.9800 201.0000 1.0000
57.0000 200.0000 1.0000
57.0200 184.0000 1.0000
57.0400 216.0000 1.0000
57.0600 238.0000 1.0000
57.0800 234.0000 1.0000
57.1000 236.0000 1.0000
57.1200 257.0000 1.0000
57.1400 297.0000 1.0000
57.1600 344.0000 1.0000
57.1800 379.0000 1.0000
57.2000 471.0000 1.0000
57.2200 568.0000 1.0000
57.2400 738.0000 1.0000
57.2600 945.0000 1.0000
57.2800 1061.0000 1.0000
57.3000 1189.0000 1.0000
57.3200 1344.0000 1.0000
57.3400 1410.0000 1.0000
57.3600 1337.0000 1.0000
57.3800 1123.0000 1.0000
57.4000 1010.0000 1.0000
57.4200 947.0000 1.0000
57.4400 857.0000 1.0000
57.4600 835.0000 1.0000
57.4800 806.0000 1.0000
57.5000 752.0000 1.0000
57.5200 652.0000 1.0000
57.5400 576.0000 1.0000
57.5600 495.0000 1.0000
57.5800 403.0000 1.0000
57.6000 310.0000 1.0000
57.6200 279.0000 1.0000
57.6400 241.0000 1.0000
57.6600 205.0000 1.0000
57.6800 179.0000 1.0000
57.7000 178.0000 1.0000
57.7200 186.0000 1.0000
57.7400 177.0000 1.0000
57.7600 180.0000 1.0000
57.7800 164.0000 1.0000
57.8000 158.0000 1.0000
57.8200 155.0000 1.0000
57.8400 163.0000 1.0000
57.8600 161.0000 1.0000
57.8800 161.0000 1.0000
57.9000 149.0000 1.0000
57.9200 143.0000 1.0000
57.9400 146.0000 1.0000
57.9600 160.0000 1.0000
57.9800 134.0000 1.0000
58.0000 136.0000 1.0000
58.0200 132.0000 1.0000
58.0400 141.0000 1.0000
58.0600 135.0000 1.0000
58.0800 128.0000 1.0000
58.1000 142.0000 1.0000
58.1200 140.0000 1.0000
58.1400 124.0000 1.0000
58.1600 120.0000 1.0000
58.1800 135.0000 1.0000
58.2000 128.0000 1.0000
58.2200 104.0000 1.0000
58.2400 114.0000 1.0000
58.2600 109.0000 1.0000
58.2800 131.0000 1.0000
58.3000 126.0000 1.0000
58.3200 120.0000 1.0000
58.3400 125.0000 1.0000
58.3600 126.0000 1.0000
58.3800 120.0000 1.0000
58.4000 128.0000 1.0000
58.4200 136.0000 1.0000
58.4400 141.0000 1.0000
58.4600 144.0000 1.0000
58.4800 151.0000 1.0000
58.5000 151.0000 1.0000
58.5200 139.0000 1.0000
58.5400 137.0000 1.0000
58.5600 164.0000 1.0000
58.5800 171.0000 1.0000
58.6000 162.0000 1.0000
58.6200 144.0000 1.0000
58.6400 160.0000 1.0000
58.6600 162.0000 1.0000
58.6800 139.0000 1.0000
58.7000 158.0000 1.0000
58.7200 162.0000 1.0000
58.7400 150.0000 1.0000
58.7600 138.0000 1.0000
58.7800 138.0000 1.0000
58.8000 134.0000 1.0000
58.8200 131.0000 1.0000
58.8400 139.0000 1.0000
58.8600 139.0000 1.0000
58.8800 123.0000 1.0000
58.9000 136.0000 1.0000
58.9200 135.0000 1.0000
58.9400 135.0000 1.0000
58.9600 134.0000 1.0000
58.9800 130.0000 1.0000
59.0000 132.0000 1.0000
59.0200 133.0000 1.0000
59.0400 130.0000 1.0000
59.0600 145.0000 1.0000
59.0800 140.0000 1.0000
59.1000 160.0000 1.0000
59.1200 171.0000 1.0000
59.1400 162.0000 1.0000
59.1600 178.0000 1.0000
59.1800 143.0000 1.0000
59.2000 166.0000 1.0000
59.2200 158.0000 1.0000
59.2400 168.0000 1.0000
59.2600 167.0000 1.0000
59.2800 162.0000 1.0000
59.3000 183.0000 1.0000
59.3200 186.0000 1.0000
59.3400 170.0000 1.0000
59.3600 196.0000 1.0000
59.3800 168.0000 1.0000
59.4000 181.0000 1.0000
59.4200 203.0000 1.0000
59.4400 211.0000 1.0000
59.4600 214.0000 1.0000
59.4800 213.0000 1.0000
59.5000 194.0000 1.0000
59.5200 227.0000 1.0000
59.5400 248.0000 1.0000
59.5600 270.0000 1.0000
59.5800 261.0000 1.0000
59.6000 283.0000 1.0000
59.6200 274.0000 1.0000
59.6400 339.0000 1.0000
59.6600 377.0000 1.0000
59.6800 425.0000 1.0000
59.7000 480.0000 1.0000
59.7200 577.0000 1.0000
59.7400 690.0000 1.0000
59.7600 750.0000 1.0000
59.7800 750.0000 1.0000
59.8000 774.0000 1.0000
59.8200 716.0000 1.0000
59.8400 689.0000 1.0000
59.8600 587.0000 1.0000
59.8800 554.0000 1.0000
59.9000 528.0000 1.0000
59.9200 509.0000 1.0000
59.9400 491.0000 1.0000
59.9600 501.0000 1.0000
59.9800 464.0000 1.0000
60.0000 445.0000 1.0000
60.0200 337.0000 1.0000
60.0400 287.0000 1.0000
60.0600 273.0000 1.0000
60.0800 244.0000 1.0000
60.1000 212.0000 1.0000
60.1200 226.0000 1.0000
60.1400 189.0000 1.0000
60.1600 171.0000 1.0000
60.1800 184.0000 1.0000
60.2000 178.0000 1.0000
60.2200 161.0000 1.0000
60.2400 175.0000 1.0000
60.2600 154.0000 1.0000
60.2800 175.0000 1.0000
60.3000 156.0000 1.0000
60.3200 161.0000 1.0000
60.3400 170.0000 1.0000
60.3600 167.0000 1.0000
60.3800 178.0000 1.0000
60.4000 159.0000 1.0000
60.4200 169.0000 1.0000
60.4400 161.0000 1.0000
60.4600 171.0000 1.0000
60.4800 163.0000 1.0000
60.5000 140.0000 1.0000
60.5200 167.0000 1.0000
60.5400 157.0000 1.0000
60.5600 159.0000 1.0000
60.5800 154.0000 1.0000
60.6000 129.0000 1.0000
60.6200 149.0000 1.0000
60.6400 147.0000 1.0000
60.6600 155.0000 1.0000
60.6800 157.0000 1.0000
60.7000 154.0000 1.0000
60.7200 159.0000 1.0000
60.7400 152.0000 1.0000
60.7600 158.0000 1.0000
60.7800 171.0000 1.0000
60.8000 165.0000 1.0000
60.8200 169.0000 1.0000
60.8400 190.0000 1.0000
60.8600 173.0000 1.0000
60.8800 200.0000 1.0000
60.9000 186.0000 1.0000
60.9200 177.0000 1.0000
60.9400 199.0000 1.0000
60.9600 218.0000 1.0000
60.9800 229.0000 1.0000
61.0000 199.0000 1.0000
61.0200 207.0000 1.0000
61.0400 223.0000 1.0000
61.0600 200.0000 1.0000
61.0800 245.0000 1.0000
61.1000 266.0000 1.0000
61.1200 297.0000 1.0000
61.1400 287.0000 1.0000
61.1600 330.0000 1.0000
61.1800 260.0000 1.0000
61.2000 257.0000 1.0000
61.2200 246.0000 1.0000
61.2400 240.0000 1.0000
61.2600 219.0000 1.0000
61.2800 226.0000 1.0000
61.3000 233.0000 1.0000
61.3200 225.0000 1.0000
61.3400 246.0000 1.0000
61.3600 233.0000 1.0000
61.3800 219.0000 1.0000
61.4000 236.0000 1.0000
61.4200 202.0000 1.0000
61.4400 238.0000 1.0000
61.4600 224.0000 1.0000
61.4800 237.0000 1.0000
61.5000 235.0000 1.0000
61.5200 225.0000 1.0000
61.5400 200.0000 1.0000
61.5600 230.0000 1.0000
61.5800 235.0000 1.0000
61.6000 243.0000 1.0000
61.6200 232.0000 1.0000
61.6400 220.0000 1.0000
61.6600 203.0000 1.0000
61.6800 249.0000 1.0000
61.7000 241.0000 1.0000
61.7200 257.0000 1.0000
61.7400 232.0000 1.0000
61.7600 216.0000 1.0000
61.7800 243.0000 1.0000
61.8000 208.0000 1.0000
61.8200 214.0000 1.0000
61.8400 221.0000 1.0000
61.8600 199.0000 1.0000
61.8800 227.0000 1.0000
61.9000 187.0000 1.0000
61.9200 237.0000 1.0000
61.9400 224.0000 1.0000
61.9600 187.0000 1.0000
61.9800 179.0000 1.0000
62.0000 174.0000 1.0000
62.0200 182.0000 1.0000
62.0400 172.0000 1.0000
62.0600 194.0000 1.0000
62.0800 211.0000 1.0000
62.1000 164.0000 1.0000
62.1200 165.0000 1.0000
62.1400 170.0000 1.0000
62.1600 190.0000 1.0000
62.1800 174.0000 1.0000
62.2000 143.0000 1.0000
62.2200 164.0000 1.0000
62.2400 161.0000 1.0000
62.2600 187.0000 1.0000
62.2800 175.0000 1.0000
62.3000 159.0000 1.0000
62.3200 162.0000 1.0000
62.3400 137.0000 1.0000
62.3600 161.0000 1.0000
62.3800 179.0000 1.0000
62.4000 141.0000 1.0000
62.4200 153.0000 1.0000
62.4400 150.0000 1.0000
62.4600 145.0000 1.0000
62.4800 139.0000 1.0000
62.5000 157.0000 1.0000
62.5200 134.0000 1.0000
62.5400 143.0000 1.0000
62.5600 123.0000 1.0000
62.5800 144.0000 1.0000
62.6000 160.0000 1.0000
62.6200 134.0000 1.0000
62.6400 150.0000 1.0000
62.6600 128.0000 1.0000
62.6800 129.0000 1.0000
62.7000 118.0000 1.0000
62.7200 113.0000 1.0000
62.7400 153.0000 1.0000
62.7600 137.0000 1.0000
62.7800 130.0000 1.0000
62.8000 144.0000 1.0000
62.8200 115.0000 1.0000
62.8400 128.0000 1.0000
62.8600 139.0000 1.0000
62.8800 128.0000 1.0000
62.9000 135.0000 1.0000
62.9200 146.0000 1.0000
62.9400 155.0000 1.0000
62.9600 120.0000 1.0000
62.9800 122.0000 1.0000
63.0000 118.0000 1.0000
63.0200 126.0000 1.0000
63.0400 121.0000 1.0000
63.0600 133.0000 1.0000
63.0800 134.0000 1.0000
63.1000 163.0000 1.0000
63.1200 138.0000 1.0000
63.1400 119.0000 1.0000
63.1600 118.0000 1.0000
63.1800 126.0000 1.0000
63.2000 144.0000 1.0000
63.2200 135.0000 1.0000
63.2400 133.0000 1.0000
63.2600 117.0000 1.0000
63.2800 125.0000 1.0000
63.3000 135.0000 1.0000
63.3200 149.0000 1.0000
63.3400 157.0000 1.0000
63.3600 130.0000 1.0000
63.3800 160.0000 1.0000
63.4000 154.0000 1.0000
63.4200 155.0000 1.0000
63.4400 168.0000 1.0000
63.4600 179.0000 1.0000
63.4800 179.0000 1.0000
63.5000 140.0000 1.0000
63.5200 172.0000 1.0000
63.5400 173.0000 1.0000
63.5600 155.0000 1.0000
63.5800 167.0000 1.0000
63.6000 175.0000 1.0000
63.6200 180.0000 1.0000
63.6400 175.0000 1.0000
63.6600 167.0000 1.0000
63.6800 183.0000 1.0000
63.7000 219.0000 1.0000
63.7200 207.0000 1.0000
63.7400 185.0000 1.0000
63.7600 195.0000 1.0000
63.7800 221.0000 1.0000
63.8000 249.0000 1.0000
63.8200 254.0000 1.0000
63.8400 276.0000 1.0000
63.8600 282.0000 1.0000
63.8800 266.0000 1.0000
63.9000 248.0000 1.0000
63.9200 218.0000 1.0000
63.9400 222.0000 1.0000
63.9600 213.0000 1.0000
63.9800 217.0000 1.0000
64.0000 189.0000 1.0000
64.0200 194.0000 1.0000
64.0400 190.0000 1.0000
64.0600 182.0000 1.0000
64.0800 179.0000 1.0000
64.1000 184.0000 1.0000
64.1200 174.0000 1.0000
64.1400 166.0000 1.0000
64.1600 136.0000 1.0000
64.1800 129.0000 1.0000
64.2000 129.0000 1.0000
64.2200 136.0000 1.0000
64.2400 119.0000 1.0000
64.2600 131.0000 1.0000
64.2800 136.0000 1.0000
64.3000 132.0000 1.0000
64.3200 133.0000 1.0000
64.3400 123.0000 1.0000
64.3600 119.0000 1.0000
64.3800 135.0000 1.0000
64.4000 132.0000 1.0000
64.4200 122.0000 1.0000
64.4400 118.0000 1.0000
64.4600 119.0000 1.0000
64.4800 149.0000 1.0000
64.5000 124.0000 1.0000
64.5200 129.0000 1.0000
64.5400 130.0000 1.0000
64.5600 143.0000 1.0000
64.5800 134.0000 1.0000
64.6000 119.0000 1.0000
64.6200 135.0000 1.0000
64.6400 120.0000 1.0000
64.6600 134.0000 1.0000
64.6800 137.0000 1.0000
64.7000 120.0000 1.0000
64.7200 128.0000 1.0000
64.7400 136.0000 1.0000
64.7600 131.0000 1.0000
64.7800 138.0000 1.0000
64.8000 151.0000 1.0000
64.8200 133.0000 1.0000
64.8400 133.0000 1.0000
64.8600 147.0000 1.0000
64.8800 163.0000 1.0000
64.9000 153.0000 1.0000
64.9200 147.0000 1.0000
64.9400 146.0000 1.0000
64.9600 146.0000 1.0000
64.9800 146.0000 1.0000
65.0000 146.0000 1.0000
*RAS_INT_END
*RAS_DATA_END
