*RAS_DATA_START
*RAS_HEADER_START
*CORR_POS_DB_NAME "Angle Correction ASC6 SC WITH Mono_04082019"
*CORR_POS_GONIO_RADIUS ""
*CORR_POS_NODE_INDEX01 ""
*CORR_POS_NODE_INDEX02 ""
*CORR_POS_NODE_INDEX03 ""
*CORR_POS_NODE_INDEX04 ""
*CORR_POS_NODE_INDEX05 ""
*CORR_POS_NODE_INDEX06 ""
*CORR_POS_NODE_INDEX07 ""
*CORR_POS_NODE_INDEX08 ""
*CORR_POS_NODE_INDEX09 ""
*CORR_POS_NODE_INDEX10 ""
*CORR_POS_NODE_INDEX11 ""
*CORR_POS_NODE_LABEL01 "Si(111)"
*CORR_POS_NODE_LABEL02 "Si(220)"
*CORR_POS_NODE_LABEL03 "Si(311)"
*CORR_POS_NODE_LABEL04 "Si(400)"
*CORR_POS_NODE_LABEL05 "Si(331)"
*CORR_POS_NODE_LABEL06 "Si(422)"
*CORR_POS_NODE_LABEL07 "Si(511)"
*CORR_POS_NODE_LABEL08 "Si(440)"
*CORR_POS_NODE_LABEL09 "Si(531)"
*CORR_POS_NODE_LABEL10 "Si(620)"
*CORR_POS_NODE_LABEL11 "Si(533)"
*CORR_POS_NODE_POS_CALC01 "28.377"
*CORR_POS_NODE_POS_CALC02 "47.2506"
*CORR_POS_NODE_POS_CALC03 "56.0725"
*CORR_POS_NODE_POS_CALC04 "69.0822"
*CORR_POS_NODE_POS_CALC05 "76.3294"
*CORR_POS_NODE_POS_CALC06 "87.9853"
*CORR_POS_NODE_POS_CALC07 "94.9091"
*CORR_POS_NODE_POS_CALC08 "106.668"
*CORR_POS_NODE_POS_CALC09 "114.054"
*CORR_POS_NODE_POS_CALC10 "127.511"
*CORR_POS_NODE_POS_CALC11 "136.864"
*CORR_POS_NODE_POS_MEAS01 "28.5058"
*CORR_POS_NODE_POS_MEAS02 "47.345"
*CORR_POS_NODE_POS_MEAS03 "56.1421"
*CORR_POS_NODE_POS_MEAS04 "69.1304"
*CORR_POS_NODE_POS_MEAS05 "76.366"
*CORR_POS_NODE_POS_MEAS06 "88.0213"
*CORR_POS_NODE_POS_MEAS07 "94.9406"
*CORR_POS_NODE_POS_MEAS08 "106.689"
*CORR_POS_NODE_POS_MEAS09 "114.065"
*CORR_POS_NODE_POS_MEAS10 "127.518"
*CORR_POS_NODE_POS_MEAS11 "136.869"
*CORR_POS_OPT_ATTR "集中法"
*CORR_POS_PARAM_MU ""
*CORR_POS_PARAM_PL ""
*CORR_POS_SEMODEL_TYPE "0"
*CORR_POS_STANDARD_TYPE ""
*CORR_POS_VALUE_ANALYZER "None"
*CORR_POS_VALUE_CMONO "None"
*CORR_POS_VALUE_IMONO "None"
*CORR_POS_VALUE_IS "1.250deg"
*CORR_POS_VALUE_ISL "10.0mm"
*CORR_POS_VALUE_ISOLLER "5.0deg"
*CORR_POS_VALUE_RS1 "1.250deg"
*CORR_POS_VALUE_RS2 "0.3mm"
*CORR_POS_VALUE_RSOLLER "5.0deg"
*CORR_POS_XG_FOCUS_L ""
*CORR_POS_XG_WAVE_TYPE ""
*CORR_POS_XG_WAVE_VALUE ""
*DISP_FMT_X "%.2f"
*DISP_FMT_Y "%.0f"
*DISP_FULLSCALE "5238.0000000000"
*DISP_LINE_COLOR "255.0000000000"
*DISP_LINE_STYLE "0.0000000000"
*DISP_LINE_WIDTH "0.2500000000"
*DISP_NOTE "Collected Data-37"
*DISP_OFFSET_Y "0.0000000000"
*DISP_PEAKSEARCH_UNIT_Y "CPS"
*DISP_RANGE_BOTTOM "0.0000000000"
*DISP_RANGE_LEFT "5.0000000000"
*DISP_RANGE_LOGCUTOFF "0.0100000000"
*DISP_RANGE_RIGHT "65.0000000000"
*DISP_RANGE_TOP "5238.0000000000"
*DISP_SCALE_MODE_Y "0.0000000000"
*DISP_TAB_NAME "Theta/2-Theta"
*DISP_TITLE_Y "Intensity"
*DISP_UNIT_Y "CPS"
*DISP_WINDOW_NAME "MSG_MACROENGINE"
*FILE_COMMENT " "
*FILE_MD5 ""
*FILE_MEMO " "
*FILE_OPERATOR "Administrator"
*FILE_PART_ID "MEAS_PBEA_00223"
*FILE_SAMPLE " "
*FILE_TYPE "RAS_RAW"
*FILE_USERGROUP "System Manager"
*FILE_VERSION "1.0000000000"
*HW_ATTACHMENT_ID "ATT1031"
*HW_ATTACHMENT_NAME "6サンプルチェンジャ|ASC-6"
*HW_COUNTER_ID-0 "CUT0021"
*HW_COUNTER_ID-1 "CUT0020"
*HW_COUNTER_ID-2 "CUT0020"
*HW_COUNTER_ID-3 "CMC0021"
*HW_COUNTER_NAME-0 "SC-70|SC-70"
*HW_COUNTER_NAME-1 "None|None"
*HW_COUNTER_NAME-2 "None|None"
*HW_COUNTER_NAME-3 "検出器モノクロメータ|Detector monochromator"
*HW_COUNTER_SELECT_NAME "SC-70|SC-70"
*HW_ECP_HV "671.5000000000"
*HW_ECP_HV_UNIT "V"
*HW_GONIOMETER_ID "GON0070"
*HW_GONIOMETER_NAME "MiniFlex 300/600|MiniFlex 300/600"
*HW_GONIOMETER_RADIUS-0 "79.0"
*HW_GONIOMETER_RADIUS-1 "91.5"
*HW_GONIOMETER_RADIUS-2 "150.0"
*HW_GONIOMETER_RADIUS-3 "0"
*HW_GONIOMETER_RADIUS-4 "103.4"
*HW_GONIOMETER_RADIUS-5 "150.0"
*HW_GONIOMETER_RADIUS-6 "46.6"
*HW_GONIOMETER_RADIUS-7 "160.0"
*HW_I_OPT_ID-0 "ISL0021"
*HW_I_OPT_ID-1 "ISO0021"
*HW_I_OPT_NAME-0 "発散スリット|Divergence slit"
*HW_I_OPT_NAME-1 "入射平行スリット|Incident parallel slit"
*HW_R_ATTENUATER_AUTOMODE "0"
*HW_R_OPT_ID-0 "RSS0021"
*HW_R_OPT_ID-1 "RSO0021"
*HW_R_OPT_ID-2 "RRS0021"
*HW_R_OPT_NAME-0 "散乱スリット|Scattering slit"
*HW_R_OPT_NAME-1 "受光平行スリット|Receiving soller slit"
*HW_R_OPT_NAME-2 "受光スリット|Receiving slit"
*HW_SAMPLE_HOLDER_ID "SMP0000"
*HW_SAMPLE_HOLDER_NAME "無し|None"
*HW_XG_CURRENT_MAX "15"
*HW_XG_CURRENT_MIN "2"
*HW_XG_CURRENT_RESOLUTION "1"
*HW_XG_CURRENT_UNIT "mA"
*HW_XG_FOCUS "1mm x 10mm"
*HW_XG_FOCUS_TYPE "Normal"
*HW_XG_ID "1060"
*HW_XG_NAME "300W/600W 封入管-B|300W/600W Sealed tube-B"
*HW_XG_TARGET_ATOMIC_NUMBER "29.0000000000"
*HW_XG_TARGET_NAME "Cu"
*HW_XG_TYPE "Hermetic"
*HW_XG_VOLTAGE_MAX "40"
*HW_XG_VOLTAGE_MIN "20"
*HW_XG_VOLTAGE_RESOLUTION "1"
*HW_XG_VOLTAGE_UNIT "kV"
*HW_XG_WATT_MAX "0.600"
*HW_XG_WATT_UNIT "kW"
*HW_XG_WAVE_LENGTH_ALPHA1 "1.540593"
*HW_XG_WAVE_LENGTH_ALPHA2 "1.544414"
*HW_XG_WAVE_LENGTH_BETA "1.392250"
*MEAS_COND_AXIS_NAME-0 "Theta/2-Theta"
*MEAS_COND_AXIS_NAME-1 "Spin"
*MEAS_COND_AXIS_NAME-2 "Change"
*MEAS_COND_AXIS_NAME-3 "Soller(inc.)"
*MEAS_COND_AXIS_NAME-4 "IHS"
*MEAS_COND_AXIS_NAME-5 "DS"
*MEAS_COND_AXIS_NAME-6 "SS"
*MEAS_COND_AXIS_NAME-7 "Soller(rec.)"
*MEAS_COND_AXIS_NAME-8 "RS"
*MEAS_COND_AXIS_NAME-9 "Filter"
*MEAS_COND_AXIS_NAME-10 "Monochromator"
*MEAS_COND_AXIS_NAME-11 "HV"
*MEAS_COND_AXIS_NAME-12 "PHA"
*MEAS_COND_AXIS_NAME_INTERNAL-0 "TwoThetaTheta"
*MEAS_COND_AXIS_NAME_INTERNAL-1 "Spin"
*MEAS_COND_AXIS_NAME_INTERNAL-2 "Change"
*MEAS_COND_AXIS_NAME_INTERNAL-3 "IncidentSollerSlit"
*MEAS_COND_AXIS_NAME_INTERNAL-4 "IncidentAxdSlit"
*MEAS_COND_AXIS_NAME_INTERNAL-5 "IncidentSlitBox"
*MEAS_COND_AXIS_NAME_INTERNAL-6 "ReceivingSlitBox1"
*MEAS_COND_AXIS_NAME_INTERNAL-7 "ReceivingSollerSlit"
*MEAS_COND_AXIS_NAME_INTERNAL-8 "ReceivingSlitBox2"
*MEAS_COND_AXIS_NAME_INTERNAL-9 "Filter"
*MEAS_COND_AXIS_NAME_INTERNAL-10 "CounterMonochromator"
*MEAS_COND_AXIS_NAME_INTERNAL-11 "HV"
*MEAS_COND_AXIS_NAME_INTERNAL-12 "PHA"
*MEAS_COND_AXIS_NAME_MAGICNO-0 "268632064.0000000000"
*MEAS_COND_AXIS_NAME_MAGICNO-1 "16842752.0000000000"
*MEAS_COND_AXIS_NAME_MAGICNO-2 "16842752.0000000000"
*MEAS_COND_AXIS_NAME_MAGICNO-3 "20971521.0000000000"
*MEAS_COND_AXIS_NAME_MAGICNO-4 "22020097.0000000000"
*MEAS_COND_AXIS_NAME_MAGICNO-5 "22020097.0000000000"
*MEAS_COND_AXIS_NAME_MAGICNO-6 "23068673.0000000000"
*MEAS_COND_AXIS_NAME_MAGICNO-7 "20971521.0000000000"
*MEAS_COND_AXIS_NAME_MAGICNO-8 "23068673.0000000000"
*MEAS_COND_AXIS_NAME_MAGICNO-9 "20971521.0000000000"
*MEAS_COND_AXIS_NAME_MAGICNO-10 "20971521.0000000000"
*MEAS_COND_AXIS_NAME_MAGICNO-11 "0.0000000000"
*MEAS_COND_AXIS_NAME_MAGICNO-12 "0.0000000000"
*MEAS_COND_AXIS_OFFSET-0 "0.0000000000"
*MEAS_COND_AXIS_OFFSET-1 "-"
*MEAS_COND_AXIS_OFFSET-2 "-"
*MEAS_COND_AXIS_OFFSET-3 "-"
*MEAS_COND_AXIS_OFFSET-4 "-"
*MEAS_COND_AXIS_OFFSET-5 "-"
*MEAS_COND_AXIS_OFFSET-6 "-"
*MEAS_COND_AXIS_OFFSET-7 "-"
*MEAS_COND_AXIS_OFFSET-8 "-"
*MEAS_COND_AXIS_OFFSET-9 "-"
*MEAS_COND_AXIS_OFFSET-10 "-"
*MEAS_COND_AXIS_OFFSET-11 "-"
*MEAS_COND_AXIS_OFFSET-12 "-"
*MEAS_COND_AXIS_POSITION-0 "65.0000000000"
*MEAS_COND_AXIS_POSITION-1 "0.0000000000"
*MEAS_COND_AXIS_POSITION-2 "5.0000000000"
*MEAS_COND_AXIS_POSITION-3 "5.0deg"
*MEAS_COND_AXIS_POSITION-4 "10.0mm"
*MEAS_COND_AXIS_POSITION-5 "1.250deg"
*MEAS_COND_AXIS_POSITION-6 "1.250deg"
*MEAS_COND_AXIS_POSITION-7 "5.0deg"
*MEAS_COND_AXIS_POSITION-8 "0.3mm"
*MEAS_COND_AXIS_POSITION-9 "None"
*MEAS_COND_AXIS_POSITION-10 "Bent"
*MEAS_COND_AXIS_POSITION-11 "671.5000000000"
*MEAS_COND_AXIS_POSITION-12 "551.2500000000"
*MEAS_COND_AXIS_UNIT-0 "deg"
*MEAS_COND_AXIS_UNIT-1 ""
*MEAS_COND_AXIS_UNIT-2 ""
*MEAS_COND_AXIS_UNIT-3 ""
*MEAS_COND_AXIS_UNIT-4 ""
*MEAS_COND_AXIS_UNIT-5 ""
*MEAS_COND_AXIS_UNIT-6 ""
*MEAS_COND_AXIS_UNIT-7 ""
*MEAS_COND_AXIS_UNIT-8 ""
*MEAS_COND_AXIS_UNIT-9 ""
*MEAS_COND_AXIS_UNIT-10 ""
*MEAS_COND_AXIS_UNIT-11 "V"
*MEAS_COND_AXIS_UNIT-12 "mV"
*MEAS_COND_CORRECTION_SLIT_COUNTERMONO "None"
*MEAS_COND_CORRECTION_SLIT_DS "1.250deg"
*MEAS_COND_CORRECTION_SLIT_FILTER "None"
*MEAS_COND_CORRECTION_SLIT_IHS "10.0mm"
*MEAS_COND_CORRECTION_SLIT_RS "0.3mm"
*MEAS_COND_CORRECTION_SLIT_SOLLER_INC "5.0deg"
*MEAS_COND_CORRECTION_SLIT_SOLLER_REC "5.0deg"
*MEAS_COND_CORRECTION_SLIT_SS "1.250deg"
*MEAS_COND_COUNTER_CNTLOSS_CORR "0.0000000000"
*MEAS_COND_COUNTER_PHABASE "551.2500000000"
*MEAS_COND_COUNTER_PHAWINDOW "926.2500000000"
*MEAS_COND_COUNTER_PHA_UNIT "mV"
*MEAS_COND_COUNTER_TAUDIFF "0.2500000000"
*MEAS_COND_COUNTER_TAUINT "0.7500000000"
*MEAS_COND_IRRADIATION_MODE "OFF"
*MEAS_COND_IRRADIATION_WIDTH ""
*MEAS_COND_OPT_ATTR " "
*MEAS_COND_OPT_NAME ""
*MEAS_COND_UNSYMMETRIC_MODE "OFF"
*MEAS_COND_XG_CURRENT "15.0000000000"
*MEAS_COND_XG_VOLTAGE "40.0000000000"
*MEAS_COND_XG_WAVE_TYPE "Ka"
*MEAS_DATA_COUNT "3001.0000000000"
*MEAS_SCAN_AXIS_X "Theta/2-Theta"
*MEAS_SCAN_AXIS_X_INTERNAL "TwoThetaTheta"
*MEAS_SCAN_END_TIME "05/10/25 01:17:02"
*MEAS_SCAN_MODE "STEP"
*MEAS_SCAN_MONITOR "0"
*MEAS_SCAN_RESOLUTION_X "0.0025"
*MEAS_SCAN_SPEED "2.00"
*MEAS_SCAN_SPEED_UNIT "sec."
*MEAS_SCAN_SPEED_USER "2.00"
*MEAS_SCAN_START "5.0000000000"
*MEAS_SCAN_START_TIME "05/09/25 23:31:45"
*MEAS_SCAN_STEP "0.0200000000"
*MEAS_SCAN_STOP "65.0000000000"
*MEAS_SCAN_UNIT_X "deg"
*MEAS_SCAN_UNIT_Y "counts"
*SLIT_SYSTEM "0"
*RAS_HEADER_END
*RAS_INT_START
5.0000 1027.0000 1.0000
5.0200 949.0000 1.0000
5.0400 967.0000 1.0000
5.0600 930.0000 1.0000
5.0800 860.0000 1.0000
5.1000 915.0000 1.0000
5.1200 915.0000 1.0000
5.1400 923.0000 1.0000
5.1600 843.0000 1.0000
5.1800 890.0000 1.0000
5.2000 930.0000 1.0000
5.2200 909.0000 1.0000
5.2400 980.0000 1.0000
5.2600 884.0000 1.0000
5.2800 937.0000 1.0000
5.3000 874.0000 1.0000
5.3200 818.0000 1.0000
5.3400 853.0000 1.0000
5.3600 895.0000 1.0000
5.3800 840.0000 1.0000
5.4000 892.0000 1.0000
5.4200 872.0000 1.0000
5.4400 899.0000 1.0000
5.4600 903.0000 1.0000
5.4800 855.0000 1.0000
5.5000 801.0000 1.0000
5.5200 856.0000 1.0000
5.5400 856.0000 1.0000
5.5600 793.0000 1.0000
5.5800 797.0000 1.0000
5.6000 804.0000 1.0000
5.6200 824.0000 1.0000
5.6400 851.0000 1.0000
5.6600 831.0000 1.0000
5.6800 710.0000 1.0000
5.7000 767.0000 1.0000
5.7200 790.0000 1.0000
5.7400 745.0000 1.0000
5.7600 785.0000 1.0000
5.7800 876.0000 1.0000
5.8000 773.0000 1.0000
5.8200 757.0000 1.0000
5.8400 806.0000 1.0000
5.8600 784.0000 1.0000
5.8800 832.0000 1.0000
5.9000 798.0000 1.0000
5.9200 779.0000 1.0000
5.9400 783.0000 1.0000
5.9600 852.0000 1.0000
5.9800 878.0000 1.0000
6.0000 797.0000 1.0000
6.0200 745.0000 1.0000
6.0400 807.0000 1.0000
6.0600 789.0000 1.0000
6.0800 845.0000 1.0000
6.1000 882.0000 1.0000
6.1200 824.0000 1.0000
6.1400 779.0000 1.0000
6.1600 761.0000 1.0000
6.1800 774.0000 1.0000
6.2000 789.0000 1.0000
6.2200 772.0000 1.0000
6.2400 787.0000 1.0000
6.2600 788.0000 1.0000
6.2800 776.0000 1.0000
6.3000 741.0000 1.0000
6.3200 659.0000 1.0000
6.3400 672.0000 1.0000
6.3600 714.0000 1.0000
6.3800 662.0000 1.0000
6.4000 630.0000 1.0000
6.4200 736.0000 1.0000
6.4400 722.0000 1.0000
6.4600 656.0000 1.0000
6.4800 669.0000 1.0000
6.5000 649.0000 1.0000
6.5200 653.0000 1.0000
6.5400 694.0000 1.0000
6.5600 672.0000 1.0000
6.5800 627.0000 1.0000
6.6000 611.0000 1.0000
6.6200 621.0000 1.0000
6.6400 619.0000 1.0000
6.6600 606.0000 1.0000
6.6800 587.0000 1.0000
6.7000 571.0000 1.0000
6.7200 528.0000 1.0000
6.7400 568.0000 1.0000
6.7600 577.0000 1.0000
6.7800 554.0000 1.0000
6.8000 585.0000 1.0000
6.8200 603.0000 1.0000
6.8400 573.0000 1.0000
6.8600 602.0000 1.0000
6.8800 557.0000 1.0000
6.9000 552.0000 1.0000
6.9200 591.0000 1.0000
6.9400 606.0000 1.0000
6.9600 572.0000 1.0000
6.9800 586.0000 1.0000
7.0000 592.0000 1.0000
7.0200 540.0000 1.0000
7.0400 528.0000 1.0000
7.0600 524.0000 1.0000
7.0800 530.0000 1.0000
7.1000 521.0000 1.0000
7.1200 467.0000 1.0000
7.1400 463.0000 1.0000
7.1600 483.0000 1.0000
7.1800 494.0000 1.0000
7.2000 527.0000 1.0000
7.2200 528.0000 1.0000
7.2400 501.0000 1.0000
7.2600 507.0000 1.0000
7.2800 523.0000 1.0000
7.3000 489.0000 1.0000
7.3200 487.0000 1.0000
7.3400 491.0000 1.0000
7.3600 482.0000 1.0000
7.3800 483.0000 1.0000
7.4000 495.0000 1.0000
7.4200 514.0000 1.0000
7.4400 492.0000 1.0000
7.4600 466.0000 1.0000
7.4800 470.0000 1.0000
7.5000 461.0000 1.0000
7.5200 442.0000 1.0000
7.5400 429.0000 1.0000
7.5600 410.0000 1.0000
7.5800 449.0000 1.0000
7.6000 469.0000 1.0000
7.6200 483.0000 1.0000
7.6400 467.0000 1.0000
7.6600 439.0000 1.0000
7.6800 418.0000 1.0000
7.7000 412.0000 1.0000
7.7200 472.0000 1.0000
7.7400 461.0000 1.0000
7.7600 467.0000 1.0000
7.7800 487.0000 1.0000
7.8000 474.0000 1.0000
7.8200 468.0000 1.0000
7.8400 446.0000 1.0000
7.8600 437.0000 1.0000
7.8800 486.0000 1.0000
7.9000 440.0000 1.0000
7.9200 453.0000 1.0000
7.9400 454.0000 1.0000
7.9600 483.0000 1.0000
7.9800 475.0000 1.0000
8.0000 460.0000 1.0000
8.0200 468.0000 1.0000
8.0400 460.0000 1.0000
8.0600 440.0000 1.0000
8.0800 465.0000 1.0000
8.1000 505.0000 1.0000
8.1200 476.0000 1.0000
8.1400 420.0000 1.0000
8.1600 462.0000 1.0000
8.1800 482.0000 1.0000
8.2000 504.0000 1.0000
8.2200 530.0000 1.0000
8.2400 533.0000 1.0000
8.2600 480.0000 1.0000
8.2800 494.0000 1.0000
8.3000 527.0000 1.0000
8.3200 550.0000 1.0000
8.3400 591.0000 1.0000
8.3600 561.0000 1.0000
8.3800 540.0000 1.0000
8.4000 529.0000 1.0000
8.4200 519.0000 1.0000
8.4400 556.0000 1.0000
8.4600 554.0000 1.0000
8.4800 584.0000 1.0000
8.5000 596.0000 1.0000
8.5200 588.0000 1.0000
8.5400 656.0000 1.0000
8.5600 659.0000 1.0000
8.5800 675.0000 1.0000
8.6000 682.0000 1.0000
8.6200 629.0000 1.0000
8.6400 651.0000 1.0000
8.6600 736.0000 1.0000
8.6800 764.0000 1.0000
8.7000 737.0000 1.0000
8.7200 763.0000 1.0000
8.7400 761.0000 1.0000
8.7600 691.0000 1.0000
8.7800 634.0000 1.0000
8.8000 614.0000 1.0000
8.8200 568.0000 1.0000
8.8400 566.0000 1.0000
8.8600 483.0000 1.0000
8.8800 425.0000 1.0000
8.9000 409.0000 1.0000
8.9200 415.0000 1.0000
8.9400 393.0000 1.0000
8.9600 369.0000 1.0000
8.9800 389.0000 1.0000
9.0000 355.0000 1.0000
9.0200 381.0000 1.0000
9.0400 368.0000 1.0000
9.0600 375.0000 1.0000
9.0800 319.0000 1.0000
9.1000 327.0000 1.0000
9.1200 336.0000 1.0000
9.1400 311.0000 1.0000
9.1600 335.0000 1.0000
9.1800 320.0000 1.0000
9.2000 355.0000 1.0000
9.2200 338.0000 1.0000
9.2400 376.0000 1.0000
9.2600 400.0000 1.0000
9.2800 362.0000 1.0000
9.3000 326.0000 1.0000
9.3200 327.0000 1.0000
9.3400 302.0000 1.0000
9.3600 294.0000 1.0000
9.3800 315.0000 1.0000
9.4000 274.0000 1.0000
9.4200 278.0000 1.0000
9.4400 321.0000 1.0000
9.4600 267.0000 1.0000
9.4800 317.0000 1.0000
9.5000 266.0000 1.0000
9.5200 269.0000 1.0000
9.5400 245.0000 1.0000
9.5600 254.0000 1.0000
9.5800 281.0000 1.0000
9.6000 300.0000 1.0000
9.6200 258.0000 1.0000
9.6400 252.0000 1.0000
9.6600 242.0000 1.0000
9.6800 261.0000 1.0000
9.7000 241.0000 1.0000
9.7200 242.0000 1.0000
9.7400 223.0000 1.0000
9.7600 232.0000 1.0000
9.7800 235.0000 1.0000
9.8000 223.0000 1.0000
9.8200 230.0000 1.0000
9.8400 220.0000 1.0000
9.8600 233.0000 1.0000
9.8800 293.0000 1.0000
9.9000 232.0000 1.0000
9.9200 249.0000 1.0000
9.9400 246.0000 1.0000
9.9600 223.0000 1.0000
9.9800 245.0000 1.0000
10.0000 226.0000 1.0000
10.0200 235.0000 1.0000
10.0400 244.0000 1.0000
10.0600 236.0000 1.0000
10.0800 258.0000 1.0000
10.1000 281.0000 1.0000
10.1200 240.0000 1.0000
10.1400 240.0000 1.0000
10.1600 204.0000 1.0000
10.1800 196.0000 1.0000
10.2000 246.0000 1.0000
10.2200 276.0000 1.0000
10.2400 281.0000 1.0000
10.2600 240.0000 1.0000
10.2800 255.0000 1.0000
10.3000 261.0000 1.0000
10.3200 239.0000 1.0000
10.3400 257.0000 1.0000
10.3600 249.0000 1.0000
10.3800 249.0000 1.0000
10.4000 221.0000 1.0000
10.4200 221.0000 1.0000
10.4400 236.0000 1.0000
10.4600 257.0000 1.0000
10.4800 205.0000 1.0000
10.5000 208.0000 1.0000
10.5200 206.0000 1.0000
10.5400 225.0000 1.0000
10.5600 188.0000 1.0000
10.5800 216.0000 1.0000
10.6000 198.0000 1.0000
10.6200 229.0000 1.0000
10.6400 192.0000 1.0000
10.6600 182.0000 1.0000
10.6800 219.0000 1.0000
10.7000 204.0000 1.0000
10.7200 159.0000 1.0000
10.7400 226.0000 1.0000
10.7600 188.0000 1.0000
10.7800 186.0000 1.0000
10.8000 227.0000 1.0000
10.8200 169.0000 1.0000
10.8400 235.0000 1.0000
10.8600 193.0000 1.0000
10.8800 168.0000 1.0000
10.9000 221.0000 1.0000
10.9200 229.0000 1.0000
10.9400 174.0000 1.0000
10.9600 201.0000 1.0000
10.9800 189.0000 1.0000
11.0000 184.0000 1.0000
11.0200 197.0000 1.0000
11.0400 163.0000 1.0000
11.0600 194.0000 1.0000
11.0800 187.0000 1.0000
11.1000 172.0000 1.0000
11.1200 202.0000 1.0000
11.1400 195.0000 1.0000
11.1600 183.0000 1.0000
11.1800 177.0000 1.0000
11.2000 190.0000 1.0000
11.2200 178.0000 1.0000
11.2400 206.0000 1.0000
11.2600 204.0000 1.0000
11.2800 174.0000 1.0000
11.3000 200.0000 1.0000
11.3200 203.0000 1.0000
11.3400 173.0000 1.0000
11.3600 168.0000 1.0000
11.3800 168.0000 1.0000
11.4000 194.0000 1.0000
11.4200 162.0000 1.0000
11.4400 159.0000 1.0000
11.4600 181.0000 1.0000
11.4800 182.0000 1.0000
11.5000 207.0000 1.0000
11.5200 159.0000 1.0000
11.5400 170.0000 1.0000
11.5600 183.0000 1.0000
11.5800 187.0000 1.0000
11.6000 189.0000 1.0000
11.6200 179.0000 1.0000
11.6400 182.0000 1.0000
11.6600 197.0000 1.0000
11.6800 199.0000 1.0000
11.7000 176.0000 1.0000
11.7200 193.0000 1.0000
11.7400 194.0000 1.0000
11.7600 173.0000 1.0000
11.7800 206.0000 1.0000
11.8000 222.0000 1.0000
11.8200 176.0000 1.0000
11.8400 199.0000 1.0000
11.8600 189.0000 1.0000
11.8800 200.0000 1.0000
11.9000 173.0000 1.0000
11.9200 195.0000 1.0000
11.9400 213.0000 1.0000
11.9600 213.0000 1.0000
11.9800 250.0000 1.0000
12.0000 231.0000 1.0000
12.0200 246.0000 1.0000
12.0400 235.0000 1.0000
12.0600 262.0000 1.0000
12.0800 221.0000 1.0000
12.1000 241.0000 1.0000
12.1200 253.0000 1.0000
12.1400 268.0000 1.0000
12.1600 263.0000 1.0000
12.1800 250.0000 1.0000
12.2000 299.0000 1.0000
12.2200 332.0000 1.0000
12.2400 306.0000 1.0000
12.2600 355.0000 1.0000
12.2800 405.0000 1.0000
12.3000 458.0000 1.0000
12.3200 434.0000 1.0000
12.3400 450.0000 1.0000
12.3600 443.0000 1.0000
12.3800 459.0000 1.0000
12.4000 456.0000 1.0000
12.4200 446.0000 1.0000
12.4400 389.0000 1.0000
12.4600 372.0000 1.0000
12.4800 358.0000 1.0000
12.5000 293.0000 1.0000
12.5200 261.0000 1.0000
12.5400 254.0000 1.0000
12.5600 223.0000 1.0000
12.5800 220.0000 1.0000
12.6000 190.0000 1.0000
12.6200 208.0000 1.0000
12.6400 207.0000 1.0000
12.6600 192.0000 1.0000
12.6800 173.0000 1.0000
12.7000 186.0000 1.0000
12.7200 179.0000 1.0000
12.7400 169.0000 1.0000
12.7600 173.0000 1.0000
12.7800 155.0000 1.0000
12.8000 172.0000 1.0000
12.8200 158.0000 1.0000
12.8400 165.0000 1.0000
12.8600 172.0000 1.0000
12.8800 168.0000 1.0000
12.9000 181.0000 1.0000
12.9200 156.0000 1.0000
12.9400 159.0000 1.0000
12.9600 152.0000 1.0000
12.9800 156.0000 1.0000
13.0000 147.0000 1.0000
13.0200 145.0000 1.0000
13.0400 155.0000 1.0000
13.0600 169.0000 1.0000
13.0800 160.0000 1.0000
13.1000 147.0000 1.0000
13.1200 150.0000 1.0000
13.1400 147.0000 1.0000
13.1600 156.0000 1.0000
13.1800 168.0000 1.0000
13.2000 154.0000 1.0000
13.2200 170.0000 1.0000
13.2400 170.0000 1.0000
13.2600 145.0000 1.0000
13.2800 135.0000 1.0000
13.3000 170.0000 1.0000
13.3200 181.0000 1.0000
13.3400 188.0000 1.0000
13.3600 169.0000 1.0000
13.3800 166.0000 1.0000
13.4000 177.0000 1.0000
13.4200 181.0000 1.0000
13.4400 180.0000 1.0000
13.4600 204.0000 1.0000
13.4800 210.0000 1.0000
13.5000 226.0000 1.0000
13.5200 255.0000 1.0000
13.5400 250.0000 1.0000
13.5600 239.0000 1.0000
13.5800 231.0000 1.0000
13.6000 248.0000 1.0000
13.6200 250.0000 1.0000
13.6400 233.0000 1.0000
13.6600 229.0000 1.0000
13.6800 231.0000 1.0000
13.7000 240.0000 1.0000
13.7200 266.0000 1.0000
13.7400 260.0000 1.0000
13.7600 284.0000 1.0000
13.7800 304.0000 1.0000
13.8000 275.0000 1.0000
13.8200 255.0000 1.0000
13.8400 247.0000 1.0000
13.8600 215.0000 1.0000
13.8800 193.0000 1.0000
13.9000 180.0000 1.0000
13.9200 159.0000 1.0000
13.9400 150.0000 1.0000
13.9600 156.0000 1.0000
13.9800 146.0000 1.0000
14.0000 140.0000 1.0000
14.0200 133.0000 1.0000
14.0400 137.0000 1.0000
14.0600 132.0000 1.0000
14.0800 112.0000 1.0000
14.1000 110.0000 1.0000
14.1200 119.0000 1.0000
14.1400 119.0000 1.0000
14.1600 128.0000 1.0000
14.1800 125.0000 1.0000
14.2000 121.0000 1.0000
14.2200 132.0000 1.0000
14.2400 135.0000 1.0000
14.2600 127.0000 1.0000
14.2800 125.0000 1.0000
14.3000 126.0000 1.0000
14.3200 128.0000 1.0000
14.3400 133.0000 1.0000
14.3600 124.0000 1.0000
14.3800 120.0000 1.0000
14.4000 117.0000 1.0000
14.4200 105.0000 1.0000
14.4400 117.0000 1.0000
14.4600 123.0000 1.0000
14.4800 115.0000 1.0000
14.5000 123.0000 1.0000
14.5200 115.0000 1.0000
14.5400 118.0000 1.0000
14.5600 129.0000 1.0000
14.5800 123.0000 1.0000
14.6000 129.0000 1.0000
14.6200 125.0000 1.0000
14.6400 127.0000 1.0000
14.6600 117.0000 1.0000
14.6800 105.0000 1.0000
14.7000 117.0000 1.0000
14.7200 125.0000 1.0000
14.7400 132.0000 1.0000
14.7600 140.0000 1.0000
14.7800 138.0000 1.0000
14.8000 152.0000 1.0000
14.8200 157.0000 1.0000
14.8400 164.0000 1.0000
14.8600 163.0000 1.0000
14.8800 165.0000 1.0000
14.9000 172.0000 1.0000
14.9200 167.0000 1.0000
14.9400 158.0000 1.0000
14.9600 160.0000 1.0000
14.9800 162.0000 1.0000
15.0000 141.0000 1.0000
15.0200 128.0000 1.0000
15.0400 127.0000 1.0000
15.0600 132.0000 1.0000
15.0800 139.0000 1.0000
15.1000 128.0000 1.0000
15.1200 129.0000 1.0000
15.1400 135.0000 1.0000
15.1600 115.0000 1.0000
15.1800 113.0000 1.0000
15.2000 126.0000 1.0000
15.2200 121.0000 1.0000
15.2400 109.0000 1.0000
15.2600 108.0000 1.0000
15.2800 113.0000 1.0000
15.3000 105.0000 1.0000
15.3200 114.0000 1.0000
15.3400 121.0000 1.0000
15.3600 116.0000 1.0000
15.3800 114.0000 1.0000
15.4000 101.0000 1.0000
15.4200 109.0000 1.0000
15.4400 119.0000 1.0000
15.4600 104.0000 1.0000
15.4800 110.0000 1.0000
15.5000 126.0000 1.0000
15.5200 117.0000 1.0000
15.5400 122.0000 1.0000
15.5600 137.0000 1.0000
15.5800 138.0000 1.0000
15.6000 127.0000 1.0000
15.6200 126.0000 1.0000
15.6400 133.0000 1.0000
15.6600 132.0000 1.0000
15.6800 140.0000 1.0000
15.7000 142.0000 1.0000
15.7200 125.0000 1.0000
15.7400 123.0000 1.0000
15.7600 131.0000 1.0000
15.7800 122.0000 1.0000
15.8000 119.0000 1.0000
15.8200 124.0000 1.0000
15.8400 111.0000 1.0000
15.8600 102.0000 1.0000
15.8800 104.0000 1.0000
15.9000 107.0000 1.0000
15.9200 104.0000 1.0000
15.9400 102.0000 1.0000
15.9600 95.0000 1.0000
15.9800 90.0000 1.0000
16.0000 104.0000 1.0000
16.0200 98.0000 1.0000
16.0400 109.0000 1.0000
16.0600 133.0000 1.0000
16.0800 125.0000 1.0000
16.1000 104.0000 1.0000
16.1200 113.0000 1.0000
16.1400 108.0000 1.0000
16.1600 109.0000 1.0000
16.1800 102.0000 1.0000
16.2000 101.0000 1.0000
16.2200 118.0000 1.0000
16.2400 115.0000 1.0000
16.2600 120.0000 1.0000
16.2800 116.0000 1.0000
16.3000 111.0000 1.0000
16.3200 126.0000 1.0000
16.3400 123.0000 1.0000
16.3600 100.0000 1.0000
16.3800 109.0000 1.0000
16.4000 103.0000 1.0000
16.4200 100.0000 1.0000
16.4400 107.0000 1.0000
16.4600 99.0000 1.0000
16.4800 102.0000 1.0000
16.5000 114.0000 1.0000
16.5200 122.0000 1.0000
16.5400 110.0000 1.0000
16.5600 96.0000 1.0000
16.5800 107.0000 1.0000
16.6000 111.0000 1.0000
16.6200 110.0000 1.0000
16.6400 106.0000 1.0000
16.6600 105.0000 1.0000
16.6800 116.0000 1.0000
16.7000 123.0000 1.0000
16.7200 121.0000 1.0000
16.7400 128.0000 1.0000
16.7600 124.0000 1.0000
16.7800 119.0000 1.0000
16.8000 128.0000 1.0000
16.8200 107.0000 1.0000
16.8400 98.0000 1.0000
16.8600 100.0000 1.0000
16.8800 105.0000 1.0000
16.9000 110.0000 1.0000
16.9200 111.0000 1.0000
16.9400 117.0000 1.0000
16.9600 118.0000 1.0000
16.9800 111.0000 1.0000
17.0000 105.0000 1.0000
17.0200 113.0000 1.0000
17.0400 118.0000 1.0000
17.0600 116.0000 1.0000
17.0800 118.0000 1.0000
17.1000 114.0000 1.0000
17.1200 116.0000 1.0000
17.1400 122.0000 1.0000
17.1600 114.0000 1.0000
17.1800 107.0000 1.0000
17.2000 111.0000 1.0000
17.2200 120.0000 1.0000
17.2400 127.0000 1.0000
17.2600 122.0000 1.0000
17.2800 117.0000 1.0000
17.3000 126.0000 1.0000
17.3200 120.0000 1.0000
17.3400 126.0000 1.0000
17.3600 121.0000 1.0000
17.3800 133.0000 1.0000
17.4000 130.0000 1.0000
17.4200 131.0000 1.0000
17.4400 140.0000 1.0000
17.4600 143.0000 1.0000
17.4800 150.0000 1.0000
17.5000 159.0000 1.0000
17.5200 158.0000 1.0000
17.5400 151.0000 1.0000
17.5600 160.0000 1.0000
17.5800 161.0000 1.0000
17.6000 154.0000 1.0000
17.6200 171.0000 1.0000
17.6400 163.0000 1.0000
17.6600 163.0000 1.0000
17.6800 161.0000 1.0000
17.7000 160.0000 1.0000
17.7200 165.0000 1.0000
17.7400 149.0000 1.0000
17.7600 145.0000 1.0000
17.7800 145.0000 1.0000
17.8000 128.0000 1.0000
17.8200 120.0000 1.0000
17.8400 131.0000 1.0000
17.8600 131.0000 1.0000
17.8800 133.0000 1.0000
17.9000 130.0000 1.0000
17.9200 123.0000 1.0000
17.9400 129.0000 1.0000
17.9600 134.0000 1.0000
17.9800 126.0000 1.0000
18.0000 127.0000 1.0000
18.0200 126.0000 1.0000
18.0400 133.0000 1.0000
18.0600 115.0000 1.0000
18.0800 129.0000 1.0000
18.1000 113.0000 1.0000
18.1200 104.0000 1.0000
18.1400 110.0000 1.0000
18.1600 112.0000 1.0000
18.1800 124.0000 1.0000
18.2000 128.0000 1.0000
18.2200 121.0000 1.0000
18.2400 131.0000 1.0000
18.2600 132.0000 1.0000
18.2800 109.0000 1.0000
18.3000 114.0000 1.0000
18.3200 133.0000 1.0000
18.3400 130.0000 1.0000
18.3600 137.0000 1.0000
18.3800 119.0000 1.0000
18.4000 133.0000 1.0000
18.4200 139.0000 1.0000
18.4400 133.0000 1.0000
18.4600 130.0000 1.0000
18.4800 133.0000 1.0000
18.5000 138.0000 1.0000
18.5200 145.0000 1.0000
18.5400 148.0000 1.0000
18.5600 149.0000 1.0000
18.5800 137.0000 1.0000
18.6000 145.0000 1.0000
18.6200 172.0000 1.0000
18.6400 163.0000 1.0000
18.6600 158.0000 1.0000
18.6800 179.0000 1.0000
18.7000 165.0000 1.0000
18.7200 174.0000 1.0000
18.7400 180.0000 1.0000
18.7600 192.0000 1.0000
18.7800 184.0000 1.0000
18.8000 176.0000 1.0000
18.8200 153.0000 1.0000
18.8400 199.0000 1.0000
18.8600 177.0000 1.0000
18.8800 164.0000 1.0000
18.9000 149.0000 1.0000
18.9200 185.0000 1.0000
18.9400 161.0000 1.0000
18.9600 149.0000 1.0000
18.9800 142.0000 1.0000
19.0000 153.0000 1.0000
19.0200 158.0000 1.0000
19.0400 156.0000 1.0000
19.0600 164.0000 1.0000
19.0800 170.0000 1.0000
19.1000 176.0000 1.0000
19.1200 172.0000 1.0000
19.1400 169.0000 1.0000
19.1600 178.0000 1.0000
19.1800 164.0000 1.0000
19.2000 166.0000 1.0000
19.2200 186.0000 1.0000
19.2400 188.0000 1.0000
19.2600 177.0000 1.0000
19.2800 174.0000 1.0000
19.3000 192.0000 1.0000
19.3200 187.0000 1.0000
19.3400 173.0000 1.0000
19.3600 168.0000 1.0000
19.3800 172.0000 1.0000
19.4000 164.0000 1.0000
19.4200 177.0000 1.0000
19.4400 187.0000 1.0000
19.4600 176.0000 1.0000
19.4800 195.0000 1.0000
19.5000 190.0000 1.0000
19.5200 208.0000 1.0000
19.5400 219.0000 1.0000
19.5600 235.0000 1.0000
19.5800 254.0000 1.0000
19.6000 266.0000 1.0000
19.6200 284.0000 1.0000
19.6400 324.0000 1.0000
19.6600 319.0000 1.0000
19.6800 277.0000 1.0000
19.7000 309.0000 1.0000
19.7200 314.0000 1.0000
19.7400 289.0000 1.0000
19.7600 336.0000 1.0000
19.7800 310.0000 1.0000
19.8000 289.0000 1.0000
19.8200 290.0000 1.0000
19.8400 293.0000 1.0000
19.8600 270.0000 1.0000
19.8800 234.0000 1.0000
19.9000 251.0000 1.0000
19.9200 228.0000 1.0000
19.9400 237.0000 1.0000
19.9600 235.0000 1.0000
19.9800 227.0000 1.0000
20.0000 204.0000 1.0000
20.0200 219.0000 1.0000
20.0400 222.0000 1.0000
20.0600 218.0000 1.0000
20.0800 216.0000 1.0000
20.1000 211.0000 1.0000
20.1200 183.0000 1.0000
20.1400 179.0000 1.0000
20.1600 183.0000 1.0000
20.1800 199.0000 1.0000
20.2000 197.0000 1.0000
20.2200 182.0000 1.0000
20.2400 234.0000 1.0000
20.2600 208.0000 1.0000
20.2800 222.0000 1.0000
20.3000 193.0000 1.0000
20.3200 220.0000 1.0000
20.3400 215.0000 1.0000
20.3600 224.0000 1.0000
20.3800 217.0000 1.0000
20.4000 231.0000 1.0000
20.4200 263.0000 1.0000
20.4400 245.0000 1.0000
20.4600 279.0000 1.0000
20.4800 277.0000 1.0000
20.5000 300.0000 1.0000
20.5200 305.0000 1.0000
20.5400 357.0000 1.0000
20.5600 378.0000 1.0000
20.5800 401.0000 1.0000
20.6000 465.0000 1.0000
20.6200 520.0000 1.0000
20.6400 628.0000 1.0000
20.6600 721.0000 1.0000
20.6800 945.0000 1.0000
20.7000 1093.0000 1.0000
20.7200 1305.0000 1.0000
20.7400 1547.0000 1.0000
20.7600 1698.0000 1.0000
20.7800 1851.0000 1.0000
20.8000 1827.0000 1.0000
20.8200 1696.0000 1.0000
20.8400 1426.0000 1.0000
20.8600 1164.0000 1.0000
20.8800 893.0000 1.0000
20.9000 686.0000 1.0000
20.9200 548.0000 1.0000
20.9400 426.0000 1.0000
20.9600 407.0000 1.0000
20.9800 375.0000 1.0000
21.0000 332.0000 1.0000
21.0200 294.0000 1.0000
21.0400 271.0000 1.0000
21.0600 257.0000 1.0000
21.0800 251.0000 1.0000
21.1000 217.0000 1.0000
21.1200 218.0000 1.0000
21.1400 215.0000 1.0000
21.1600 219.0000 1.0000
21.1800 205.0000 1.0000
21.2000 204.0000 1.0000
21.2200 189.0000 1.0000
21.2400 183.0000 1.0000
21.2600 201.0000 1.0000
21.2800 202.0000 1.0000
21.3000 184.0000 1.0000
21.3200 188.0000 1.0000
21.3400 173.0000 1.0000
21.3600 176.0000 1.0000
21.3800 179.0000 1.0000
21.4000 184.0000 1.0000
21.4200 149.0000 1.0000
21.4400 183.0000 1.0000
21.4600 180.0000 1.0000
21.4800 178.0000 1.0000
21.5000 185.0000 1.0000
21.5200 155.0000 1.0000
21.5400 191.0000 1.0000
21.5600 193.0000 1.0000
21.5800 198.0000 1.0000
21.6000 171.0000 1.0000
21.6200 187.0000 1.0000
21.6400 207.0000 1.0000
21.6600 232.0000 1.0000
21.6800 251.0000 1.0000
21.7000 271.0000 1.0000
21.7200 268.0000 1.0000
21.7400 273.0000 1.0000
21.7600 272.0000 1.0000
21.7800 339.0000 1.0000
21.8000 380.0000 1.0000
21.8200 469.0000 1.0000
21.8400 507.0000 1.0000
21.8600 598.0000 1.0000
21.8800 621.0000 1.0000
21.9000 636.0000 1.0000
21.9200 627.0000 1.0000
21.9400 664.0000 1.0000
21.9600 648.0000 1.0000
21.9800 612.0000 1.0000
22.0000 544.0000 1.0000
22.0200 445.0000 1.0000
22.0400 364.0000 1.0000
22.0600 315.0000 1.0000
22.0800 273.0000 1.0000
22.1000 242.0000 1.0000
22.1200 194.0000 1.0000
22.1400 232.0000 1.0000
22.1600 197.0000 1.0000
22.1800 181.0000 1.0000
22.2000 204.0000 1.0000
22.2200 186.0000 1.0000
22.2400 194.0000 1.0000
22.2600 182.0000 1.0000
22.2800 200.0000 1.0000
22.3000 188.0000 1.0000
22.3200 163.0000 1.0000
22.3400 179.0000 1.0000
22.3600 208.0000 1.0000
22.3800 202.0000 1.0000
22.4000 181.0000 1.0000
22.4200 175.0000 1.0000
22.4400 182.0000 1.0000
22.4600 200.0000 1.0000
22.4800 194.0000 1.0000
22.5000 199.0000 1.0000
22.5200 209.0000 1.0000
22.5400 182.0000 1.0000
22.5600 180.0000 1.0000
22.5800 184.0000 1.0000
22.6000 179.0000 1.0000
22.6200 192.0000 1.0000
22.6400 202.0000 1.0000
22.6600 204.0000 1.0000
22.6800 223.0000 1.0000
22.7000 232.0000 1.0000
22.7200 216.0000 1.0000
22.7400 238.0000 1.0000
22.7600 234.0000 1.0000
22.7800 238.0000 1.0000
22.8000 227.0000 1.0000
22.8200 216.0000 1.0000
22.8400 206.0000 1.0000
22.8600 233.0000 1.0000
22.8800 245.0000 1.0000
22.9000 249.0000 1.0000
22.9200 266.0000 1.0000
22.9400 241.0000 1.0000
22.9600 254.0000 1.0000
22.9800 248.0000 1.0000
23.0000 250.0000 1.0000
23.0200 249.0000 1.0000
23.0400 234.0000 1.0000
23.0600 222.0000 1.0000
23.0800 212.0000 1.0000
23.1000 203.0000 1.0000
23.1200 211.0000 1.0000
23.1400 216.0000 1.0000
23.1600 236.0000 1.0000
23.1800 217.0000 1.0000
23.2000 221.0000 1.0000
23.2200 266.0000 1.0000
23.2400 258.0000 1.0000
23.2600 254.0000 1.0000
23.2800 257.0000 1.0000
23.3000 266.0000 1.0000
23.3200 296.0000 1.0000
23.3400 337.0000 1.0000
23.3600 313.0000 1.0000
23.3800 366.0000 1.0000
23.4000 406.0000 1.0000
23.4200 428.0000 1.0000
23.4400 481.0000 1.0000
23.4600 572.0000 1.0000
23.4800 598.0000 1.0000
23.5000 641.0000 1.0000
23.5200 619.0000 1.0000
23.5400 619.0000 1.0000
23.5600 568.0000 1.0000
23.5800 544.0000 1.0000
23.6000 524.0000 1.0000
23.6200 484.0000 1.0000
23.6400 462.0000 1.0000
23.6600 392.0000 1.0000
23.6800 360.0000 1.0000
23.7000 339.0000 1.0000
23.7200 331.0000 1.0000
23.7400 330.0000 1.0000
23.7600 322.0000 1.0000
23.7800 283.0000 1.0000
23.8000 288.0000 1.0000
23.8200 273.0000 1.0000
23.8400 268.0000 1.0000
23.8600 254.0000 1.0000
23.8800 261.0000 1.0000
23.9000 277.0000 1.0000
23.9200 316.0000 1.0000
23.9400 334.0000 1.0000
23.9600 284.0000 1.0000
23.9800 313.0000 1.0000
24.0000 332.0000 1.0000
24.0200 353.0000 1.0000
24.0400 389.0000 1.0000
24.0600 417.0000 1.0000
24.0800 413.0000 1.0000
24.1000 434.0000 1.0000
24.1200 486.0000 1.0000
24.1400 511.0000 1.0000
24.1600 490.0000 1.0000
24.1800 485.0000 1.0000
24.2000 480.0000 1.0000
24.2200 490.0000 1.0000
24.2400 478.0000 1.0000
24.2600 495.0000 1.0000
24.2800 462.0000 1.0000
24.3000 400.0000 1.0000
24.3200 395.0000 1.0000
24.3400 382.0000 1.0000
24.3600 364.0000 1.0000
24.3800 330.0000 1.0000
24.4000 340.0000 1.0000
24.4200 370.0000 1.0000
24.4400 336.0000 1.0000
24.4600 298.0000 1.0000
24.4800 304.0000 1.0000
24.5000 294.0000 1.0000
24.5200 268.0000 1.0000
24.5400 237.0000 1.0000
24.5600 251.0000 1.0000
24.5800 236.0000 1.0000
24.6000 215.0000 1.0000
24.6200 216.0000 1.0000
24.6400 203.0000 1.0000
24.6600 211.0000 1.0000
24.6800 201.0000 1.0000
24.7000 204.0000 1.0000
24.7200 207.0000 1.0000
24.7400 200.0000 1.0000
24.7600 201.0000 1.0000
24.7800 206.0000 1.0000
24.8000 202.0000 1.0000
24.8200 206.0000 1.0000
24.8400 210.0000 1.0000
24.8600 216.0000 1.0000
24.8800 233.0000 1.0000
24.9000 243.0000 1.0000
24.9200 253.0000 1.0000
24.9400 244.0000 1.0000
24.9600 252.0000 1.0000
24.9800 244.0000 1.0000
25.0000 264.0000 1.0000
25.0200 297.0000 1.0000
25.0400 324.0000 1.0000
25.0600 308.0000 1.0000
25.0800 318.0000 1.0000
25.1000 352.0000 1.0000
25.1200 318.0000 1.0000
25.1400 308.0000 1.0000
25.1600 314.0000 1.0000
25.1800 324.0000 1.0000
25.2000 347.0000 1.0000
25.2200 369.0000 1.0000
25.2400 365.0000 1.0000
25.2600 373.0000 1.0000
25.2800 412.0000 1.0000
25.3000 449.0000 1.0000
25.3200 480.0000 1.0000
25.3400 536.0000 1.0000
25.3600 589.0000 1.0000
25.3800 680.0000 1.0000
25.4000 770.0000 1.0000
25.4200 922.0000 1.0000
25.4400 1048.0000 1.0000
25.4600 1169.0000 1.0000
25.4800 1290.0000 1.0000
25.5000 1382.0000 1.0000
25.5200 1418.0000 1.0000
25.5400 1298.0000 1.0000
25.5600 1158.0000 1.0000
25.5800 1002.0000 1.0000
25.6000 845.0000 1.0000
25.6200 717.0000 1.0000
25.6400 603.0000 1.0000
25.6600 498.0000 1.0000
25.6800 438.0000 1.0000
25.7000 390.0000 1.0000
25.7200 356.0000 1.0000
25.7400 334.0000 1.0000
25.7600 317.0000 1.0000
25.7800 299.0000 1.0000
25.8000 271.0000 1.0000
25.8200 269.0000 1.0000
25.8400 282.0000 1.0000
25.8600 268.0000 1.0000
25.8800 270.0000 1.0000
25.9000 294.0000 1.0000
25.9200 291.0000 1.0000
25.9400 280.0000 1.0000
25.9600 282.0000 1.0000
25.9800 270.0000 1.0000
26.0000 273.0000 1.0000
26.0200 285.0000 1.0000
26.0400 313.0000 1.0000
26.0600 317.0000 1.0000
26.0800 341.0000 1.0000
26.1000 367.0000 1.0000
26.1200 375.0000 1.0000
26.1400 412.0000 1.0000
26.1600 450.0000 1.0000
26.1800 495.0000 1.0000
26.2000 544.0000 1.0000
26.2200 586.0000 1.0000
26.2400 650.0000 1.0000
26.2600 744.0000 1.0000
26.2800 827.0000 1.0000
26.3000 951.0000 1.0000
26.3200 1067.0000 1.0000
26.3400 1245.0000 1.0000
26.3600 1451.0000 1.0000
26.3800 1707.0000 1.0000
26.4000 2015.0000 1.0000
26.4200 2448.0000 1.0000
26.4400 3137.0000 1.0000
26.4600 3974.0000 1.0000
26.4800 4936.0000 1.0000
26.5000 6140.0000 1.0000
26.5200 7301.0000 1.0000
26.5400 8129.0000 1.0000
26.5600 8730.0000 1.0000
26.5800 8689.0000 1.0000
26.6000 8018.0000 1.0000
26.6200 6888.0000 1.0000
26.6400 5442.0000 1.0000
26.6600 4108.0000 1.0000
26.6800 3018.0000 1.0000
26.7000 2127.0000 1.0000
26.7200 1518.0000 1.0000
26.7400 1183.0000 1.0000
26.7600 995.0000 1.0000
26.7800 859.0000 1.0000
26.8000 786.0000 1.0000
26.8200 799.0000 1.0000
26.8400 762.0000 1.0000
26.8600 688.0000 1.0000
26.8800 666.0000 1.0000
26.9000 669.0000 1.0000
26.9200 644.0000 1.0000
26.9400 609.0000 1.0000
26.9600 595.0000 1.0000
26.9800 584.0000 1.0000
27.0000 587.0000 1.0000
27.0200 561.0000 1.0000
27.0400 548.0000 1.0000
27.0600 533.0000 1.0000
27.0800 502.0000 1.0000
27.1000 482.0000 1.0000
27.1200 471.0000 1.0000
27.1400 452.0000 1.0000
27.1600 435.0000 1.0000
27.1800 434.0000 1.0000
27.2000 453.0000 1.0000
27.2200 467.0000 1.0000
27.2400 479.0000 1.0000
27.2600 490.0000 1.0000
27.2800 487.0000 1.0000
27.3000 546.0000 1.0000
27.3200 633.0000 1.0000
27.3400 661.0000 1.0000
27.3600 675.0000 1.0000
27.3800 737.0000 1.0000
27.4000 774.0000 1.0000
27.4200 785.0000 1.0000
27.4400 860.0000 1.0000
27.4600 891.0000 1.0000
27.4800 889.0000 1.0000
27.5000 940.0000 1.0000
27.5200 953.0000 1.0000
27.5400 941.0000 1.0000
27.5600 925.0000 1.0000
27.5800 942.0000 1.0000
27.6000 1047.0000 1.0000
27.6200 1113.0000 1.0000
27.6400 1183.0000 1.0000
27.6600 1234.0000 1.0000
27.6800 1277.0000 1.0000
27.7000 1396.0000 1.0000
27.7200 1437.0000 1.0000
27.7400 1437.0000 1.0000
27.7600 1479.0000 1.0000
27.7800 1531.0000 1.0000
27.8000 1558.0000 1.0000
27.8200 1613.0000 1.0000
27.8400 1681.0000 1.0000
27.8600 1673.0000 1.0000
27.8800 1704.0000 1.0000
27.9000 1736.0000 1.0000
27.9200 1624.0000 1.0000
27.9400 1497.0000 1.0000
27.9600 1404.0000 1.0000
27.9800 1280.0000 1.0000
28.0000 1133.0000 1.0000
28.0200 1006.0000 1.0000
28.0400 901.0000 1.0000
28.0600 825.0000 1.0000
28.0800 724.0000 1.0000
28.1000 635.0000 1.0000
28.1200 596.0000 1.0000
28.1400 573.0000 1.0000
28.1600 520.0000 1.0000
28.1800 481.0000 1.0000
28.2000 483.0000 1.0000
28.2200 479.0000 1.0000
28.2400 444.0000 1.0000
28.2600 404.0000 1.0000
28.2800 384.0000 1.0000
28.3000 378.0000 1.0000
28.3200 363.0000 1.0000
28.3400 369.0000 1.0000
28.3600 368.0000 1.0000
28.3800 344.0000 1.0000
28.4000 305.0000 1.0000
28.4200 295.0000 1.0000
28.4400 290.0000 1.0000
28.4600 281.0000 1.0000
28.4800 254.0000 1.0000
28.5000 236.0000 1.0000
28.5200 244.0000 1.0000
28.5400 211.0000 1.0000
28.5600 183.0000 1.0000
28.5800 179.0000 1.0000
28.6000 181.0000 1.0000
28.6200 176.0000 1.0000
28.6400 181.0000 1.0000
28.6600 191.0000 1.0000
28.6800 171.0000 1.0000
28.7000 161.0000 1.0000
28.7200 187.0000 1.0000
28.7400 195.0000 1.0000
28.7600 189.0000 1.0000
28.7800 177.0000 1.0000
28.8000 187.0000 1.0000
28.8200 188.0000 1.0000
28.8400 176.0000 1.0000
28.8600 185.0000 1.0000
28.8800 192.0000 1.0000
28.9000 202.0000 1.0000
28.9200 213.0000 1.0000
28.9400 200.0000 1.0000
28.9600 198.0000 1.0000
28.9800 194.0000 1.0000
29.0000 174.0000 1.0000
29.0200 178.0000 1.0000
29.0400 213.0000 1.0000
29.0600 218.0000 1.0000
29.0800 214.0000 1.0000
29.1000 212.0000 1.0000
29.1200 213.0000 1.0000
29.1400 210.0000 1.0000
29.1600 191.0000 1.0000
29.1800 194.0000 1.0000
29.2000 202.0000 1.0000
29.2200 200.0000 1.0000
29.2400 208.0000 1.0000
29.2600 241.0000 1.0000
29.2800 253.0000 1.0000
29.3000 257.0000 1.0000
29.3200 265.0000 1.0000
29.3400 283.0000 1.0000
29.3600 303.0000 1.0000
29.3800 325.0000 1.0000
29.4000 338.0000 1.0000
29.4200 349.0000 1.0000
29.4400 349.0000 1.0000
29.4600 366.0000 1.0000
29.4800 385.0000 1.0000
29.5000 387.0000 1.0000
29.5200 421.0000 1.0000
29.5400 443.0000 1.0000
29.5600 487.0000 1.0000
29.5800 491.0000 1.0000
29.6000 483.0000 1.0000
29.6200 507.0000 1.0000
29.6400 561.0000 1.0000
29.6600 579.0000 1.0000
29.6800 644.0000 1.0000
29.7000 665.0000 1.0000
29.7200 674.0000 1.0000
29.7400 674.0000 1.0000
29.7600 660.0000 1.0000
29.7800 654.0000 1.0000
29.8000 619.0000 1.0000
29.8200 580.0000 1.0000
29.8400 538.0000 1.0000
29.8600 492.0000 1.0000
29.8800 471.0000 1.0000
29.9000 463.0000 1.0000
29.9200 437.0000 1.0000
29.9400 414.0000 1.0000
29.9600 426.0000 1.0000
29.9800 433.0000 1.0000
30.0000 446.0000 1.0000
30.0200 479.0000 1.0000
30.0400 454.0000 1.0000
30.0600 464.0000 1.0000
30.0800 492.0000 1.0000
30.1000 510.0000 1.0000
30.1200 533.0000 1.0000
30.1400 554.0000 1.0000
30.1600 572.0000 1.0000
30.1800 558.0000 1.0000
30.2000 586.0000 1.0000
30.2200 584.0000 1.0000
30.2400 547.0000 1.0000
30.2600 548.0000 1.0000
30.2800 510.0000 1.0000
30.3000 492.0000 1.0000
30.3200 531.0000 1.0000
30.3400 508.0000 1.0000
30.3600 491.0000 1.0000
30.3800 488.0000 1.0000
30.4000 512.0000 1.0000
30.4200 497.0000 1.0000
30.4400 486.0000 1.0000
30.4600 447.0000 1.0000
30.4800 423.0000 1.0000
30.5000 401.0000 1.0000
30.5200 354.0000 1.0000
30.5400 365.0000 1.0000
30.5600 359.0000 1.0000
30.5800 359.0000 1.0000
30.6000 373.0000 1.0000
30.6200 385.0000 1.0000
30.6400 391.0000 1.0000
30.6600 421.0000 1.0000
30.6800 429.0000 1.0000
30.7000 436.0000 1.0000
30.7200 468.0000 1.0000
30.7400 475.0000 1.0000
30.7600 447.0000 1.0000
30.7800 441.0000 1.0000
30.8000 446.0000 1.0000
30.8200 433.0000 1.0000
30.8400 417.0000 1.0000
30.8600 393.0000 1.0000
30.8800 355.0000 1.0000
30.9000 336.0000 1.0000
30.9200 310.0000 1.0000
30.9400 297.0000 1.0000
30.9600 276.0000 1.0000
30.9800 258.0000 1.0000
31.0000 233.0000 1.0000
31.0200 232.0000 1.0000
31.0400 237.0000 1.0000
31.0600 216.0000 1.0000
31.0800 210.0000 1.0000
31.1000 227.0000 1.0000
31.1200 215.0000 1.0000
31.1400 235.0000 1.0000
31.1600 225.0000 1.0000
31.1800 211.0000 1.0000
31.2000 222.0000 1.0000
31.2200 226.0000 1.0000
31.2400 232.0000 1.0000
31.2600 208.0000 1.0000
31.2800 222.0000 1.0000
31.3000 239.0000 1.0000
31.3200 238.0000 1.0000
31.3400 244.0000 1.0000
31.3600 244.0000 1.0000
31.3800 254.0000 1.0000
31.4000 226.0000 1.0000
31.4200 249.0000 1.0000
31.4400 231.0000 1.0000
31.4600 230.0000 1.0000
31.4800 230.0000 1.0000
31.5000 226.0000 1.0000
31.5200 234.0000 1.0000
31.5400 230.0000 1.0000
31.5600 202.0000 1.0000
31.5800 176.0000 1.0000
31.6000 202.0000 1.0000
31.6200 187.0000 1.0000
31.6400 169.0000 1.0000
31.6600 180.0000 1.0000
31.6800 181.0000 1.0000
31.7000 195.0000 1.0000
31.7200 183.0000 1.0000
31.7400 187.0000 1.0000
31.7600 176.0000 1.0000
31.7800 168.0000 1.0000
31.8000 158.0000 1.0000
31.8200 162.0000 1.0000
31.8400 145.0000 1.0000
31.8600 165.0000 1.0000
31.8800 158.0000 1.0000
31.9000 151.0000 1.0000
31.9200 146.0000 1.0000
31.9400 158.0000 1.0000
31.9600 163.0000 1.0000
31.9800 141.0000 1.0000
32.0000 149.0000 1.0000
32.0200 155.0000 1.0000
32.0400 135.0000 1.0000
32.0600 154.0000 1.0000
32.0800 140.0000 1.0000
32.1000 146.0000 1.0000
32.1200 153.0000 1.0000
32.1400 164.0000 1.0000
32.1600 168.0000 1.0000
32.1800 134.0000 1.0000
32.2000 159.0000 1.0000
32.2200 151.0000 1.0000
32.2400 149.0000 1.0000
32.2600 186.0000 1.0000
32.2800 168.0000 1.0000
32.3000 177.0000 1.0000
32.3200 190.0000 1.0000
32.3400 180.0000 1.0000
32.3600 150.0000 1.0000
32.3800 167.0000 1.0000
32.4000 180.0000 1.0000
32.4200 160.0000 1.0000
32.4400 162.0000 1.0000
32.4600 158.0000 1.0000
32.4800 167.0000 1.0000
32.5000 159.0000 1.0000
32.5200 175.0000 1.0000
32.5400 159.0000 1.0000
32.5600 153.0000 1.0000
32.5800 160.0000 1.0000
32.6000 144.0000 1.0000
32.6200 119.0000 1.0000
32.6400 143.0000 1.0000
32.6600 140.0000 1.0000
32.6800 129.0000 1.0000
32.7000 138.0000 1.0000
32.7200 138.0000 1.0000
32.7400 140.0000 1.0000
32.7600 133.0000 1.0000
32.7800 136.0000 1.0000
32.8000 142.0000 1.0000
32.8200 134.0000 1.0000
32.8400 152.0000 1.0000
32.8600 122.0000 1.0000
32.8800 155.0000 1.0000
32.9000 160.0000 1.0000
32.9200 132.0000 1.0000
32.9400 127.0000 1.0000
32.9600 131.0000 1.0000
32.9800 129.0000 1.0000
33.0000 139.0000 1.0000
33.0200 126.0000 1.0000
33.0400 128.0000 1.0000
33.0600 124.0000 1.0000
33.0800 111.0000 1.0000
33.1000 129.0000 1.0000
33.1200 141.0000 1.0000
33.1400 147.0000 1.0000
33.1600 119.0000 1.0000
33.1800 141.0000 1.0000
33.2000 123.0000 1.0000
33.2200 134.0000 1.0000
33.2400 148.0000 1.0000
33.2600 128.0000 1.0000
33.2800 142.0000 1.0000
33.3000 135.0000 1.0000
33.3200 127.0000 1.0000
33.3400 129.0000 1.0000
33.3600 151.0000 1.0000
33.3800 136.0000 1.0000
33.4000 134.0000 1.0000
33.4200 137.0000 1.0000
33.4400 164.0000 1.0000
33.4600 155.0000 1.0000
33.4800 160.0000 1.0000
33.5000 153.0000 1.0000
33.5200 176.0000 1.0000
33.5400 161.0000 1.0000
33.5600 176.0000 1.0000
33.5800 183.0000 1.0000
33.6000 176.0000 1.0000
33.6200 189.0000 1.0000
33.6400 185.0000 1.0000
33.6600 211.0000 1.0000
33.6800 201.0000 1.0000
33.7000 221.0000 1.0000
33.7200 242.0000 1.0000
33.7400 190.0000 1.0000
33.7600 223.0000 1.0000
33.7800 214.0000 1.0000
33.8000 200.0000 1.0000
33.8200 184.0000 1.0000
33.8400 210.0000 1.0000
33.8600 207.0000 1.0000
33.8800 194.0000 1.0000
33.9000 188.0000 1.0000
33.9200 181.0000 1.0000
33.9400 181.0000 1.0000
33.9600 157.0000 1.0000
33.9800 164.0000 1.0000
34.0000 172.0000 1.0000
34.0200 174.0000 1.0000
34.0400 177.0000 1.0000
34.0600 166.0000 1.0000
34.0800 180.0000 1.0000
34.1000 174.0000 1.0000
34.1200 174.0000 1.0000
34.1400 180.0000 1.0000
34.1600 183.0000 1.0000
34.1800 184.0000 1.0000
34.2000 170.0000 1.0000
34.2200 197.0000 1.0000
34.2400 205.0000 1.0000
34.2600 189.0000 1.0000
34.2800 239.0000 1.0000
34.3000 255.0000 1.0000
34.3200 225.0000 1.0000
34.3400 251.0000 1.0000
34.3600 252.0000 1.0000
34.3800 245.0000 1.0000
34.4000 248.0000 1.0000
34.4200 283.0000 1.0000
34.4400 280.0000 1.0000
34.4600 291.0000 1.0000
34.4800 291.0000 1.0000
34.5000 285.0000 1.0000
34.5200 315.0000 1.0000
34.5400 300.0000 1.0000
34.5600 348.0000 1.0000
34.5800 344.0000 1.0000
34.6000 350.0000 1.0000
34.6200 360.0000 1.0000
34.6400 358.0000 1.0000
34.6600 413.0000 1.0000
34.6800 455.0000 1.0000
34.7000 447.0000 1.0000
34.7200 480.0000 1.0000
34.7400 448.0000 1.0000
34.7600 470.0000 1.0000
34.7800 514.0000 1.0000
34.8000 563.0000 1.0000
34.8200 566.0000 1.0000
34.8400 596.0000 1.0000
34.8600 570.0000 1.0000
34.8800 642.0000 1.0000
34.9000 701.0000 1.0000
34.9200 728.0000 1.0000
34.9400 832.0000 1.0000
34.9600 891.0000 1.0000
34.9800 1095.0000 1.0000
35.0000 1306.0000 1.0000
35.0200 1454.0000 1.0000
35.0400 1656.0000 1.0000
35.0600 1812.0000 1.0000
35.0800 1861.0000 1.0000
35.1000 1937.0000 1.0000
35.1200 1838.0000 1.0000
35.1400 1599.0000 1.0000
35.1600 1386.0000 1.0000
35.1800 1219.0000 1.0000
35.2000 1030.0000 1.0000
35.2200 934.0000 1.0000
35.2400 771.0000 1.0000
35.2600 578.0000 1.0000
35.2800 538.0000 1.0000
35.3000 600.0000 1.0000
35.3200 532.0000 1.0000
35.3400 532.0000 1.0000
35.3600 533.0000 1.0000
35.3800 541.0000 1.0000
35.4000 588.0000 1.0000
35.4200 631.0000 1.0000
35.4400 611.0000 1.0000
35.4600 618.0000 1.0000
35.4800 645.0000 1.0000
35.5000 599.0000 1.0000
35.5200 620.0000 1.0000
35.5400 565.0000 1.0000
35.5600 552.0000 1.0000
35.5800 541.0000 1.0000
35.6000 523.0000 1.0000
35.6200 515.0000 1.0000
35.6400 486.0000 1.0000
35.6600 490.0000 1.0000
35.6800 449.0000 1.0000
35.7000 408.0000 1.0000
35.7200 420.0000 1.0000
35.7400 372.0000 1.0000
35.7600 373.0000 1.0000
35.7800 354.0000 1.0000
35.8000 311.0000 1.0000
35.8200 302.0000 1.0000
35.8400 254.0000 1.0000
35.8600 260.0000 1.0000
35.8800 286.0000 1.0000
35.9000 282.0000 1.0000
35.9200 249.0000 1.0000
35.9400 224.0000 1.0000
35.9600 243.0000 1.0000
35.9800 236.0000 1.0000
36.0000 263.0000 1.0000
36.0200 246.0000 1.0000
36.0400 245.0000 1.0000
36.0600 234.0000 1.0000
36.0800 239.0000 1.0000
36.1000 210.0000 1.0000
36.1200 258.0000 1.0000
36.1400 254.0000 1.0000
36.1600 249.0000 1.0000
36.1800 232.0000 1.0000
36.2000 240.0000 1.0000
36.2200 247.0000 1.0000
36.2400 252.0000 1.0000
36.2600 277.0000 1.0000
36.2800 298.0000 1.0000
36.3000 305.0000 1.0000
36.3200 351.0000 1.0000
36.3400 376.0000 1.0000
36.3600 439.0000 1.0000
36.3800 482.0000 1.0000
36.4000 524.0000 1.0000
36.4200 672.0000 1.0000
36.4400 732.0000 1.0000
36.4600 750.0000 1.0000
36.4800 818.0000 1.0000
36.5000 805.0000 1.0000
36.5200 724.0000 1.0000
36.5400 710.0000 1.0000
36.5600 631.0000 1.0000
36.5800 552.0000 1.0000
36.6000 492.0000 1.0000
36.6200 458.0000 1.0000
36.6400 403.0000 1.0000
36.6600 323.0000 1.0000
36.6800 301.0000 1.0000
36.7000 297.0000 1.0000
36.7200 271.0000 1.0000
36.7400 263.0000 1.0000
36.7600 252.0000 1.0000
36.7800 246.0000 1.0000
36.8000 229.0000 1.0000
36.8200 236.0000 1.0000
36.8400 211.0000 1.0000
36.8600 227.0000 1.0000
36.8800 250.0000 1.0000
36.9000 265.0000 1.0000
36.9200 234.0000 1.0000
36.9400 253.0000 1.0000
36.9600 217.0000 1.0000
36.9800 231.0000 1.0000
37.0000 227.0000 1.0000
37.0200 226.0000 1.0000
37.0400 216.0000 1.0000
37.0600 211.0000 1.0000
37.0800 196.0000 1.0000
37.1000 201.0000 1.0000
37.1200 209.0000 1.0000
37.1400 204.0000 1.0000
37.1600 203.0000 1.0000
37.1800 240.0000 1.0000
37.2000 206.0000 1.0000
37.2200 206.0000 1.0000
37.2400 229.0000 1.0000
37.2600 225.0000 1.0000
37.2800 217.0000 1.0000
37.3000 219.0000 1.0000
37.3200 228.0000 1.0000
37.3400 247.0000 1.0000
37.3600 254.0000 1.0000
37.3800 204.0000 1.0000
37.4000 220.0000 1.0000
37.4200 252.0000 1.0000
37.4400 257.0000 1.0000
37.4600 262.0000 1.0000
37.4800 250.0000 1.0000
37.5000 271.0000 1.0000
37.5200 304.0000 1.0000
37.5400 329.0000 1.0000
37.5600 343.0000 1.0000
37.5800 401.0000 1.0000
37.6000 463.0000 1.0000
37.6200 532.0000 1.0000
37.6400 622.0000 1.0000
37.6600 677.0000 1.0000
37.6800 749.0000 1.0000
37.7000 774.0000 1.0000
37.7200 816.0000 1.0000
37.7400 791.0000 1.0000
37.7600 723.0000 1.0000
37.7800 623.0000 1.0000
37.8000 521.0000 1.0000
37.8200 472.0000 1.0000
37.8400 384.0000 1.0000
37.8600 313.0000 1.0000
37.8800 255.0000 1.0000
37.9000 242.0000 1.0000
37.9200 212.0000 1.0000
37.9400 187.0000 1.0000
37.9600 183.0000 1.0000
37.9800 165.0000 1.0000
38.0000 153.0000 1.0000
38.0200 158.0000 1.0000
38.0400 155.0000 1.0000
38.0600 158.0000 1.0000
38.0800 170.0000 1.0000
38.1000 148.0000 1.0000
38.1200 141.0000 1.0000
38.1400 151.0000 1.0000
38.1600 153.0000 1.0000
38.1800 157.0000 1.0000
38.2000 141.0000 1.0000
38.2200 139.0000 1.0000
38.2400 120.0000 1.0000
38.2600 126.0000 1.0000
38.2800 153.0000 1.0000
38.3000 122.0000 1.0000
38.3200 112.0000 1.0000
38.3400 135.0000 1.0000
38.3600 147.0000 1.0000
38.3800 124.0000 1.0000
38.4000 120.0000 1.0000
38.4200 128.0000 1.0000
38.4400 125.0000 1.0000
38.4600 140.0000 1.0000
38.4800 130.0000 1.0000
38.5000 129.0000 1.0000
38.5200 137.0000 1.0000
38.5400 140.0000 1.0000
38.5600 147.0000 1.0000
38.5800 159.0000 1.0000
38.6000 147.0000 1.0000
38.6200 143.0000 1.0000
38.6400 148.0000 1.0000
38.6600 159.0000 1.0000
38.6800 157.0000 1.0000
38.7000 157.0000 1.0000
38.7200 147.0000 1.0000
38.7400 164.0000 1.0000
38.7600 159.0000 1.0000
38.7800 174.0000 1.0000
38.8000 181.0000 1.0000
38.8200 166.0000 1.0000
38.8400 166.0000 1.0000
38.8600 167.0000 1.0000
38.8800 173.0000 1.0000
38.9000 185.0000 1.0000
38.9200 173.0000 1.0000
38.9400 167.0000 1.0000
38.9600 174.0000 1.0000
38.9800 170.0000 1.0000
39.0000 174.0000 1.0000
39.0200 192.0000 1.0000
39.0400 183.0000 1.0000
39.0600 177.0000 1.0000
39.0800 183.0000 1.0000
39.1000 176.0000 1.0000
39.1200 177.0000 1.0000
39.1400 179.0000 1.0000
39.1600 198.0000 1.0000
39.1800 200.0000 1.0000
39.2000 206.0000 1.0000
39.2200 234.0000 1.0000
39.2400 256.0000 1.0000
39.2600 252.0000 1.0000
39.2800 298.0000 1.0000
39.3000 355.0000 1.0000
39.3200 426.0000 1.0000
39.3400 523.0000 1.0000
39.3600 599.0000 1.0000
39.3800 628.0000 1.0000
39.4000 658.0000 1.0000
39.4200 664.0000 1.0000
39.4400 615.0000 1.0000
39.4600 555.0000 1.0000
39.4800 514.0000 1.0000
39.5000 444.0000 1.0000
39.5200 387.0000 1.0000
39.5400 357.0000 1.0000
39.5600 301.0000 1.0000
39.5800 247.0000 1.0000
39.6000 212.0000 1.0000
39.6200 196.0000 1.0000
39.6400 182.0000 1.0000
39.6600 167.0000 1.0000
39.6800 172.0000 1.0000
39.7000 182.0000 1.0000
39.7200 165.0000 1.0000
39.7400 158.0000 1.0000
39.7600 156.0000 1.0000
39.7800 160.0000 1.0000
39.8000 155.0000 1.0000
39.8200 142.0000 1.0000
39.8400 133.0000 1.0000
39.8600 130.0000 1.0000
39.8800 142.0000 1.0000
39.9000 156.0000 1.0000
39.9200 164.0000 1.0000
39.9400 166.0000 1.0000
39.9600 162.0000 1.0000
39.9800 160.0000 1.0000
40.0000 174.0000 1.0000
40.0200 180.0000 1.0000
40.0400 176.0000 1.0000
40.0600 182.0000 1.0000
40.0800 217.0000 1.0000
40.1000 240.0000 1.0000
40.1200 244.0000 1.0000
40.1400 281.0000 1.0000
40.1600 317.0000 1.0000
40.1800 327.0000 1.0000
40.2000 367.0000 1.0000
40.2200 391.0000 1.0000
40.2400 393.0000 1.0000
40.2600 392.0000 1.0000
40.2800 364.0000 1.0000
40.3000 323.0000 1.0000
40.3200 305.0000 1.0000
40.3400 297.0000 1.0000
40.3600 281.0000 1.0000
40.3800 255.0000 1.0000
40.4000 227.0000 1.0000
40.4200 222.0000 1.0000
40.4400 203.0000 1.0000
40.4600 169.0000 1.0000
40.4800 163.0000 1.0000
40.5000 181.0000 1.0000
40.5200 179.0000 1.0000
40.5400 177.0000 1.0000
40.5600 191.0000 1.0000
40.5800 198.0000 1.0000
40.6000 187.0000 1.0000
40.6200 180.0000 1.0000
40.6400 184.0000 1.0000
40.6600 192.0000 1.0000
40.6800 187.0000 1.0000
40.7000 176.0000 1.0000
40.7200 180.0000 1.0000
40.7400 185.0000 1.0000
40.7600 197.0000 1.0000
40.7800 202.0000 1.0000
40.8000 185.0000 1.0000
40.8200 173.0000 1.0000
40.8400 184.0000 1.0000
40.8600 176.0000 1.0000
40.8800 174.0000 1.0000
40.9000 182.0000 1.0000
40.9200 179.0000 1.0000
40.9400 175.0000 1.0000
40.9600 165.0000 1.0000
40.9800 164.0000 1.0000
41.0000 159.0000 1.0000
41.0200 161.0000 1.0000
41.0400 158.0000 1.0000
41.0600 157.0000 1.0000
41.0800 160.0000 1.0000
41.1000 167.0000 1.0000
41.1200 163.0000 1.0000
41.1400 163.0000 1.0000
41.1600 179.0000 1.0000
41.1800 178.0000 1.0000
41.2000 172.0000 1.0000
41.2200 154.0000 1.0000
41.2400 157.0000 1.0000
41.2600 165.0000 1.0000
41.2800 142.0000 1.0000
41.3000 150.0000 1.0000
41.3200 172.0000 1.0000
41.3400 153.0000 1.0000
41.3600 155.0000 1.0000
41.3800 157.0000 1.0000
41.4000 162.0000 1.0000
41.4200 165.0000 1.0000
41.4400 176.0000 1.0000
41.4600 177.0000 1.0000
41.4800 163.0000 1.0000
41.5000 166.0000 1.0000
41.5200 183.0000 1.0000
41.5400 197.0000 1.0000
41.5600 208.0000 1.0000
41.5800 206.0000 1.0000
41.6000 207.0000 1.0000
41.6200 203.0000 1.0000
41.6400 219.0000 1.0000
41.6600 237.0000 1.0000
41.6800 226.0000 1.0000
41.7000 232.0000 1.0000
41.7200 240.0000 1.0000
41.7400 243.0000 1.0000
41.7600 227.0000 1.0000
41.7800 232.0000 1.0000
41.8000 230.0000 1.0000
41.8200 245.0000 1.0000
41.8400 229.0000 1.0000
41.8600 211.0000 1.0000
41.8800 232.0000 1.0000
41.9000 255.0000 1.0000
41.9200 231.0000 1.0000
41.9400 229.0000 1.0000
41.9600 223.0000 1.0000
41.9800 233.0000 1.0000
42.0000 259.0000 1.0000
42.0200 253.0000 1.0000
42.0400 262.0000 1.0000
42.0600 259.0000 1.0000
42.0800 278.0000 1.0000
42.1000 283.0000 1.0000
42.1200 290.0000 1.0000
42.1400 348.0000 1.0000
42.1600 363.0000 1.0000
42.1800 337.0000 1.0000
42.2000 351.0000 1.0000
42.2200 369.0000 1.0000
42.2400 387.0000 1.0000
42.2600 416.0000 1.0000
42.2800 443.0000 1.0000
42.3000 499.0000 1.0000
42.3200 583.0000 1.0000
42.3400 605.0000 1.0000
42.3600 617.0000 1.0000
42.3800 634.0000 1.0000
42.4000 673.0000 1.0000
42.4200 635.0000 1.0000
42.4400 601.0000 1.0000
42.4600 524.0000 1.0000
42.4800 500.0000 1.0000
42.5000 468.0000 1.0000
42.5200 414.0000 1.0000
42.5400 366.0000 1.0000
42.5600 298.0000 1.0000
42.5800 282.0000 1.0000
42.6000 294.0000 1.0000
42.6200 244.0000 1.0000
42.6400 246.0000 1.0000
42.6600 253.0000 1.0000
42.6800 272.0000 1.0000
42.7000 269.0000 1.0000
42.7200 263.0000 1.0000
42.7400 239.0000 1.0000
42.7600 248.0000 1.0000
42.7800 245.0000 1.0000
42.8000 232.0000 1.0000
42.8200 245.0000 1.0000
42.8400 235.0000 1.0000
42.8600 253.0000 1.0000
42.8800 262.0000 1.0000
42.9000 250.0000 1.0000
42.9200 245.0000 1.0000
42.9400 241.0000 1.0000
42.9600 265.0000 1.0000
42.9800 263.0000 1.0000
43.0000 250.0000 1.0000
43.0200 273.0000 1.0000
43.0400 296.0000 1.0000
43.0600 311.0000 1.0000
43.0800 328.0000 1.0000
43.1000 340.0000 1.0000
43.1200 402.0000 1.0000
43.1400 450.0000 1.0000
43.1600 555.0000 1.0000
43.1800 701.0000 1.0000
43.2000 883.0000 1.0000
43.2200 1098.0000 1.0000
43.2400 1334.0000 1.0000
43.2600 1518.0000 1.0000
43.2800 1561.0000 1.0000
43.3000 1646.0000 1.0000
43.3200 1563.0000 1.0000
43.3400 1468.0000 1.0000
43.3600 1367.0000 1.0000
43.3800 1154.0000 1.0000
43.4000 982.0000 1.0000
43.4200 893.0000 1.0000
43.4400 767.0000 1.0000
43.4600 619.0000 1.0000
43.4800 531.0000 1.0000
43.5000 371.0000 1.0000
43.5200 301.0000 1.0000
43.5400 247.0000 1.0000
43.5600 247.0000 1.0000
43.5800 212.0000 1.0000
43.6000 211.0000 1.0000
43.6200 219.0000 1.0000
43.6400 196.0000 1.0000
43.6600 190.0000 1.0000
43.6800 192.0000 1.0000
43.7000 169.0000 1.0000
43.7200 170.0000 1.0000
43.7400 181.0000 1.0000
43.7600 168.0000 1.0000
43.7800 158.0000 1.0000
43.8000 142.0000 1.0000
43.8200 148.0000 1.0000
43.8400 171.0000 1.0000
43.8600 148.0000 1.0000
43.8800 142.0000 1.0000
43.9000 164.0000 1.0000
43.9200 174.0000 1.0000
43.9400 146.0000 1.0000
43.9600 151.0000 1.0000
43.9800 146.0000 1.0000
44.0000 175.0000 1.0000
44.0200 159.0000 1.0000
44.0400 171.0000 1.0000
44.0600 168.0000 1.0000
44.0800 159.0000 1.0000
44.1000 175.0000 1.0000
44.1200 190.0000 1.0000
44.1400 163.0000 1.0000
44.1600 194.0000 1.0000
44.1800 176.0000 1.0000
44.2000 153.0000 1.0000
44.2200 158.0000 1.0000
44.2400 163.0000 1.0000
44.2600 167.0000 1.0000
44.2800 145.0000 1.0000
44.3000 171.0000 1.0000
44.3200 186.0000 1.0000
44.3400 161.0000 1.0000
44.3600 179.0000 1.0000
44.3800 160.0000 1.0000
44.4000 176.0000 1.0000
44.4200 171.0000 1.0000
44.4400 168.0000 1.0000
44.4600 155.0000 1.0000
44.4800 146.0000 1.0000
44.5000 171.0000 1.0000
44.5200 153.0000 1.0000
44.5400 160.0000 1.0000
44.5600 144.0000 1.0000
44.5800 165.0000 1.0000
44.6000 156.0000 1.0000
44.6200 152.0000 1.0000
44.6400 160.0000 1.0000
44.6600 189.0000 1.0000
44.6800 172.0000 1.0000
44.7000 173.0000 1.0000
44.7200 178.0000 1.0000
44.7400 187.0000 1.0000
44.7600 182.0000 1.0000
44.7800 195.0000 1.0000
44.8000 192.0000 1.0000
44.8200 183.0000 1.0000
44.8400 194.0000 1.0000
44.8600 191.0000 1.0000
44.8800 208.0000 1.0000
44.9000 192.0000 1.0000
44.9200 201.0000 1.0000
44.9400 184.0000 1.0000
44.9600 197.0000 1.0000
44.9800 199.0000 1.0000
45.0000 192.0000 1.0000
45.0200 173.0000 1.0000
45.0400 193.0000 1.0000
45.0600 195.0000 1.0000
45.0800 223.0000 1.0000
45.1000 188.0000 1.0000
45.1200 217.0000 1.0000
45.1400 194.0000 1.0000
45.1600 216.0000 1.0000
45.1800 192.0000 1.0000
45.2000 191.0000 1.0000
45.2200 202.0000 1.0000
45.2400 217.0000 1.0000
45.2600 210.0000 1.0000
45.2800 179.0000 1.0000
45.3000 224.0000 1.0000
45.3200 182.0000 1.0000
45.3400 195.0000 1.0000
45.3600 167.0000 1.0000
45.3800 208.0000 1.0000
45.4000 188.0000 1.0000
45.4200 174.0000 1.0000
45.4400 189.0000 1.0000
45.4600 190.0000 1.0000
45.4800 187.0000 1.0000
45.5000 170.0000 1.0000
45.5200 212.0000 1.0000
45.5400 202.0000 1.0000
45.5600 196.0000 1.0000
45.5800 205.0000 1.0000
45.6000 226.0000 1.0000
45.6200 262.0000 1.0000
45.6400 274.0000 1.0000
45.6600 314.0000 1.0000
45.6800 367.0000 1.0000
45.7000 393.0000 1.0000
45.7200 377.0000 1.0000
45.7400 397.0000 1.0000
45.7600 401.0000 1.0000
45.7800 402.0000 1.0000
45.8000 348.0000 1.0000
45.8200 316.0000 1.0000
45.8400 337.0000 1.0000
45.8600 279.0000 1.0000
45.8800 290.0000 1.0000
45.9000 248.0000 1.0000
45.9200 224.0000 1.0000
45.9400 193.0000 1.0000
45.9600 168.0000 1.0000
45.9800 140.0000 1.0000
46.0000 187.0000 1.0000
46.0200 174.0000 1.0000
46.0400 162.0000 1.0000
46.0600 184.0000 1.0000
46.0800 185.0000 1.0000
46.1000 172.0000 1.0000
46.1200 187.0000 1.0000
46.1400 166.0000 1.0000
46.1600 155.0000 1.0000
46.1800 154.0000 1.0000
46.2000 150.0000 1.0000
46.2200 158.0000 1.0000
46.2400 121.0000 1.0000
46.2600 133.0000 1.0000
46.2800 129.0000 1.0000
46.3000 128.0000 1.0000
46.3200 135.0000 1.0000
46.3400 127.0000 1.0000
46.3600 113.0000 1.0000
46.3800 110.0000 1.0000
46.4000 122.0000 1.0000
46.4200 127.0000 1.0000
46.4400 122.0000 1.0000
46.4600 118.0000 1.0000
46.4800 110.0000 1.0000
46.5000 111.0000 1.0000
46.5200 104.0000 1.0000
46.5400 117.0000 1.0000
46.5600 118.0000 1.0000
46.5800 131.0000 1.0000
46.6000 115.0000 1.0000
46.6200 133.0000 1.0000
46.6400 119.0000 1.0000
46.6600 111.0000 1.0000
46.6800 103.0000 1.0000
46.7000 114.0000 1.0000
46.7200 133.0000 1.0000
46.7400 128.0000 1.0000
46.7600 117.0000 1.0000
46.7800 135.0000 1.0000
46.8000 133.0000 1.0000
46.8200 122.0000 1.0000
46.8400 119.0000 1.0000
46.8600 127.0000 1.0000
46.8800 140.0000 1.0000
46.9000 146.0000 1.0000
46.9200 153.0000 1.0000
46.9400 139.0000 1.0000
46.9600 145.0000 1.0000
46.9800 142.0000 1.0000
47.0000 141.0000 1.0000
47.0200 166.0000 1.0000
47.0400 152.0000 1.0000
47.0600 146.0000 1.0000
47.0800 150.0000 1.0000
47.1000 160.0000 1.0000
47.1200 138.0000 1.0000
47.1400 126.0000 1.0000
47.1600 126.0000 1.0000
47.1800 133.0000 1.0000
47.2000 126.0000 1.0000
47.2200 112.0000 1.0000
47.2400 120.0000 1.0000
47.2600 120.0000 1.0000
47.2800 109.0000 1.0000
47.3000 115.0000 1.0000
47.3200 120.0000 1.0000
47.3400 128.0000 1.0000
47.3600 112.0000 1.0000
47.3800 113.0000 1.0000
47.4000 115.0000 1.0000
47.4200 117.0000 1.0000
47.4400 113.0000 1.0000
47.4600 112.0000 1.0000
47.4800 107.0000 1.0000
47.5000 112.0000 1.0000
47.5200 108.0000 1.0000
47.5400 116.0000 1.0000
47.5600 98.0000 1.0000
47.5800 103.0000 1.0000
47.6000 104.0000 1.0000
47.6200 103.0000 1.0000
47.6400 113.0000 1.0000
47.6600 115.0000 1.0000
47.6800 106.0000 1.0000
47.7000 121.0000 1.0000
47.7200 130.0000 1.0000
47.7400 128.0000 1.0000
47.7600 135.0000 1.0000
47.7800 137.0000 1.0000
47.8000 129.0000 1.0000
47.8200 113.0000 1.0000
47.8400 112.0000 1.0000
47.8600 115.0000 1.0000
47.8800 126.0000 1.0000
47.9000 128.0000 1.0000
47.9200 116.0000 1.0000
47.9400 109.0000 1.0000
47.9600 122.0000 1.0000
47.9800 134.0000 1.0000
48.0000 124.0000 1.0000
48.0200 126.0000 1.0000
48.0400 140.0000 1.0000
48.0600 138.0000 1.0000
48.0800 134.0000 1.0000
48.1000 142.0000 1.0000
48.1200 133.0000 1.0000
48.1400 128.0000 1.0000
48.1600 145.0000 1.0000
48.1800 137.0000 1.0000
48.2000 133.0000 1.0000
48.2200 150.0000 1.0000
48.2400 149.0000 1.0000
48.2600 152.0000 1.0000
48.2800 155.0000 1.0000
48.3000 151.0000 1.0000
48.3200 143.0000 1.0000
48.3400 151.0000 1.0000
48.3600 150.0000 1.0000
48.3800 141.0000 1.0000
48.4000 145.0000 1.0000
48.4200 147.0000 1.0000
48.4400 133.0000 1.0000
48.4600 124.0000 1.0000
48.4800 133.0000 1.0000
48.5000 130.0000 1.0000
48.5200 113.0000 1.0000
48.5400 116.0000 1.0000
48.5600 124.0000 1.0000
48.5800 115.0000 1.0000
48.6000 120.0000 1.0000
48.6200 121.0000 1.0000
48.6400 111.0000 1.0000
48.6600 123.0000 1.0000
48.6800 122.0000 1.0000
48.7000 124.0000 1.0000
48.7200 133.0000 1.0000
48.7400 131.0000 1.0000
48.7600 130.0000 1.0000
48.7800 140.0000 1.0000
48.8000 147.0000 1.0000
48.8200 142.0000 1.0000
48.8400 135.0000 1.0000
48.8600 132.0000 1.0000
48.8800 142.0000 1.0000
48.9000 140.0000 1.0000
48.9200 130.0000 1.0000
48.9400 134.0000 1.0000
48.9600 138.0000 1.0000
48.9800 147.0000 1.0000
49.0000 157.0000 1.0000
49.0200 157.0000 1.0000
49.0400 163.0000 1.0000
49.0600 167.0000 1.0000
49.0800 171.0000 1.0000
49.1000 195.0000 1.0000
49.1200 206.0000 1.0000
49.1400 197.0000 1.0000
49.1600 193.0000 1.0000
49.1800 199.0000 1.0000
49.2000 199.0000 1.0000
49.2200 184.0000 1.0000
49.2400 189.0000 1.0000
49.2600 191.0000 1.0000
49.2800 174.0000 1.0000
49.3000 171.0000 1.0000
49.3200 168.0000 1.0000
49.3400 175.0000 1.0000
49.3600 164.0000 1.0000
49.3800 148.0000 1.0000
49.4000 154.0000 1.0000
49.4200 172.0000 1.0000
49.4400 188.0000 1.0000
49.4600 183.0000 1.0000
49.4800 187.0000 1.0000
49.5000 208.0000 1.0000
49.5200 208.0000 1.0000
49.5400 191.0000 1.0000
49.5600 210.0000 1.0000
49.5800 232.0000 1.0000
49.6000 239.0000 1.0000
49.6200 238.0000 1.0000
49.6400 234.0000 1.0000
49.6600 233.0000 1.0000
49.6800 243.0000 1.0000
49.7000 244.0000 1.0000
49.7200 248.0000 1.0000
49.7400 238.0000 1.0000
49.7600 243.0000 1.0000
49.7800 261.0000 1.0000
49.8000 272.0000 1.0000
49.8200 295.0000 1.0000
49.8400 294.0000 1.0000
49.8600 314.0000 1.0000
49.8800 335.0000 1.0000
49.9000 342.0000 1.0000
49.9200 377.0000 1.0000
49.9400 429.0000 1.0000
49.9600 478.0000 1.0000
49.9800 564.0000 1.0000
50.0000 679.0000 1.0000
50.0200 801.0000 1.0000
50.0400 937.0000 1.0000
50.0600 993.0000 1.0000
50.0800 1041.0000 1.0000
50.1000 1011.0000 1.0000
50.1200 932.0000 1.0000
50.1400 826.0000 1.0000
50.1600 745.0000 1.0000
50.1800 657.0000 1.0000
50.2000 641.0000 1.0000
50.2200 596.0000 1.0000
50.2400 559.0000 1.0000
50.2600 488.0000 1.0000
50.2800 393.0000 1.0000
50.3000 310.0000 1.0000
50.3200 259.0000 1.0000
50.3400 245.0000 1.0000
50.3600 225.0000 1.0000
50.3800 216.0000 1.0000
50.4000 197.0000 1.0000
50.4200 203.0000 1.0000
50.4400 208.0000 1.0000
50.4600 211.0000 1.0000
50.4800 243.0000 1.0000
50.5000 257.0000 1.0000
50.5200 240.0000 1.0000
50.5400 235.0000 1.0000
50.5600 250.0000 1.0000
50.5800 259.0000 1.0000
50.6000 245.0000 1.0000
50.6200 249.0000 1.0000
50.6400 255.0000 1.0000
50.6600 264.0000 1.0000
50.6800 263.0000 1.0000
50.7000 252.0000 1.0000
50.7200 252.0000 1.0000
50.7400 233.0000 1.0000
50.7600 246.0000 1.0000
50.7800 232.0000 1.0000
50.8000 207.0000 1.0000
50.8200 204.0000 1.0000
50.8400 210.0000 1.0000
50.8600 191.0000 1.0000
50.8800 181.0000 1.0000
50.9000 178.0000 1.0000
50.9200 188.0000 1.0000
50.9400 160.0000 1.0000
50.9600 161.0000 1.0000
50.9800 178.0000 1.0000
51.0000 182.0000 1.0000
51.0200 188.0000 1.0000
51.0400 170.0000 1.0000
51.0600 167.0000 1.0000
51.0800 195.0000 1.0000
51.1000 190.0000 1.0000
51.1200 199.0000 1.0000
51.1400 192.0000 1.0000
51.1600 198.0000 1.0000
51.1800 196.0000 1.0000
51.2000 165.0000 1.0000
51.2200 178.0000 1.0000
51.2400 198.0000 1.0000
51.2600 187.0000 1.0000
51.2800 163.0000 1.0000
51.3000 168.0000 1.0000
51.3200 186.0000 1.0000
51.3400 202.0000 1.0000
51.3600 169.0000 1.0000
51.3800 187.0000 1.0000
51.4000 186.0000 1.0000
51.4200 166.0000 1.0000
51.4400 181.0000 1.0000
51.4600 210.0000 1.0000
51.4800 212.0000 1.0000
51.5000 196.0000 1.0000
51.5200 188.0000 1.0000
51.5400 185.0000 1.0000
51.5600 175.0000 1.0000
51.5800 181.0000 1.0000
51.6000 169.0000 1.0000
51.6200 172.0000 1.0000
51.6400 164.0000 1.0000
51.6600 153.0000 1.0000
51.6800 142.0000 1.0000
51.7000 134.0000 1.0000
51.7200 140.0000 1.0000
51.7400 151.0000 1.0000
51.7600 148.0000 1.0000
51.7800 128.0000 1.0000
51.8000 131.0000 1.0000
51.8200 125.0000 1.0000
51.8400 157.0000 1.0000
51.8600 147.0000 1.0000
51.8800 139.0000 1.0000
51.9000 163.0000 1.0000
51.9200 146.0000 1.0000
51.9400 181.0000 1.0000
51.9600 149.0000 1.0000
51.9800 161.0000 1.0000
52.0000 175.0000 1.0000
52.0200 171.0000 1.0000
52.0400 193.0000 1.0000
52.0600 178.0000 1.0000
52.0800 177.0000 1.0000
52.1000 186.0000 1.0000
52.1200 146.0000 1.0000
52.1400 169.0000 1.0000
52.1600 189.0000 1.0000
52.1800 207.0000 1.0000
52.2000 185.0000 1.0000
52.2200 216.0000 1.0000
52.2400 225.0000 1.0000
52.2600 221.0000 1.0000
52.2800 237.0000 1.0000
52.3000 256.0000 1.0000
52.3200 245.0000 1.0000
52.3400 256.0000 1.0000
52.3600 292.0000 1.0000
52.3800 360.0000 1.0000
52.4000 433.0000 1.0000
52.4200 509.0000 1.0000
52.4400 605.0000 1.0000
52.4600 694.0000 1.0000
52.4800 733.0000 1.0000
52.5000 758.0000 1.0000
52.5200 781.0000 1.0000
52.5400 717.0000 1.0000
52.5600 690.0000 1.0000
52.5800 639.0000 1.0000
52.6000 550.0000 1.0000
52.6200 503.0000 1.0000
52.6400 526.0000 1.0000
52.6600 497.0000 1.0000
52.6800 455.0000 1.0000
52.7000 355.0000 1.0000
52.7200 279.0000 1.0000
52.7400 270.0000 1.0000
52.7600 236.0000 1.0000
52.7800 204.0000 1.0000
52.8000 170.0000 1.0000
52.8200 189.0000 1.0000
52.8400 187.0000 1.0000
52.8600 164.0000 1.0000
52.8800 149.0000 1.0000
52.9000 163.0000 1.0000
52.9200 154.0000 1.0000
52.9400 152.0000 1.0000
52.9600 164.0000 1.0000
52.9800 172.0000 1.0000
53.0000 177.0000 1.0000
53.0200 182.0000 1.0000
53.0400 175.0000 1.0000
53.0600 185.0000 1.0000
53.0800 185.0000 1.0000
53.1000 182.0000 1.0000
53.1200 179.0000 1.0000
53.1400 208.0000 1.0000
53.1600 179.0000 1.0000
53.1800 181.0000 1.0000
53.2000 162.0000 1.0000
53.2200 174.0000 1.0000
53.2400 172.0000 1.0000
53.2600 193.0000 1.0000
53.2800 178.0000 1.0000
53.3000 184.0000 1.0000
53.3200 164.0000 1.0000
53.3400 168.0000 1.0000
53.3600 139.0000 1.0000
53.3800 144.0000 1.0000
53.4000 164.0000 1.0000
53.4200 161.0000 1.0000
53.4400 143.0000 1.0000
53.4600 157.0000 1.0000
53.4800 169.0000 1.0000
53.5000 138.0000 1.0000
53.5200 141.0000 1.0000
53.5400 135.0000 1.0000
53.5600 121.0000 1.0000
53.5800 141.0000 1.0000
53.6000 158.0000 1.0000
53.6200 140.0000 1.0000
53.6400 137.0000 1.0000
53.6600 135.0000 1.0000
53.6800 121.0000 1.0000
53.7000 122.0000 1.0000
53.7200 155.0000 1.0000
53.7400 127.0000 1.0000
53.7600 124.0000 1.0000
53.7800 142.0000 1.0000
53.8000 131.0000 1.0000
53.8200 128.0000 1.0000
53.8400 145.0000 1.0000
53.8600 140.0000 1.0000
53.8800 135.0000 1.0000
53.9000 143.0000 1.0000
53.9200 145.0000 1.0000
53.9400 147.0000 1.0000
53.9600 152.0000 1.0000
53.9800 146.0000 1.0000
54.0000 136.0000 1.0000
54.0200 122.0000 1.0000
54.0400 128.0000 1.0000
54.0600 144.0000 1.0000
54.0800 149.0000 1.0000
54.1000 138.0000 1.0000
54.1200 152.0000 1.0000
54.1400 141.0000 1.0000
54.1600 145.0000 1.0000
54.1800 140.0000 1.0000
54.2000 148.0000 1.0000
54.2200 161.0000 1.0000
54.2400 140.0000 1.0000
54.2600 145.0000 1.0000
54.2800 162.0000 1.0000
54.3000 155.0000 1.0000
54.3200 152.0000 1.0000
54.3400 159.0000 1.0000
54.3600 152.0000 1.0000
54.3800 162.0000 1.0000
54.4000 156.0000 1.0000
54.4200 143.0000 1.0000
54.4400 170.0000 1.0000
54.4600 169.0000 1.0000
54.4800 167.0000 1.0000
54.5000 160.0000 1.0000
54.5200 151.0000 1.0000
54.5400 171.0000 1.0000
54.5600 178.0000 1.0000
54.5800 169.0000 1.0000
54.6000 157.0000 1.0000
54.6200 165.0000 1.0000
54.6400 185.0000 1.0000
54.6600 209.0000 1.0000
54.6800 227.0000 1.0000
54.7000 249.0000 1.0000
54.7200 275.0000 1.0000
54.7400 314.0000 1.0000
54.7600 345.0000 1.0000
54.7800 362.0000 1.0000
54.8000 394.0000 1.0000
54.8200 402.0000 1.0000
54.8400 396.0000 1.0000
54.8600 375.0000 1.0000
54.8800 349.0000 1.0000
54.9000 346.0000 1.0000
54.9200 340.0000 1.0000
54.9400 328.0000 1.0000
54.9600 290.0000 1.0000
54.9800 284.0000 1.0000
55.0000 264.0000 1.0000
55.0200 248.0000 1.0000
55.0400 230.0000 1.0000
55.0600 214.0000 1.0000
55.0800 197.0000 1.0000
55.1000 182.0000 1.0000
55.1200 189.0000 1.0000
55.1400 196.0000 1.0000
55.1600 189.0000 1.0000
55.1800 215.0000 1.0000
55.2000 230.0000 1.0000
55.2200 255.0000 1.0000
55.2400 268.0000 1.0000
55.2600 264.0000 1.0000
55.2800 260.0000 1.0000
55.3000 247.0000 1.0000
55.3200 238.0000 1.0000
55.3400 227.0000 1.0000
55.3600 230.0000 1.0000
55.3800 223.0000 1.0000
55.4000 220.0000 1.0000
55.4200 215.0000 1.0000
55.4400 201.0000 1.0000
55.4600 197.0000 1.0000
55.4800 187.0000 1.0000
55.5000 182.0000 1.0000
55.5200 168.0000 1.0000
55.5400 160.0000 1.0000
55.5600 166.0000 1.0000
55.5800 149.0000 1.0000
55.6000 161.0000 1.0000
55.6200 169.0000 1.0000
55.6400 160.0000 1.0000
55.6600 160.0000 1.0000
55.6800 152.0000 1.0000
55.7000 144.0000 1.0000
55.7200 133.0000 1.0000
55.7400 138.0000 1.0000
55.7600 146.0000 1.0000
55.7800 150.0000 1.0000
55.8000 149.0000 1.0000
55.8200 151.0000 1.0000
55.8400 149.0000 1.0000
55.8600 139.0000 1.0000
55.8800 152.0000 1.0000
55.9000 166.0000 1.0000
55.9200 162.0000 1.0000
55.9400 148.0000 1.0000
55.9600 138.0000 1.0000
55.9800 141.0000 1.0000
56.0000 142.0000 1.0000
56.0200 148.0000 1.0000
56.0400 154.0000 1.0000
56.0600 157.0000 1.0000
56.0800 171.0000 1.0000
56.1000 156.0000 1.0000
56.1200 131.0000 1.0000
56.1400 140.0000 1.0000
56.1600 156.0000 1.0000
56.1800 159.0000 1.0000
56.2000 153.0000 1.0000
56.2200 162.0000 1.0000
56.2400 172.0000 1.0000
56.2600 157.0000 1.0000
56.2800 167.0000 1.0000
56.3000 183.0000 1.0000
56.3200 178.0000 1.0000
56.3400 176.0000 1.0000
56.3600 192.0000 1.0000
56.3800 185.0000 1.0000
56.4000 196.0000 1.0000
56.4200 225.0000 1.0000
56.4400 227.0000 1.0000
56.4600 226.0000 1.0000
56.4800 239.0000 1.0000
56.5000 261.0000 1.0000
56.5200 252.0000 1.0000
56.5400 247.0000 1.0000
56.5600 245.0000 1.0000
56.5800 234.0000 1.0000
56.6000 233.0000 1.0000
56.6200 226.0000 1.0000
56.6400 216.0000 1.0000
56.6600 223.0000 1.0000
56.6800 231.0000 1.0000
56.7000 217.0000 1.0000
56.7200 207.0000 1.0000
56.7400 205.0000 1.0000
56.7600 201.0000 1.0000
56.7800 178.0000 1.0000
56.8000 188.0000 1.0000
56.8200 208.0000 1.0000
56.8400 204.0000 1.0000
56.8600 191.0000 1.0000
56.8800 198.0000 1.0000
56.9000 199.0000 1.0000
56.9200 181.0000 1.0000
56.9400 168.0000 1.0000
56.9600 171.0000 1.0000
56.9800 180.0000 1.0000
57.0000 178.0000 1.0000
57.0200 199.0000 1.0000
57.0400 208.0000 1.0000
57.0600 187.0000 1.0000
57.0800 177.0000 1.0000
57.1000 177.0000 1.0000
57.1200 209.0000 1.0000
57.1400 236.0000 1.0000
57.1600 236.0000 1.0000
57.1800 229.0000 1.0000
57.2000 236.0000 1.0000
57.2200 264.0000 1.0000
57.2400 276.0000 1.0000
57.2600 298.0000 1.0000
57.2800 348.0000 1.0000
57.3000 419.0000 1.0000
57.3200 502.0000 1.0000
57.3400 614.0000 1.0000
57.3600 769.0000 1.0000
57.3800 921.0000 1.0000
57.4000 1108.0000 1.0000
57.4200 1237.0000 1.0000
57.4400 1299.0000 1.0000
57.4600 1312.0000 1.0000
57.4800 1251.0000 1.0000
57.5000 1166.0000 1.0000
57.5200 1048.0000 1.0000
57.5400 923.0000 1.0000
57.5600 896.0000 1.0000
57.5800 826.0000 1.0000
57.6000 801.0000 1.0000
57.6200 735.0000 1.0000
57.6400 671.0000 1.0000
57.6600 554.0000 1.0000
57.6800 464.0000 1.0000
57.7000 364.0000 1.0000
57.7200 301.0000 1.0000
57.7400 256.0000 1.0000
57.7600 257.0000 1.0000
57.7800 209.0000 1.0000
57.8000 202.0000 1.0000
57.8200 179.0000 1.0000
57.8400 179.0000 1.0000
57.8600 179.0000 1.0000
57.8800 177.0000 1.0000
57.9000 165.0000 1.0000
57.9200 155.0000 1.0000
57.9400 156.0000 1.0000
57.9600 159.0000 1.0000
57.9800 169.0000 1.0000
58.0000 143.0000 1.0000
58.0200 145.0000 1.0000
58.0400 139.0000 1.0000
58.0600 137.0000 1.0000
58.0800 139.0000 1.0000
58.1000 148.0000 1.0000
58.1200 149.0000 1.0000
58.1400 135.0000 1.0000
58.1600 123.0000 1.0000
58.1800 128.0000 1.0000
58.2000 124.0000 1.0000
58.2200 132.0000 1.0000
58.2400 136.0000 1.0000
58.2600 136.0000 1.0000
58.2800 132.0000 1.0000
58.3000 123.0000 1.0000
58.3200 129.0000 1.0000
58.3400 121.0000 1.0000
58.3600 124.0000 1.0000
58.3800 128.0000 1.0000
58.4000 144.0000 1.0000
58.4200 135.0000 1.0000
58.4400 125.0000 1.0000
58.4600 125.0000 1.0000
58.4800 129.0000 1.0000
58.5000 138.0000 1.0000
58.5200 127.0000 1.0000
58.5400 129.0000 1.0000
58.5600 150.0000 1.0000
58.5800 137.0000 1.0000
58.6000 142.0000 1.0000
58.6200 148.0000 1.0000
58.6400 157.0000 1.0000
58.6600 154.0000 1.0000
58.6800 159.0000 1.0000
58.7000 135.0000 1.0000
58.7200 156.0000 1.0000
58.7400 153.0000 1.0000
58.7600 136.0000 1.0000
58.7800 129.0000 1.0000
58.8000 147.0000 1.0000
58.8200 137.0000 1.0000
58.8400 149.0000 1.0000
58.8600 167.0000 1.0000
58.8800 130.0000 1.0000
58.9000 124.0000 1.0000
58.9200 128.0000 1.0000
58.9400 148.0000 1.0000
58.9600 139.0000 1.0000
58.9800 125.0000 1.0000
59.0000 143.0000 1.0000
59.0200 137.0000 1.0000
59.0400 142.0000 1.0000
59.0600 140.0000 1.0000
59.0800 122.0000 1.0000
59.1000 139.0000 1.0000
59.1200 173.0000 1.0000
59.1400 169.0000 1.0000
59.1600 159.0000 1.0000
59.1800 160.0000 1.0000
59.2000 145.0000 1.0000
59.2200 123.0000 1.0000
59.2400 150.0000 1.0000
59.2600 131.0000 1.0000
59.2800 178.0000 1.0000
59.3000 162.0000 1.0000
59.3200 149.0000 1.0000
59.3400 160.0000 1.0000
59.3600 155.0000 1.0000
59.3800 159.0000 1.0000
59.4000 153.0000 1.0000
59.4200 169.0000 1.0000
59.4400 159.0000 1.0000
59.4600 157.0000 1.0000
59.4800 165.0000 1.0000
59.5000 176.0000 1.0000
59.5200 194.0000 1.0000
59.5400 188.0000 1.0000
59.5600 212.0000 1.0000
59.5800 204.0000 1.0000
59.6000 198.0000 1.0000
59.6200 225.0000 1.0000
59.6400 214.0000 1.0000
59.6600 257.0000 1.0000
59.6800 242.0000 1.0000
59.7000 255.0000 1.0000
59.7200 268.0000 1.0000
59.7400 309.0000 1.0000
59.7600 305.0000 1.0000
59.7800 335.0000 1.0000
59.8000 416.0000 1.0000
59.8200 501.0000 1.0000
59.8400 569.0000 1.0000
59.8600 639.0000 1.0000
59.8800 701.0000 1.0000
59.9000 724.0000 1.0000
59.9200 691.0000 1.0000
59.9400 689.0000 1.0000
59.9600 636.0000 1.0000
59.9800 549.0000 1.0000
60.0000 530.0000 1.0000
60.0200 491.0000 1.0000
60.0400 514.0000 1.0000
60.0600 488.0000 1.0000
60.0800 476.0000 1.0000
60.1000 435.0000 1.0000
60.1200 395.0000 1.0000
60.1400 340.0000 1.0000
60.1600 305.0000 1.0000
60.1800 261.0000 1.0000
60.2000 266.0000 1.0000
60.2200 245.0000 1.0000
60.2400 218.0000 1.0000
60.2600 205.0000 1.0000
60.2800 195.0000 1.0000
60.3000 187.0000 1.0000
60.3200 184.0000 1.0000
60.3400 173.0000 1.0000
60.3600 186.0000 1.0000
60.3800 210.0000 1.0000
60.4000 189.0000 1.0000
60.4200 187.0000 1.0000
60.4400 172.0000 1.0000
60.4600 171.0000 1.0000
60.4800 214.0000 1.0000
60.5000 166.0000 1.0000
60.5200 188.0000 1.0000
60.5400 185.0000 1.0000
60.5600 164.0000 1.0000
60.5800 172.0000 1.0000
60.6000 164.0000 1.0000
60.6200 174.0000 1.0000
60.6400 182.0000 1.0000
60.6600 168.0000 1.0000
60.6800 171.0000 1.0000
60.7000 173.0000 1.0000
60.7200 187.0000 1.0000
60.7400 160.0000 1.0000
60.7600 167.0000 1.0000
60.7800 168.0000 1.0000
60.8000 168.0000 1.0000
60.8200 163.0000 1.0000
60.8400 163.0000 1.0000
60.8600 181.0000 1.0000
60.8800 149.0000 1.0000
60.9000 167.0000 1.0000
60.9200 163.0000 1.0000
60.9400 168.0000 1.0000
60.9600 166.0000 1.0000
60.9800 164.0000 1.0000
61.0000 190.0000 1.0000
61.0200 192.0000 1.0000
61.0400 189.0000 1.0000
61.0600 227.0000 1.0000
61.0800 194.0000 1.0000
61.1000 225.0000 1.0000
61.1200 232.0000 1.0000
61.1400 225.0000 1.0000
61.1600 216.0000 1.0000
61.1800 226.0000 1.0000
61.2000 251.0000 1.0000
61.2200 270.0000 1.0000
61.2400 274.0000 1.0000
61.2600 274.0000 1.0000
61.2800 314.0000 1.0000
61.3000 288.0000 1.0000
61.3200 258.0000 1.0000
61.3400 233.0000 1.0000
61.3600 239.0000 1.0000
61.3800 238.0000 1.0000
61.4000 225.0000 1.0000
61.4200 210.0000 1.0000
61.4400 267.0000 1.0000
61.4600 225.0000 1.0000
61.4800 237.0000 1.0000
61.5000 233.0000 1.0000
61.5200 209.0000 1.0000
61.5400 247.0000 1.0000
61.5600 204.0000 1.0000
61.5800 225.0000 1.0000
61.6000 222.0000 1.0000
61.6200 243.0000 1.0000
61.6400 230.0000 1.0000
61.6600 217.0000 1.0000
61.6800 234.0000 1.0000
61.7000 246.0000 1.0000
61.7200 239.0000 1.0000
61.7400 250.0000 1.0000
61.7600 248.0000 1.0000
61.7800 217.0000 1.0000
61.8000 235.0000 1.0000
61.8200 240.0000 1.0000
61.8400 222.0000 1.0000
61.8600 212.0000 1.0000
61.8800 221.0000 1.0000
61.9000 265.0000 1.0000
61.9200 232.0000 1.0000
61.9400 233.0000 1.0000
61.9600 224.0000 1.0000
61.9800 231.0000 1.0000
62.0000 203.0000 1.0000
62.0200 232.0000 1.0000
62.0400 250.0000 1.0000
62.0600 203.0000 1.0000
62.0800 201.0000 1.0000
62.1000 185.0000 1.0000
62.1200 208.0000 1.0000
62.1400 236.0000 1.0000
62.1600 189.0000 1.0000
62.1800 185.0000 1.0000
62.2000 205.0000 1.0000
62.2200 193.0000 1.0000
62.2400 182.0000 1.0000
62.2600 204.0000 1.0000
62.2800 214.0000 1.0000
62.3000 193.0000 1.0000
62.3200 201.0000 1.0000
62.3400 196.0000 1.0000
62.3600 166.0000 1.0000
62.3800 177.0000 1.0000
62.4000 187.0000 1.0000
62.4200 160.0000 1.0000
62.4400 175.0000 1.0000
62.4600 177.0000 1.0000
62.4800 174.0000 1.0000
62.5000 180.0000 1.0000
62.5200 183.0000 1.0000
62.5400 169.0000 1.0000
62.5600 170.0000 1.0000
62.5800 161.0000 1.0000
62.6000 157.0000 1.0000
62.6200 152.0000 1.0000
62.6400 159.0000 1.0000
62.6600 148.0000 1.0000
62.6800 165.0000 1.0000
62.7000 158.0000 1.0000
62.7200 154.0000 1.0000
62.7400 137.0000 1.0000
62.7600 180.0000 1.0000
62.7800 158.0000 1.0000
62.8000 133.0000 1.0000
62.8200 144.0000 1.0000
62.8400 151.0000 1.0000
62.8600 147.0000 1.0000
62.8800 140.0000 1.0000
62.9000 138.0000 1.0000
62.9200 154.0000 1.0000
62.9400 144.0000 1.0000
62.9600 156.0000 1.0000
62.9800 137.0000 1.0000
63.0000 137.0000 1.0000
63.0200 136.0000 1.0000
63.0400 139.0000 1.0000
63.0600 122.0000 1.0000
63.0800 131.0000 1.0000
63.1000 133.0000 1.0000
63.1200 137.0000 1.0000
63.1400 141.0000 1.0000
63.1600 147.0000 1.0000
63.1800 151.0000 1.0000
63.2000 146.0000 1.0000
63.2200 144.0000 1.0000
63.2400 129.0000 1.0000
63.2600 129.0000 1.0000
63.2800 127.0000 1.0000
63.3000 125.0000 1.0000
63.3200 139.0000 1.0000
63.3400 144.0000 1.0000
63.3600 139.0000 1.0000
63.3800 146.0000 1.0000
63.4000 152.0000 1.0000
63.4200 138.0000 1.0000
63.4400 122.0000 1.0000
63.4600 157.0000 1.0000
63.4800 151.0000 1.0000
63.5000 168.0000 1.0000
63.5200 153.0000 1.0000
63.5400 147.0000 1.0000
63.5600 156.0000 1.0000
63.5800 180.0000 1.0000
63.6000 146.0000 1.0000
63.6200 148.0000 1.0000
63.6400 145.0000 1.0000
63.6600 155.0000 1.0000
63.6800 156.0000 1.0000
63.7000 157.0000 1.0000
63.7200 185.0000 1.0000
63.7400 168.0000 1.0000
63.7600 164.0000 1.0000
63.7800 185.0000 1.0000
63.8000 178.0000 1.0000
63.8200 178.0000 1.0000
63.8400 196.0000 1.0000
63.8600 197.0000 1.0000
63.8800 194.0000 1.0000
63.9000 216.0000 1.0000
63.9200 215.0000 1.0000
63.9400 246.0000 1.0000
63.9600 264.0000 1.0000
63.9800 253.0000 1.0000
64.0000 252.0000 1.0000
64.0200 225.0000 1.0000
64.0400 221.0000 1.0000
64.0600 203.0000 1.0000
64.0800 202.0000 1.0000
64.1000 203.0000 1.0000
64.1200 183.0000 1.0000
64.1400 176.0000 1.0000
64.1600 187.0000 1.0000
64.1800 195.0000 1.0000
64.2000 183.0000 1.0000
64.2200 167.0000 1.0000
64.2400 167.0000 1.0000
64.2600 171.0000 1.0000
64.2800 159.0000 1.0000
64.3000 155.0000 1.0000
64.3200 154.0000 1.0000
64.3400 130.0000 1.0000
64.3600 122.0000 1.0000
64.3800 122.0000 1.0000
64.4000 118.0000 1.0000
64.4200 150.0000 1.0000
64.4400 127.0000 1.0000
64.4600 130.0000 1.0000
64.4800 121.0000 1.0000
64.5000 126.0000 1.0000
64.5200 126.0000 1.0000
64.5400 135.0000 1.0000
64.5600 152.0000 1.0000
64.5800 153.0000 1.0000
64.6000 126.0000 1.0000
64.6200 121.0000 1.0000
64.6400 129.0000 1.0000
64.6600 136.0000 1.0000
64.6800 134.0000 1.0000
64.7000 123.0000 1.0000
64.7200 133.0000 1.0000
64.7400 141.0000 1.0000
64.7600 141.0000 1.0000
64.7800 136.0000 1.0000
64.8000 146.0000 1.0000
64.8200 154.0000 1.0000
64.8400 122.0000 1.0000
64.8600 124.0000 1.0000
64.8800 130.0000 1.0000
64.9000 126.0000 1.0000
64.9200 136.0000 1.0000
64.9400 143.0000 1.0000
64.9600 144.0000 1.0000
64.9800 144.0000 1.0000
65.0000 144.0000 1.0000
*RAS_INT_END
*RAS_DATA_END
