*RAS_DATA_START
*RAS_HEADER_START
*CORR_POS_DB_NAME "Angle Correction ASC6 SC WITH Mono_04082019"
*CORR_POS_GONIO_RADIUS ""
*CORR_POS_NODE_INDEX01 ""
*CORR_POS_NODE_INDEX02 ""
*CORR_POS_NODE_INDEX03 ""
*CORR_POS_NODE_INDEX04 ""
*CORR_POS_NODE_INDEX05 ""
*CORR_POS_NODE_INDEX06 ""
*CORR_POS_NODE_INDEX07 ""
*CORR_POS_NODE_INDEX08 ""
*CORR_POS_NODE_INDEX09 ""
*CORR_POS_NODE_INDEX10 ""
*CORR_POS_NODE_INDEX11 ""
*CORR_POS_NODE_LABEL01 "Si(111)"
*CORR_POS_NODE_LABEL02 "Si(220)"
*CORR_POS_NODE_LABEL03 "Si(311)"
*CORR_POS_NODE_LABEL04 "Si(400)"
*CORR_POS_NODE_LABEL05 "Si(331)"
*CORR_POS_NODE_LABEL06 "Si(422)"
*CORR_POS_NODE_LABEL07 "Si(511)"
*CORR_POS_NODE_LABEL08 "Si(440)"
*CORR_POS_NODE_LABEL09 "Si(531)"
*CORR_POS_NODE_LABEL10 "Si(620)"
*CORR_POS_NODE_LABEL11 "Si(533)"
*CORR_POS_NODE_POS_CALC01 "28.377"
*CORR_POS_NODE_POS_CALC02 "47.2506"
*CORR_POS_NODE_POS_CALC03 "56.0725"
*CORR_POS_NODE_POS_CALC04 "69.0822"
*CORR_POS_NODE_POS_CALC05 "76.3294"
*CORR_POS_NODE_POS_CALC06 "87.9853"
*CORR_POS_NODE_POS_CALC07 "94.9091"
*CORR_POS_NODE_POS_CALC08 "106.668"
*CORR_POS_NODE_POS_CALC09 "114.054"
*CORR_POS_NODE_POS_CALC10 "127.511"
*CORR_POS_NODE_POS_CALC11 "136.864"
*CORR_POS_NODE_POS_MEAS01 "28.5058"
*CORR_POS_NODE_POS_MEAS02 "47.345"
*CORR_POS_NODE_POS_MEAS03 "56.1421"
*CORR_POS_NODE_POS_MEAS04 "69.1304"
*CORR_POS_NODE_POS_MEAS05 "76.366"
*CORR_POS_NODE_POS_MEAS06 "88.0213"
*CORR_POS_NODE_POS_MEAS07 "94.9406"
*CORR_POS_NODE_POS_MEAS08 "106.689"
*CORR_POS_NODE_POS_MEAS09 "114.065"
*CORR_POS_NODE_POS_MEAS10 "127.518"
*CORR_POS_NODE_POS_MEAS11 "136.869"
*CORR_POS_OPT_ATTR "集中法"
*CORR_POS_PARAM_MU ""
*CORR_POS_PARAM_PL ""
*CORR_POS_SEMODEL_TYPE "0"
*CORR_POS_STANDARD_TYPE ""
*CORR_POS_VALUE_ANALYZER "None"
*CORR_POS_VALUE_CMONO "None"
*CORR_POS_VALUE_IMONO "None"
*CORR_POS_VALUE_IS "1.250deg"
*CORR_POS_VALUE_ISL "10.0mm"
*CORR_POS_VALUE_ISOLLER "5.0deg"
*CORR_POS_VALUE_RS1 "1.250deg"
*CORR_POS_VALUE_RS2 "0.3mm"
*CORR_POS_VALUE_RSOLLER "5.0deg"
*CORR_POS_XG_FOCUS_L ""
*CORR_POS_XG_WAVE_TYPE ""
*CORR_POS_XG_WAVE_VALUE ""
*DISP_FMT_X "%.2f"
*DISP_FMT_Y "%.0f"
*DISP_FULLSCALE "4044.0000000000"
*DISP_LINE_COLOR "255.0000000000"
*DISP_LINE_STYLE "0.0000000000"
*DISP_LINE_WIDTH "0.2500000000"
*DISP_NOTE "Collected Data-38"
*DISP_OFFSET_Y "0.0000000000"
*DISP_PEAKSEARCH_UNIT_Y "CPS"
*DISP_RANGE_BOTTOM "0.0000000000"
*DISP_RANGE_LEFT "5.0000000000"
*DISP_RANGE_LOGCUTOFF "0.0100000000"
*DISP_RANGE_RIGHT "65.0000000000"
*DISP_RANGE_TOP "4044.0000000000"
*DISP_SCALE_MODE_Y "0.0000000000"
*DISP_TAB_NAME "Theta/2-Theta"
*DISP_TITLE_Y "Intensity"
*DISP_UNIT_Y "CPS"
*DISP_WINDOW_NAME "MSG_MACROENGINE"
*FILE_COMMENT " "
*FILE_MD5 ""
*FILE_MEMO " "
*FILE_OPERATOR "Administrator"
*FILE_PART_ID "MEAS_PBEA_00223"
*FILE_SAMPLE " "
*FILE_TYPE "RAS_RAW"
*FILE_USERGROUP "System Manager"
*FILE_VERSION "1.0000000000"
*HW_ATTACHMENT_ID "ATT1031"
*HW_ATTACHMENT_NAME "6サンプルチェンジャ|ASC-6"
*HW_COUNTER_ID-0 "CUT0021"
*HW_COUNTER_ID-1 "CUT0020"
*HW_COUNTER_ID-2 "CUT0020"
*HW_COUNTER_ID-3 "CMC0021"
*HW_COUNTER_NAME-0 "SC-70|SC-70"
*HW_COUNTER_NAME-1 "None|None"
*HW_COUNTER_NAME-2 "None|None"
*HW_COUNTER_NAME-3 "検出器モノクロメータ|Detector monochromator"
*HW_COUNTER_SELECT_NAME "SC-70|SC-70"
*HW_ECP_HV "671.5000000000"
*HW_ECP_HV_UNIT "V"
*HW_GONIOMETER_ID "GON0070"
*HW_GONIOMETER_NAME "MiniFlex 300/600|MiniFlex 300/600"
*HW_GONIOMETER_RADIUS-0 "79.0"
*HW_GONIOMETER_RADIUS-1 "91.5"
*HW_GONIOMETER_RADIUS-2 "150.0"
*HW_GONIOMETER_RADIUS-3 "0"
*HW_GONIOMETER_RADIUS-4 "103.4"
*HW_GONIOMETER_RADIUS-5 "150.0"
*HW_GONIOMETER_RADIUS-6 "46.6"
*HW_GONIOMETER_RADIUS-7 "160.0"
*HW_I_OPT_ID-0 "ISL0021"
*HW_I_OPT_ID-1 "ISO0021"
*HW_I_OPT_NAME-0 "発散スリット|Divergence slit"
*HW_I_OPT_NAME-1 "入射平行スリット|Incident parallel slit"
*HW_R_ATTENUATER_AUTOMODE "0"
*HW_R_OPT_ID-0 "RSS0021"
*HW_R_OPT_ID-1 "RSO0021"
*HW_R_OPT_ID-2 "RRS0021"
*HW_R_OPT_NAME-0 "散乱スリット|Scattering slit"
*HW_R_OPT_NAME-1 "受光平行スリット|Receiving soller slit"
*HW_R_OPT_NAME-2 "受光スリット|Receiving slit"
*HW_SAMPLE_HOLDER_ID "SMP0000"
*HW_SAMPLE_HOLDER_NAME "無し|None"
*HW_XG_CURRENT_MAX "15"
*HW_XG_CURRENT_MIN "2"
*HW_XG_CURRENT_RESOLUTION "1"
*HW_XG_CURRENT_UNIT "mA"
*HW_XG_FOCUS "1mm x 10mm"
*HW_XG_FOCUS_TYPE "Normal"
*HW_XG_ID "1060"
*HW_XG_NAME "300W/600W 封入管-B|300W/600W Sealed tube-B"
*HW_XG_TARGET_ATOMIC_NUMBER "29.0000000000"
*HW_XG_TARGET_NAME "Cu"
*HW_XG_TYPE "Hermetic"
*HW_XG_VOLTAGE_MAX "40"
*HW_XG_VOLTAGE_MIN "20"
*HW_XG_VOLTAGE_RESOLUTION "1"
*HW_XG_VOLTAGE_UNIT "kV"
*HW_XG_WATT_MAX "0.600"
*HW_XG_WATT_UNIT "kW"
*HW_XG_WAVE_LENGTH_ALPHA1 "1.540593"
*HW_XG_WAVE_LENGTH_ALPHA2 "1.544414"
*HW_XG_WAVE_LENGTH_BETA "1.392250"
*MEAS_COND_AXIS_NAME-0 "Theta/2-Theta"
*MEAS_COND_AXIS_NAME-1 "Spin"
*MEAS_COND_AXIS_NAME-2 "Change"
*MEAS_COND_AXIS_NAME-3 "Soller(inc.)"
*MEAS_COND_AXIS_NAME-4 "IHS"
*MEAS_COND_AXIS_NAME-5 "DS"
*MEAS_COND_AXIS_NAME-6 "SS"
*MEAS_COND_AXIS_NAME-7 "Soller(rec.)"
*MEAS_COND_AXIS_NAME-8 "RS"
*MEAS_COND_AXIS_NAME-9 "Filter"
*MEAS_COND_AXIS_NAME-10 "Monochromator"
*MEAS_COND_AXIS_NAME-11 "HV"
*MEAS_COND_AXIS_NAME-12 "PHA"
*MEAS_COND_AXIS_NAME_INTERNAL-0 "TwoThetaTheta"
*MEAS_COND_AXIS_NAME_INTERNAL-1 "Spin"
*MEAS_COND_AXIS_NAME_INTERNAL-2 "Change"
*MEAS_COND_AXIS_NAME_INTERNAL-3 "IncidentSollerSlit"
*MEAS_COND_AXIS_NAME_INTERNAL-4 "IncidentAxdSlit"
*MEAS_COND_AXIS_NAME_INTERNAL-5 "IncidentSlitBox"
*MEAS_COND_AXIS_NAME_INTERNAL-6 "ReceivingSlitBox1"
*MEAS_COND_AXIS_NAME_INTERNAL-7 "ReceivingSollerSlit"
*MEAS_COND_AXIS_NAME_INTERNAL-8 "ReceivingSlitBox2"
*MEAS_COND_AXIS_NAME_INTERNAL-9 "Filter"
*MEAS_COND_AXIS_NAME_INTERNAL-10 "CounterMonochromator"
*MEAS_COND_AXIS_NAME_INTERNAL-11 "HV"
*MEAS_COND_AXIS_NAME_INTERNAL-12 "PHA"
*MEAS_COND_AXIS_NAME_MAGICNO-0 "268632064.0000000000"
*MEAS_COND_AXIS_NAME_MAGICNO-1 "16842752.0000000000"
*MEAS_COND_AXIS_NAME_MAGICNO-2 "16842752.0000000000"
*MEAS_COND_AXIS_NAME_MAGICNO-3 "20971521.0000000000"
*MEAS_COND_AXIS_NAME_MAGICNO-4 "22020097.0000000000"
*MEAS_COND_AXIS_NAME_MAGICNO-5 "22020097.0000000000"
*MEAS_COND_AXIS_NAME_MAGICNO-6 "23068673.0000000000"
*MEAS_COND_AXIS_NAME_MAGICNO-7 "20971521.0000000000"
*MEAS_COND_AXIS_NAME_MAGICNO-8 "23068673.0000000000"
*MEAS_COND_AXIS_NAME_MAGICNO-9 "20971521.0000000000"
*MEAS_COND_AXIS_NAME_MAGICNO-10 "20971521.0000000000"
*MEAS_COND_AXIS_NAME_MAGICNO-11 "0.0000000000"
*MEAS_COND_AXIS_NAME_MAGICNO-12 "0.0000000000"
*MEAS_COND_AXIS_OFFSET-0 "0.0000000000"
*MEAS_COND_AXIS_OFFSET-1 "-"
*MEAS_COND_AXIS_OFFSET-2 "-"
*MEAS_COND_AXIS_OFFSET-3 "-"
*MEAS_COND_AXIS_OFFSET-4 "-"
*MEAS_COND_AXIS_OFFSET-5 "-"
*MEAS_COND_AXIS_OFFSET-6 "-"
*MEAS_COND_AXIS_OFFSET-7 "-"
*MEAS_COND_AXIS_OFFSET-8 "-"
*MEAS_COND_AXIS_OFFSET-9 "-"
*MEAS_COND_AXIS_OFFSET-10 "-"
*MEAS_COND_AXIS_OFFSET-11 "-"
*MEAS_COND_AXIS_OFFSET-12 "-"
*MEAS_COND_AXIS_POSITION-0 "65.0000000000"
*MEAS_COND_AXIS_POSITION-1 "0.0000000000"
*MEAS_COND_AXIS_POSITION-2 "6.0000000000"
*MEAS_COND_AXIS_POSITION-3 "5.0deg"
*MEAS_COND_AXIS_POSITION-4 "10.0mm"
*MEAS_COND_AXIS_POSITION-5 "1.250deg"
*MEAS_COND_AXIS_POSITION-6 "1.250deg"
*MEAS_COND_AXIS_POSITION-7 "5.0deg"
*MEAS_COND_AXIS_POSITION-8 "0.3mm"
*MEAS_COND_AXIS_POSITION-9 "None"
*MEAS_COND_AXIS_POSITION-10 "Bent"
*MEAS_COND_AXIS_POSITION-11 "671.5000000000"
*MEAS_COND_AXIS_POSITION-12 "551.2500000000"
*MEAS_COND_AXIS_UNIT-0 "deg"
*MEAS_COND_AXIS_UNIT-1 ""
*MEAS_COND_AXIS_UNIT-2 ""
*MEAS_COND_AXIS_UNIT-3 ""
*MEAS_COND_AXIS_UNIT-4 ""
*MEAS_COND_AXIS_UNIT-5 ""
*MEAS_COND_AXIS_UNIT-6 ""
*MEAS_COND_AXIS_UNIT-7 ""
*MEAS_COND_AXIS_UNIT-8 ""
*MEAS_COND_AXIS_UNIT-9 ""
*MEAS_COND_AXIS_UNIT-10 ""
*MEAS_COND_AXIS_UNIT-11 "V"
*MEAS_COND_AXIS_UNIT-12 "mV"
*MEAS_COND_CORRECTION_SLIT_COUNTERMONO "None"
*MEAS_COND_CORRECTION_SLIT_DS "1.250deg"
*MEAS_COND_CORRECTION_SLIT_FILTER "None"
*MEAS_COND_CORRECTION_SLIT_IHS "10.0mm"
*MEAS_COND_CORRECTION_SLIT_RS "0.3mm"
*MEAS_COND_CORRECTION_SLIT_SOLLER_INC "5.0deg"
*MEAS_COND_CORRECTION_SLIT_SOLLER_REC "5.0deg"
*MEAS_COND_CORRECTION_SLIT_SS "1.250deg"
*MEAS_COND_COUNTER_CNTLOSS_CORR "0.0000000000"
*MEAS_COND_COUNTER_PHABASE "551.2500000000"
*MEAS_COND_COUNTER_PHAWINDOW "926.2500000000"
*MEAS_COND_COUNTER_PHA_UNIT "mV"
*MEAS_COND_COUNTER_TAUDIFF "0.2500000000"
*MEAS_COND_COUNTER_TAUINT "0.7500000000"
*MEAS_COND_IRRADIATION_MODE "OFF"
*MEAS_COND_IRRADIATION_WIDTH ""
*MEAS_COND_OPT_ATTR " "
*MEAS_COND_OPT_NAME ""
*MEAS_COND_UNSYMMETRIC_MODE "OFF"
*MEAS_COND_XG_CURRENT "15.0000000000"
*MEAS_COND_XG_VOLTAGE "40.0000000000"
*MEAS_COND_XG_WAVE_TYPE "Ka"
*MEAS_DATA_COUNT "3001.0000000000"
*MEAS_SCAN_AXIS_X "Theta/2-Theta"
*MEAS_SCAN_AXIS_X_INTERNAL "TwoThetaTheta"
*MEAS_SCAN_END_TIME "05/10/25 03:02:32"
*MEAS_SCAN_MODE "STEP"
*MEAS_SCAN_MONITOR "0"
*MEAS_SCAN_RESOLUTION_X "0.0025"
*MEAS_SCAN_SPEED "2.00"
*MEAS_SCAN_SPEED_UNIT "sec."
*MEAS_SCAN_SPEED_USER "2.00"
*MEAS_SCAN_START "5.0000000000"
*MEAS_SCAN_START_TIME "05/10/25 01:17:15"
*MEAS_SCAN_STEP "0.0200000000"
*MEAS_SCAN_STOP "65.0000000000"
*MEAS_SCAN_UNIT_X "deg"
*MEAS_SCAN_UNIT_Y "counts"
*SLIT_SYSTEM "0"
*RAS_HEADER_END
*RAS_INT_START
5.0000 1217.0000 1.0000
5.0200 1187.0000 1.0000
5.0400 1141.0000 1.0000
5.0600 1244.0000 1.0000
5.0800 1151.0000 1.0000
5.1000 1183.0000 1.0000
5.1200 1163.0000 1.0000
5.1400 1206.0000 1.0000
5.1600 1122.0000 1.0000
5.1800 1157.0000 1.0000
5.2000 1113.0000 1.0000
5.2200 1180.0000 1.0000
5.2400 1123.0000 1.0000
5.2600 1093.0000 1.0000
5.2800 1132.0000 1.0000
5.3000 1103.0000 1.0000
5.3200 1200.0000 1.0000
5.3400 1091.0000 1.0000
5.3600 1167.0000 1.0000
5.3800 1149.0000 1.0000
5.4000 965.0000 1.0000
5.4200 1020.0000 1.0000
5.4400 1002.0000 1.0000
5.4600 937.0000 1.0000
5.4800 1019.0000 1.0000
5.5000 1042.0000 1.0000
5.5200 1099.0000 1.0000
5.5400 1129.0000 1.0000
5.5600 1169.0000 1.0000
5.5800 1064.0000 1.0000
5.6000 934.0000 1.0000
5.6200 964.0000 1.0000
5.6400 997.0000 1.0000
5.6600 1043.0000 1.0000
5.6800 993.0000 1.0000
5.7000 934.0000 1.0000
5.7200 865.0000 1.0000
5.7400 888.0000 1.0000
5.7600 999.0000 1.0000
5.7800 1018.0000 1.0000
5.8000 1014.0000 1.0000
5.8200 940.0000 1.0000
5.8400 979.0000 1.0000
5.8600 994.0000 1.0000
5.8800 946.0000 1.0000
5.9000 962.0000 1.0000
5.9200 1016.0000 1.0000
5.9400 1009.0000 1.0000
5.9600 1015.0000 1.0000
5.9800 1031.0000 1.0000
6.0000 1008.0000 1.0000
6.0200 931.0000 1.0000
6.0400 934.0000 1.0000
6.0600 940.0000 1.0000
6.0800 888.0000 1.0000
6.1000 885.0000 1.0000
6.1200 885.0000 1.0000
6.1400 888.0000 1.0000
6.1600 858.0000 1.0000
6.1800 795.0000 1.0000
6.2000 868.0000 1.0000
6.2200 811.0000 1.0000
6.2400 760.0000 1.0000
6.2600 779.0000 1.0000
6.2800 761.0000 1.0000
6.3000 842.0000 1.0000
6.3200 810.0000 1.0000
6.3400 778.0000 1.0000
6.3600 810.0000 1.0000
6.3800 805.0000 1.0000
6.4000 779.0000 1.0000
6.4200 759.0000 1.0000
6.4400 722.0000 1.0000
6.4600 711.0000 1.0000
6.4800 755.0000 1.0000
6.5000 816.0000 1.0000
6.5200 762.0000 1.0000
6.5400 660.0000 1.0000
6.5600 706.0000 1.0000
6.5800 766.0000 1.0000
6.6000 753.0000 1.0000
6.6200 691.0000 1.0000
6.6400 678.0000 1.0000
6.6600 665.0000 1.0000
6.6800 688.0000 1.0000
6.7000 705.0000 1.0000
6.7200 689.0000 1.0000
6.7400 709.0000 1.0000
6.7600 721.0000 1.0000
6.7800 656.0000 1.0000
6.8000 662.0000 1.0000
6.8200 663.0000 1.0000
6.8400 653.0000 1.0000
6.8600 667.0000 1.0000
6.8800 690.0000 1.0000
6.9000 674.0000 1.0000
6.9200 664.0000 1.0000
6.9400 681.0000 1.0000
6.9600 660.0000 1.0000
6.9800 645.0000 1.0000
7.0000 654.0000 1.0000
7.0200 623.0000 1.0000
7.0400 597.0000 1.0000
7.0600 656.0000 1.0000
7.0800 691.0000 1.0000
7.1000 645.0000 1.0000
7.1200 611.0000 1.0000
7.1400 651.0000 1.0000
7.1600 642.0000 1.0000
7.1800 627.0000 1.0000
7.2000 630.0000 1.0000
7.2200 611.0000 1.0000
7.2400 617.0000 1.0000
7.2600 597.0000 1.0000
7.2800 624.0000 1.0000
7.3000 601.0000 1.0000
7.3200 582.0000 1.0000
7.3400 606.0000 1.0000
7.3600 617.0000 1.0000
7.3800 600.0000 1.0000
7.4000 573.0000 1.0000
7.4200 604.0000 1.0000
7.4400 620.0000 1.0000
7.4600 649.0000 1.0000
7.4800 572.0000 1.0000
7.5000 550.0000 1.0000
7.5200 606.0000 1.0000
7.5400 572.0000 1.0000
7.5600 566.0000 1.0000
7.5800 574.0000 1.0000
7.6000 570.0000 1.0000
7.6200 581.0000 1.0000
7.6400 589.0000 1.0000
7.6600 607.0000 1.0000
7.6800 576.0000 1.0000
7.7000 577.0000 1.0000
7.7200 530.0000 1.0000
7.7400 533.0000 1.0000
7.7600 563.0000 1.0000
7.7800 600.0000 1.0000
7.8000 599.0000 1.0000
7.8200 569.0000 1.0000
7.8400 598.0000 1.0000
7.8600 611.0000 1.0000
7.8800 581.0000 1.0000
7.9000 575.0000 1.0000
7.9200 561.0000 1.0000
7.9400 548.0000 1.0000
7.9600 556.0000 1.0000
7.9800 569.0000 1.0000
8.0000 560.0000 1.0000
8.0200 585.0000 1.0000
8.0400 553.0000 1.0000
8.0600 554.0000 1.0000
8.0800 573.0000 1.0000
8.1000 609.0000 1.0000
8.1200 561.0000 1.0000
8.1400 592.0000 1.0000
8.1600 611.0000 1.0000
8.1800 571.0000 1.0000
8.2000 581.0000 1.0000
8.2200 611.0000 1.0000
8.2400 614.0000 1.0000
8.2600 645.0000 1.0000
8.2800 616.0000 1.0000
8.3000 653.0000 1.0000
8.3200 656.0000 1.0000
8.3400 630.0000 1.0000
8.3600 630.0000 1.0000
8.3800 620.0000 1.0000
8.4000 578.0000 1.0000
8.4200 644.0000 1.0000
8.4400 633.0000 1.0000
8.4600 689.0000 1.0000
8.4800 709.0000 1.0000
8.5000 692.0000 1.0000
8.5200 754.0000 1.0000
8.5400 689.0000 1.0000
8.5600 709.0000 1.0000
8.5800 756.0000 1.0000
8.6000 791.0000 1.0000
8.6200 832.0000 1.0000
8.6400 885.0000 1.0000
8.6600 829.0000 1.0000
8.6800 835.0000 1.0000
8.7000 816.0000 1.0000
8.7200 767.0000 1.0000
8.7400 644.0000 1.0000
8.7600 653.0000 1.0000
8.7800 602.0000 1.0000
8.8000 529.0000 1.0000
8.8200 557.0000 1.0000
8.8400 484.0000 1.0000
8.8600 496.0000 1.0000
8.8800 473.0000 1.0000
8.9000 491.0000 1.0000
8.9200 501.0000 1.0000
8.9400 495.0000 1.0000
8.9600 434.0000 1.0000
8.9800 454.0000 1.0000
9.0000 461.0000 1.0000
9.0200 441.0000 1.0000
9.0400 482.0000 1.0000
9.0600 489.0000 1.0000
9.0800 515.0000 1.0000
9.1000 517.0000 1.0000
9.1200 516.0000 1.0000
9.1400 527.0000 1.0000
9.1600 522.0000 1.0000
9.1800 513.0000 1.0000
9.2000 473.0000 1.0000
9.2200 486.0000 1.0000
9.2400 441.0000 1.0000
9.2600 424.0000 1.0000
9.2800 373.0000 1.0000
9.3000 366.0000 1.0000
9.3200 351.0000 1.0000
9.3400 340.0000 1.0000
9.3600 331.0000 1.0000
9.3800 367.0000 1.0000
9.4000 386.0000 1.0000
9.4200 401.0000 1.0000
9.4400 416.0000 1.0000
9.4600 399.0000 1.0000
9.4800 331.0000 1.0000
9.5000 362.0000 1.0000
9.5200 347.0000 1.0000
9.5400 370.0000 1.0000
9.5600 352.0000 1.0000
9.5800 314.0000 1.0000
9.6000 343.0000 1.0000
9.6200 330.0000 1.0000
9.6400 295.0000 1.0000
9.6600 304.0000 1.0000
9.6800 293.0000 1.0000
9.7000 291.0000 1.0000
9.7200 333.0000 1.0000
9.7400 345.0000 1.0000
9.7600 304.0000 1.0000
9.7800 281.0000 1.0000
9.8000 296.0000 1.0000
9.8200 268.0000 1.0000
9.8400 262.0000 1.0000
9.8600 281.0000 1.0000
9.8800 242.0000 1.0000
9.9000 289.0000 1.0000
9.9200 315.0000 1.0000
9.9400 293.0000 1.0000
9.9600 276.0000 1.0000
9.9800 268.0000 1.0000
10.0000 295.0000 1.0000
10.0200 285.0000 1.0000
10.0400 229.0000 1.0000
10.0600 238.0000 1.0000
10.0800 265.0000 1.0000
10.1000 246.0000 1.0000
10.1200 222.0000 1.0000
10.1400 275.0000 1.0000
10.1600 258.0000 1.0000
10.1800 266.0000 1.0000
10.2000 258.0000 1.0000
10.2200 282.0000 1.0000
10.2400 241.0000 1.0000
10.2600 277.0000 1.0000
10.2800 284.0000 1.0000
10.3000 234.0000 1.0000
10.3200 248.0000 1.0000
10.3400 226.0000 1.0000
10.3600 242.0000 1.0000
10.3800 245.0000 1.0000
10.4000 250.0000 1.0000
10.4200 253.0000 1.0000
10.4400 224.0000 1.0000
10.4600 270.0000 1.0000
10.4800 243.0000 1.0000
10.5000 223.0000 1.0000
10.5200 258.0000 1.0000
10.5400 247.0000 1.0000
10.5600 257.0000 1.0000
10.5800 267.0000 1.0000
10.6000 272.0000 1.0000
10.6200 266.0000 1.0000
10.6400 269.0000 1.0000
10.6600 221.0000 1.0000
10.6800 249.0000 1.0000
10.7000 243.0000 1.0000
10.7200 269.0000 1.0000
10.7400 225.0000 1.0000
10.7600 242.0000 1.0000
10.7800 269.0000 1.0000
10.8000 251.0000 1.0000
10.8200 254.0000 1.0000
10.8400 228.0000 1.0000
10.8600 213.0000 1.0000
10.8800 282.0000 1.0000
10.9000 218.0000 1.0000
10.9200 243.0000 1.0000
10.9400 215.0000 1.0000
10.9600 252.0000 1.0000
10.9800 235.0000 1.0000
11.0000 212.0000 1.0000
11.0200 238.0000 1.0000
11.0400 242.0000 1.0000
11.0600 225.0000 1.0000
11.0800 228.0000 1.0000
11.1000 226.0000 1.0000
11.1200 266.0000 1.0000
11.1400 223.0000 1.0000
11.1600 266.0000 1.0000
11.1800 242.0000 1.0000
11.2000 234.0000 1.0000
11.2200 223.0000 1.0000
11.2400 198.0000 1.0000
11.2600 199.0000 1.0000
11.2800 217.0000 1.0000
11.3000 250.0000 1.0000
11.3200 203.0000 1.0000
11.3400 209.0000 1.0000
11.3600 235.0000 1.0000
11.3800 245.0000 1.0000
11.4000 230.0000 1.0000
11.4200 236.0000 1.0000
11.4400 229.0000 1.0000
11.4600 243.0000 1.0000
11.4800 243.0000 1.0000
11.5000 213.0000 1.0000
11.5200 255.0000 1.0000
11.5400 228.0000 1.0000
11.5600 230.0000 1.0000
11.5800 231.0000 1.0000
11.6000 232.0000 1.0000
11.6200 220.0000 1.0000
11.6400 225.0000 1.0000
11.6600 217.0000 1.0000
11.6800 218.0000 1.0000
11.7000 211.0000 1.0000
11.7200 223.0000 1.0000
11.7400 209.0000 1.0000
11.7600 227.0000 1.0000
11.7800 257.0000 1.0000
11.8000 252.0000 1.0000
11.8200 228.0000 1.0000
11.8400 257.0000 1.0000
11.8600 229.0000 1.0000
11.8800 224.0000 1.0000
11.9000 228.0000 1.0000
11.9200 273.0000 1.0000
11.9400 238.0000 1.0000
11.9600 236.0000 1.0000
11.9800 242.0000 1.0000
12.0000 257.0000 1.0000
12.0200 252.0000 1.0000
12.0400 231.0000 1.0000
12.0600 271.0000 1.0000
12.0800 271.0000 1.0000
12.1000 278.0000 1.0000
12.1200 279.0000 1.0000
12.1400 279.0000 1.0000
12.1600 295.0000 1.0000
12.1800 289.0000 1.0000
12.2000 296.0000 1.0000
12.2200 315.0000 1.0000
12.2400 322.0000 1.0000
12.2600 325.0000 1.0000
12.2800 312.0000 1.0000
12.3000 347.0000 1.0000
12.3200 349.0000 1.0000
12.3400 330.0000 1.0000
12.3600 304.0000 1.0000
12.3800 273.0000 1.0000
12.4000 281.0000 1.0000
12.4200 235.0000 1.0000
12.4400 226.0000 1.0000
12.4600 243.0000 1.0000
12.4800 208.0000 1.0000
12.5000 221.0000 1.0000
12.5200 215.0000 1.0000
12.5400 224.0000 1.0000
12.5600 225.0000 1.0000
12.5800 228.0000 1.0000
12.6000 226.0000 1.0000
12.6200 216.0000 1.0000
12.6400 223.0000 1.0000
12.6600 251.0000 1.0000
12.6800 255.0000 1.0000
12.7000 243.0000 1.0000
12.7200 206.0000 1.0000
12.7400 258.0000 1.0000
12.7600 251.0000 1.0000
12.7800 253.0000 1.0000
12.8000 238.0000 1.0000
12.8200 213.0000 1.0000
12.8400 221.0000 1.0000
12.8600 215.0000 1.0000
12.8800 170.0000 1.0000
12.9000 170.0000 1.0000
12.9200 185.0000 1.0000
12.9400 178.0000 1.0000
12.9600 154.0000 1.0000
12.9800 176.0000 1.0000
13.0000 176.0000 1.0000
13.0200 184.0000 1.0000
13.0400 169.0000 1.0000
13.0600 165.0000 1.0000
13.0800 193.0000 1.0000
13.1000 184.0000 1.0000
13.1200 184.0000 1.0000
13.1400 179.0000 1.0000
13.1600 175.0000 1.0000
13.1800 186.0000 1.0000
13.2000 186.0000 1.0000
13.2200 151.0000 1.0000
13.2400 163.0000 1.0000
13.2600 185.0000 1.0000
13.2800 203.0000 1.0000
13.3000 179.0000 1.0000
13.3200 164.0000 1.0000
13.3400 191.0000 1.0000
13.3600 206.0000 1.0000
13.3800 210.0000 1.0000
13.4000 197.0000 1.0000
13.4200 231.0000 1.0000
13.4400 231.0000 1.0000
13.4600 206.0000 1.0000
13.4800 222.0000 1.0000
13.5000 237.0000 1.0000
13.5200 241.0000 1.0000
13.5400 224.0000 1.0000
13.5600 210.0000 1.0000
13.5800 238.0000 1.0000
13.6000 253.0000 1.0000
13.6200 251.0000 1.0000
13.6400 252.0000 1.0000
13.6600 260.0000 1.0000
13.6800 271.0000 1.0000
13.7000 299.0000 1.0000
13.7200 280.0000 1.0000
13.7400 218.0000 1.0000
13.7600 208.0000 1.0000
13.7800 210.0000 1.0000
13.8000 205.0000 1.0000
13.8200 198.0000 1.0000
13.8400 170.0000 1.0000
13.8600 166.0000 1.0000
13.8800 170.0000 1.0000
13.9000 164.0000 1.0000
13.9200 167.0000 1.0000
13.9400 164.0000 1.0000
13.9600 160.0000 1.0000
13.9800 147.0000 1.0000
14.0000 144.0000 1.0000
14.0200 160.0000 1.0000
14.0400 165.0000 1.0000
14.0600 164.0000 1.0000
14.0800 165.0000 1.0000
14.1000 158.0000 1.0000
14.1200 151.0000 1.0000
14.1400 164.0000 1.0000
14.1600 182.0000 1.0000
14.1800 156.0000 1.0000
14.2000 142.0000 1.0000
14.2200 142.0000 1.0000
14.2400 172.0000 1.0000
14.2600 177.0000 1.0000
14.2800 173.0000 1.0000
14.3000 185.0000 1.0000
14.3200 170.0000 1.0000
14.3400 142.0000 1.0000
14.3600 130.0000 1.0000
14.3800 141.0000 1.0000
14.4000 148.0000 1.0000
14.4200 160.0000 1.0000
14.4400 170.0000 1.0000
14.4600 171.0000 1.0000
14.4800 150.0000 1.0000
14.5000 145.0000 1.0000
14.5200 151.0000 1.0000
14.5400 160.0000 1.0000
14.5600 157.0000 1.0000
14.5800 150.0000 1.0000
14.6000 153.0000 1.0000
14.6200 159.0000 1.0000
14.6400 155.0000 1.0000
14.6600 156.0000 1.0000
14.6800 164.0000 1.0000
14.7000 162.0000 1.0000
14.7200 158.0000 1.0000
14.7400 168.0000 1.0000
14.7600 170.0000 1.0000
14.7800 184.0000 1.0000
14.8000 190.0000 1.0000
14.8200 181.0000 1.0000
14.8400 170.0000 1.0000
14.8600 154.0000 1.0000
14.8800 156.0000 1.0000
14.9000 186.0000 1.0000
14.9200 193.0000 1.0000
14.9400 180.0000 1.0000
14.9600 163.0000 1.0000
14.9800 156.0000 1.0000
15.0000 154.0000 1.0000
15.0200 156.0000 1.0000
15.0400 151.0000 1.0000
15.0600 143.0000 1.0000
15.0800 154.0000 1.0000
15.1000 146.0000 1.0000
15.1200 142.0000 1.0000
15.1400 143.0000 1.0000
15.1600 138.0000 1.0000
15.1800 139.0000 1.0000
15.2000 142.0000 1.0000
15.2200 140.0000 1.0000
15.2400 128.0000 1.0000
15.2600 117.0000 1.0000
15.2800 119.0000 1.0000
15.3000 136.0000 1.0000
15.3200 148.0000 1.0000
15.3400 143.0000 1.0000
15.3600 135.0000 1.0000
15.3800 144.0000 1.0000
15.4000 137.0000 1.0000
15.4200 123.0000 1.0000
15.4400 132.0000 1.0000
15.4600 148.0000 1.0000
15.4800 158.0000 1.0000
15.5000 153.0000 1.0000
15.5200 138.0000 1.0000
15.5400 155.0000 1.0000
15.5600 170.0000 1.0000
15.5800 156.0000 1.0000
15.6000 143.0000 1.0000
15.6200 137.0000 1.0000
15.6400 152.0000 1.0000
15.6600 169.0000 1.0000
15.6800 164.0000 1.0000
15.7000 141.0000 1.0000
15.7200 138.0000 1.0000
15.7400 152.0000 1.0000
15.7600 153.0000 1.0000
15.7800 153.0000 1.0000
15.8000 140.0000 1.0000
15.8200 134.0000 1.0000
15.8400 134.0000 1.0000
15.8600 130.0000 1.0000
15.8800 134.0000 1.0000
15.9000 150.0000 1.0000
15.9200 155.0000 1.0000
15.9400 145.0000 1.0000
15.9600 136.0000 1.0000
15.9800 134.0000 1.0000
16.0000 135.0000 1.0000
16.0200 133.0000 1.0000
16.0400 133.0000 1.0000
16.0600 131.0000 1.0000
16.0800 126.0000 1.0000
16.1000 113.0000 1.0000
16.1200 127.0000 1.0000
16.1400 131.0000 1.0000
16.1600 132.0000 1.0000
16.1800 138.0000 1.0000
16.2000 135.0000 1.0000
16.2200 130.0000 1.0000
16.2400 129.0000 1.0000
16.2600 136.0000 1.0000
16.2800 139.0000 1.0000
16.3000 130.0000 1.0000
16.3200 121.0000 1.0000
16.3400 140.0000 1.0000
16.3600 139.0000 1.0000
16.3800 132.0000 1.0000
16.4000 122.0000 1.0000
16.4200 133.0000 1.0000
16.4400 139.0000 1.0000
16.4600 132.0000 1.0000
16.4800 143.0000 1.0000
16.5000 136.0000 1.0000
16.5200 130.0000 1.0000
16.5400 135.0000 1.0000
16.5600 131.0000 1.0000
16.5800 137.0000 1.0000
16.6000 139.0000 1.0000
16.6200 138.0000 1.0000
16.6400 127.0000 1.0000
16.6600 132.0000 1.0000
16.6800 126.0000 1.0000
16.7000 132.0000 1.0000
16.7200 146.0000 1.0000
16.7400 149.0000 1.0000
16.7600 141.0000 1.0000
16.7800 136.0000 1.0000
16.8000 122.0000 1.0000
16.8200 125.0000 1.0000
16.8400 131.0000 1.0000
16.8600 142.0000 1.0000
16.8800 142.0000 1.0000
16.9000 146.0000 1.0000
16.9200 143.0000 1.0000
16.9400 142.0000 1.0000
16.9600 157.0000 1.0000
16.9800 146.0000 1.0000
17.0000 139.0000 1.0000
17.0200 149.0000 1.0000
17.0400 153.0000 1.0000
17.0600 159.0000 1.0000
17.0800 158.0000 1.0000
17.1000 156.0000 1.0000
17.1200 146.0000 1.0000
17.1400 149.0000 1.0000
17.1600 153.0000 1.0000
17.1800 157.0000 1.0000
17.2000 157.0000 1.0000
17.2200 182.0000 1.0000
17.2400 176.0000 1.0000
17.2600 177.0000 1.0000
17.2800 178.0000 1.0000
17.3000 174.0000 1.0000
17.3200 173.0000 1.0000
17.3400 186.0000 1.0000
17.3600 187.0000 1.0000
17.3800 190.0000 1.0000
17.4000 205.0000 1.0000
17.4200 202.0000 1.0000
17.4400 204.0000 1.0000
17.4600 221.0000 1.0000
17.4800 211.0000 1.0000
17.5000 203.0000 1.0000
17.5200 193.0000 1.0000
17.5400 224.0000 1.0000
17.5600 219.0000 1.0000
17.5800 221.0000 1.0000
17.6000 226.0000 1.0000
17.6200 198.0000 1.0000
17.6400 176.0000 1.0000
17.6600 182.0000 1.0000
17.6800 167.0000 1.0000
17.7000 158.0000 1.0000
17.7200 169.0000 1.0000
17.7400 165.0000 1.0000
17.7600 158.0000 1.0000
17.7800 150.0000 1.0000
17.8000 149.0000 1.0000
17.8200 136.0000 1.0000
17.8400 146.0000 1.0000
17.8600 168.0000 1.0000
17.8800 179.0000 1.0000
17.9000 171.0000 1.0000
17.9200 158.0000 1.0000
17.9400 165.0000 1.0000
17.9600 147.0000 1.0000
17.9800 142.0000 1.0000
18.0000 155.0000 1.0000
18.0200 146.0000 1.0000
18.0400 164.0000 1.0000
18.0600 157.0000 1.0000
18.0800 165.0000 1.0000
18.1000 136.0000 1.0000
18.1200 144.0000 1.0000
18.1400 150.0000 1.0000
18.1600 144.0000 1.0000
18.1800 156.0000 1.0000
18.2000 156.0000 1.0000
18.2200 158.0000 1.0000
18.2400 135.0000 1.0000
18.2600 162.0000 1.0000
18.2800 159.0000 1.0000
18.3000 151.0000 1.0000
18.3200 162.0000 1.0000
18.3400 153.0000 1.0000
18.3600 155.0000 1.0000
18.3800 153.0000 1.0000
18.4000 152.0000 1.0000
18.4200 156.0000 1.0000
18.4400 157.0000 1.0000
18.4600 157.0000 1.0000
18.4800 181.0000 1.0000
18.5000 170.0000 1.0000
18.5200 166.0000 1.0000
18.5400 188.0000 1.0000
18.5600 189.0000 1.0000
18.5800 192.0000 1.0000
18.6000 209.0000 1.0000
18.6200 178.0000 1.0000
18.6400 187.0000 1.0000
18.6600 190.0000 1.0000
18.6800 198.0000 1.0000
18.7000 211.0000 1.0000
18.7200 188.0000 1.0000
18.7400 217.0000 1.0000
18.7600 188.0000 1.0000
18.7800 200.0000 1.0000
18.8000 195.0000 1.0000
18.8200 192.0000 1.0000
18.8400 191.0000 1.0000
18.8600 191.0000 1.0000
18.8800 189.0000 1.0000
18.9000 205.0000 1.0000
18.9200 183.0000 1.0000
18.9400 188.0000 1.0000
18.9600 185.0000 1.0000
18.9800 192.0000 1.0000
19.0000 199.0000 1.0000
19.0200 219.0000 1.0000
19.0400 209.0000 1.0000
19.0600 215.0000 1.0000
19.0800 231.0000 1.0000
19.1000 237.0000 1.0000
19.1200 233.0000 1.0000
19.1400 227.0000 1.0000
19.1600 225.0000 1.0000
19.1800 243.0000 1.0000
19.2000 220.0000 1.0000
19.2200 213.0000 1.0000
19.2400 234.0000 1.0000
19.2600 202.0000 1.0000
19.2800 248.0000 1.0000
19.3000 259.0000 1.0000
19.3200 248.0000 1.0000
19.3400 254.0000 1.0000
19.3600 282.0000 1.0000
19.3800 330.0000 1.0000
19.4000 288.0000 1.0000
19.4200 322.0000 1.0000
19.4400 330.0000 1.0000
19.4600 366.0000 1.0000
19.4800 393.0000 1.0000
19.5000 429.0000 1.0000
19.5200 457.0000 1.0000
19.5400 480.0000 1.0000
19.5600 499.0000 1.0000
19.5800 547.0000 1.0000
19.6000 550.0000 1.0000
19.6200 509.0000 1.0000
19.6400 493.0000 1.0000
19.6600 508.0000 1.0000
19.6800 512.0000 1.0000
19.7000 488.0000 1.0000
19.7200 474.0000 1.0000
19.7400 442.0000 1.0000
19.7600 451.0000 1.0000
19.7800 394.0000 1.0000
19.8000 401.0000 1.0000
19.8200 380.0000 1.0000
19.8400 391.0000 1.0000
19.8600 364.0000 1.0000
19.8800 347.0000 1.0000
19.9000 339.0000 1.0000
19.9200 350.0000 1.0000
19.9400 325.0000 1.0000
19.9600 271.0000 1.0000
19.9800 297.0000 1.0000
20.0000 295.0000 1.0000
20.0200 267.0000 1.0000
20.0400 261.0000 1.0000
20.0600 288.0000 1.0000
20.0800 267.0000 1.0000
20.1000 276.0000 1.0000
20.1200 261.0000 1.0000
20.1400 294.0000 1.0000
20.1600 290.0000 1.0000
20.1800 295.0000 1.0000
20.2000 287.0000 1.0000
20.2200 271.0000 1.0000
20.2400 272.0000 1.0000
20.2600 269.0000 1.0000
20.2800 311.0000 1.0000
20.3000 339.0000 1.0000
20.3200 339.0000 1.0000
20.3400 356.0000 1.0000
20.3600 308.0000 1.0000
20.3800 372.0000 1.0000
20.4000 363.0000 1.0000
20.4200 342.0000 1.0000
20.4400 370.0000 1.0000
20.4600 378.0000 1.0000
20.4800 443.0000 1.0000
20.5000 427.0000 1.0000
20.5200 521.0000 1.0000
20.5400 555.0000 1.0000
20.5600 619.0000 1.0000
20.5800 719.0000 1.0000
20.6000 834.0000 1.0000
20.6200 971.0000 1.0000
20.6400 1243.0000 1.0000
20.6600 1372.0000 1.0000
20.6800 1533.0000 1.0000
20.7000 1605.0000 1.0000
20.7200 1496.0000 1.0000
20.7400 1264.0000 1.0000
20.7600 1067.0000 1.0000
20.7800 865.0000 1.0000
20.8000 667.0000 1.0000
20.8200 548.0000 1.0000
20.8400 451.0000 1.0000
20.8600 403.0000 1.0000
20.8800 415.0000 1.0000
20.9000 350.0000 1.0000
20.9200 333.0000 1.0000
20.9400 324.0000 1.0000
20.9600 323.0000 1.0000
20.9800 320.0000 1.0000
21.0000 280.0000 1.0000
21.0200 264.0000 1.0000
21.0400 260.0000 1.0000
21.0600 274.0000 1.0000
21.0800 283.0000 1.0000
21.1000 273.0000 1.0000
21.1200 290.0000 1.0000
21.1400 302.0000 1.0000
21.1600 279.0000 1.0000
21.1800 296.0000 1.0000
21.2000 321.0000 1.0000
21.2200 313.0000 1.0000
21.2400 280.0000 1.0000
21.2600 246.0000 1.0000
21.2800 280.0000 1.0000
21.3000 247.0000 1.0000
21.3200 238.0000 1.0000
21.3400 258.0000 1.0000
21.3600 215.0000 1.0000
21.3800 252.0000 1.0000
21.4000 221.0000 1.0000
21.4200 232.0000 1.0000
21.4400 229.0000 1.0000
21.4600 236.0000 1.0000
21.4800 230.0000 1.0000
21.5000 243.0000 1.0000
21.5200 266.0000 1.0000
21.5400 257.0000 1.0000
21.5600 239.0000 1.0000
21.5800 255.0000 1.0000
21.6000 258.0000 1.0000
21.6200 281.0000 1.0000
21.6400 309.0000 1.0000
21.6600 319.0000 1.0000
21.6800 354.0000 1.0000
21.7000 377.0000 1.0000
21.7200 428.0000 1.0000
21.7400 470.0000 1.0000
21.7600 525.0000 1.0000
21.7800 631.0000 1.0000
21.8000 615.0000 1.0000
21.8200 691.0000 1.0000
21.8400 683.0000 1.0000
21.8600 696.0000 1.0000
21.8800 693.0000 1.0000
21.9000 620.0000 1.0000
21.9200 541.0000 1.0000
21.9400 466.0000 1.0000
21.9600 414.0000 1.0000
21.9800 338.0000 1.0000
22.0000 307.0000 1.0000
22.0200 258.0000 1.0000
22.0400 254.0000 1.0000
22.0600 242.0000 1.0000
22.0800 246.0000 1.0000
22.1000 220.0000 1.0000
22.1200 221.0000 1.0000
22.1400 241.0000 1.0000
22.1600 222.0000 1.0000
22.1800 226.0000 1.0000
22.2000 244.0000 1.0000
22.2200 225.0000 1.0000
22.2400 232.0000 1.0000
22.2600 231.0000 1.0000
22.2800 229.0000 1.0000
22.3000 213.0000 1.0000
22.3200 203.0000 1.0000
22.3400 216.0000 1.0000
22.3600 234.0000 1.0000
22.3800 221.0000 1.0000
22.4000 214.0000 1.0000
22.4200 236.0000 1.0000
22.4400 244.0000 1.0000
22.4600 266.0000 1.0000
22.4800 230.0000 1.0000
22.5000 218.0000 1.0000
22.5200 232.0000 1.0000
22.5400 267.0000 1.0000
22.5600 266.0000 1.0000
22.5800 242.0000 1.0000
22.6000 254.0000 1.0000
22.6200 253.0000 1.0000
22.6400 255.0000 1.0000
22.6600 267.0000 1.0000
22.6800 268.0000 1.0000
22.7000 281.0000 1.0000
22.7200 269.0000 1.0000
22.7400 278.0000 1.0000
22.7600 277.0000 1.0000
22.7800 290.0000 1.0000
22.8000 296.0000 1.0000
22.8200 286.0000 1.0000
22.8400 289.0000 1.0000
22.8600 332.0000 1.0000
22.8800 294.0000 1.0000
22.9000 280.0000 1.0000
22.9200 287.0000 1.0000
22.9400 271.0000 1.0000
22.9600 269.0000 1.0000
22.9800 254.0000 1.0000
23.0000 227.0000 1.0000
23.0200 231.0000 1.0000
23.0400 236.0000 1.0000
23.0600 248.0000 1.0000
23.0800 232.0000 1.0000
23.1000 239.0000 1.0000
23.1200 253.0000 1.0000
23.1400 259.0000 1.0000
23.1600 266.0000 1.0000
23.1800 259.0000 1.0000
23.2000 286.0000 1.0000
23.2200 322.0000 1.0000
23.2400 332.0000 1.0000
23.2600 390.0000 1.0000
23.2800 374.0000 1.0000
23.3000 382.0000 1.0000
23.3200 416.0000 1.0000
23.3400 478.0000 1.0000
23.3600 489.0000 1.0000
23.3800 495.0000 1.0000
23.4000 539.0000 1.0000
23.4200 533.0000 1.0000
23.4400 552.0000 1.0000
23.4600 502.0000 1.0000
23.4800 480.0000 1.0000
23.5000 444.0000 1.0000
23.5200 462.0000 1.0000
23.5400 441.0000 1.0000
23.5600 392.0000 1.0000
23.5800 361.0000 1.0000
23.6000 314.0000 1.0000
23.6200 314.0000 1.0000
23.6400 309.0000 1.0000
23.6600 316.0000 1.0000
23.6800 284.0000 1.0000
23.7000 260.0000 1.0000
23.7200 269.0000 1.0000
23.7400 278.0000 1.0000
23.7600 284.0000 1.0000
23.7800 301.0000 1.0000
23.8000 311.0000 1.0000
23.8200 282.0000 1.0000
23.8400 302.0000 1.0000
23.8600 292.0000 1.0000
23.8800 306.0000 1.0000
23.9000 326.0000 1.0000
23.9200 364.0000 1.0000
23.9400 406.0000 1.0000
23.9600 396.0000 1.0000
23.9800 417.0000 1.0000
24.0000 448.0000 1.0000
24.0200 472.0000 1.0000
24.0400 496.0000 1.0000
24.0600 523.0000 1.0000
24.0800 512.0000 1.0000
24.1000 494.0000 1.0000
24.1200 506.0000 1.0000
24.1400 489.0000 1.0000
24.1600 478.0000 1.0000
24.1800 474.0000 1.0000
24.2000 447.0000 1.0000
24.2200 423.0000 1.0000
24.2400 420.0000 1.0000
24.2600 384.0000 1.0000
24.2800 364.0000 1.0000
24.3000 377.0000 1.0000
24.3200 370.0000 1.0000
24.3400 338.0000 1.0000
24.3600 320.0000 1.0000
24.3800 303.0000 1.0000
24.4000 304.0000 1.0000
24.4200 283.0000 1.0000
24.4400 288.0000 1.0000
24.4600 294.0000 1.0000
24.4800 272.0000 1.0000
24.5000 251.0000 1.0000
24.5200 233.0000 1.0000
24.5400 251.0000 1.0000
24.5600 266.0000 1.0000
24.5800 247.0000 1.0000
24.6000 257.0000 1.0000
24.6200 266.0000 1.0000
24.6400 252.0000 1.0000
24.6600 263.0000 1.0000
24.6800 263.0000 1.0000
24.7000 248.0000 1.0000
24.7200 266.0000 1.0000
24.7400 276.0000 1.0000
24.7600 257.0000 1.0000
24.7800 267.0000 1.0000
24.8000 273.0000 1.0000
24.8200 279.0000 1.0000
24.8400 270.0000 1.0000
24.8600 275.0000 1.0000
24.8800 278.0000 1.0000
24.9000 289.0000 1.0000
24.9200 321.0000 1.0000
24.9400 337.0000 1.0000
24.9600 320.0000 1.0000
24.9800 340.0000 1.0000
25.0000 352.0000 1.0000
25.0200 356.0000 1.0000
25.0400 360.0000 1.0000
25.0600 409.0000 1.0000
25.0800 432.0000 1.0000
25.1000 417.0000 1.0000
25.1200 430.0000 1.0000
25.1400 453.0000 1.0000
25.1600 467.0000 1.0000
25.1800 486.0000 1.0000
25.2000 528.0000 1.0000
25.2200 584.0000 1.0000
25.2400 660.0000 1.0000
25.2600 718.0000 1.0000
25.2800 782.0000 1.0000
25.3000 900.0000 1.0000
25.3200 1010.0000 1.0000
25.3400 1106.0000 1.0000
25.3600 1243.0000 1.0000
25.3800 1368.0000 1.0000
25.4000 1434.0000 1.0000
25.4200 1490.0000 1.0000
25.4400 1417.0000 1.0000
25.4600 1262.0000 1.0000
25.4800 1098.0000 1.0000
25.5000 928.0000 1.0000
25.5200 756.0000 1.0000
25.5400 628.0000 1.0000
25.5600 528.0000 1.0000
25.5800 462.0000 1.0000
25.6000 439.0000 1.0000
25.6200 397.0000 1.0000
25.6400 354.0000 1.0000
25.6600 360.0000 1.0000
25.6800 363.0000 1.0000
25.7000 352.0000 1.0000
25.7200 352.0000 1.0000
25.7400 346.0000 1.0000
25.7600 311.0000 1.0000
25.7800 327.0000 1.0000
25.8000 334.0000 1.0000
25.8200 340.0000 1.0000
25.8400 360.0000 1.0000
25.8600 364.0000 1.0000
25.8800 347.0000 1.0000
25.9000 338.0000 1.0000
25.9200 328.0000 1.0000
25.9400 353.0000 1.0000
25.9600 384.0000 1.0000
25.9800 387.0000 1.0000
26.0000 395.0000 1.0000
26.0200 397.0000 1.0000
26.0400 447.0000 1.0000
26.0600 485.0000 1.0000
26.0800 497.0000 1.0000
26.1000 539.0000 1.0000
26.1200 544.0000 1.0000
26.1400 599.0000 1.0000
26.1600 679.0000 1.0000
26.1800 729.0000 1.0000
26.2000 797.0000 1.0000
26.2200 890.0000 1.0000
26.2400 1026.0000 1.0000
26.2600 1157.0000 1.0000
26.2800 1338.0000 1.0000
26.3000 1562.0000 1.0000
26.3200 1877.0000 1.0000
26.3400 2297.0000 1.0000
26.3600 2791.0000 1.0000
26.3800 3433.0000 1.0000
26.4000 4273.0000 1.0000
26.4200 5124.0000 1.0000
26.4400 5915.0000 1.0000
26.4600 6580.0000 1.0000
26.4800 6740.0000 1.0000
26.5000 6418.0000 1.0000
26.5200 5781.0000 1.0000
26.5400 4750.0000 1.0000
26.5600 3657.0000 1.0000
26.5800 2787.0000 1.0000
26.6000 2099.0000 1.0000
26.6200 1574.0000 1.0000
26.6400 1240.0000 1.0000
26.6600 1002.0000 1.0000
26.6800 866.0000 1.0000
26.7000 768.0000 1.0000
26.7200 727.0000 1.0000
26.7400 692.0000 1.0000
26.7600 657.0000 1.0000
26.7800 648.0000 1.0000
26.8000 618.0000 1.0000
26.8200 575.0000 1.0000
26.8400 562.0000 1.0000
26.8600 560.0000 1.0000
26.8800 544.0000 1.0000
26.9000 529.0000 1.0000
26.9200 521.0000 1.0000
26.9400 510.0000 1.0000
26.9600 515.0000 1.0000
26.9800 514.0000 1.0000
27.0000 477.0000 1.0000
27.0200 457.0000 1.0000
27.0400 427.0000 1.0000
27.0600 409.0000 1.0000
27.0800 437.0000 1.0000
27.1000 431.0000 1.0000
27.1200 427.0000 1.0000
27.1400 453.0000 1.0000
27.1600 479.0000 1.0000
27.1800 494.0000 1.0000
27.2000 498.0000 1.0000
27.2200 509.0000 1.0000
27.2400 546.0000 1.0000
27.2600 544.0000 1.0000
27.2800 577.0000 1.0000
27.3000 630.0000 1.0000
27.3200 655.0000 1.0000
27.3400 689.0000 1.0000
27.3600 684.0000 1.0000
27.3800 696.0000 1.0000
27.4000 719.0000 1.0000
27.4200 726.0000 1.0000
27.4400 737.0000 1.0000
27.4600 740.0000 1.0000
27.4800 735.0000 1.0000
27.5000 757.0000 1.0000
27.5200 840.0000 1.0000
27.5400 933.0000 1.0000
27.5600 993.0000 1.0000
27.5800 1034.0000 1.0000
27.6000 1087.0000 1.0000
27.6200 1140.0000 1.0000
27.6400 1154.0000 1.0000
27.6600 1153.0000 1.0000
27.6800 1178.0000 1.0000
27.7000 1192.0000 1.0000
27.7200 1224.0000 1.0000
27.7400 1278.0000 1.0000
27.7600 1284.0000 1.0000
27.7800 1314.0000 1.0000
27.8000 1323.0000 1.0000
27.8200 1245.0000 1.0000
27.8400 1117.0000 1.0000
27.8600 1025.0000 1.0000
27.8800 971.0000 1.0000
27.9000 874.0000 1.0000
27.9200 759.0000 1.0000
27.9400 705.0000 1.0000
27.9600 660.0000 1.0000
27.9800 597.0000 1.0000
28.0000 562.0000 1.0000
28.0200 533.0000 1.0000
28.0400 520.0000 1.0000
28.0600 501.0000 1.0000
28.0800 477.0000 1.0000
28.1000 463.0000 1.0000
28.1200 455.0000 1.0000
28.1400 445.0000 1.0000
28.1600 418.0000 1.0000
28.1800 415.0000 1.0000
28.2000 403.0000 1.0000
28.2200 380.0000 1.0000
28.2400 355.0000 1.0000
28.2600 343.0000 1.0000
28.2800 346.0000 1.0000
28.3000 333.0000 1.0000
28.3200 307.0000 1.0000
28.3400 290.0000 1.0000
28.3600 282.0000 1.0000
28.3800 264.0000 1.0000
28.4000 239.0000 1.0000
28.4200 241.0000 1.0000
28.4400 240.0000 1.0000
28.4600 229.0000 1.0000
28.4800 226.0000 1.0000
28.5000 225.0000 1.0000
28.5200 235.0000 1.0000
28.5400 229.0000 1.0000
28.5600 209.0000 1.0000
28.5800 208.0000 1.0000
28.6000 207.0000 1.0000
28.6200 216.0000 1.0000
28.6400 212.0000 1.0000
28.6600 210.0000 1.0000
28.6800 230.0000 1.0000
28.7000 238.0000 1.0000
28.7200 234.0000 1.0000
28.7400 222.0000 1.0000
28.7600 220.0000 1.0000
28.7800 240.0000 1.0000
28.8000 225.0000 1.0000
28.8200 221.0000 1.0000
28.8400 217.0000 1.0000
28.8600 228.0000 1.0000
28.8800 236.0000 1.0000
28.9000 240.0000 1.0000
28.9200 253.0000 1.0000
28.9400 253.0000 1.0000
28.9600 253.0000 1.0000
28.9800 245.0000 1.0000
29.0000 238.0000 1.0000
29.0200 255.0000 1.0000
29.0400 272.0000 1.0000
29.0600 276.0000 1.0000
29.0800 277.0000 1.0000
29.1000 292.0000 1.0000
29.1200 291.0000 1.0000
29.1400 289.0000 1.0000
29.1600 307.0000 1.0000
29.1800 330.0000 1.0000
29.2000 339.0000 1.0000
29.2200 358.0000 1.0000
29.2400 363.0000 1.0000
29.2600 374.0000 1.0000
29.2800 372.0000 1.0000
29.3000 370.0000 1.0000
29.3200 392.0000 1.0000
29.3400 390.0000 1.0000
29.3600 389.0000 1.0000
29.3800 365.0000 1.0000
29.4000 369.0000 1.0000
29.4200 392.0000 1.0000
29.4400 427.0000 1.0000
29.4600 387.0000 1.0000
29.4800 375.0000 1.0000
29.5000 404.0000 1.0000
29.5200 428.0000 1.0000
29.5400 451.0000 1.0000
29.5600 465.0000 1.0000
29.5800 462.0000 1.0000
29.6000 489.0000 1.0000
29.6200 508.0000 1.0000
29.6400 512.0000 1.0000
29.6600 500.0000 1.0000
29.6800 480.0000 1.0000
29.7000 518.0000 1.0000
29.7200 494.0000 1.0000
29.7400 478.0000 1.0000
29.7600 460.0000 1.0000
29.7800 425.0000 1.0000
29.8000 445.0000 1.0000
29.8200 413.0000 1.0000
29.8400 412.0000 1.0000
29.8600 400.0000 1.0000
29.8800 373.0000 1.0000
29.9000 392.0000 1.0000
29.9200 376.0000 1.0000
29.9400 386.0000 1.0000
29.9600 365.0000 1.0000
29.9800 377.0000 1.0000
30.0000 374.0000 1.0000
30.0200 414.0000 1.0000
30.0400 420.0000 1.0000
30.0600 435.0000 1.0000
30.0800 408.0000 1.0000
30.1000 390.0000 1.0000
30.1200 421.0000 1.0000
30.1400 434.0000 1.0000
30.1600 403.0000 1.0000
30.1800 395.0000 1.0000
30.2000 403.0000 1.0000
30.2200 418.0000 1.0000
30.2400 419.0000 1.0000
30.2600 413.0000 1.0000
30.2800 425.0000 1.0000
30.3000 425.0000 1.0000
30.3200 443.0000 1.0000
30.3400 428.0000 1.0000
30.3600 409.0000 1.0000
30.3800 378.0000 1.0000
30.4000 369.0000 1.0000
30.4200 337.0000 1.0000
30.4400 328.0000 1.0000
30.4600 327.0000 1.0000
30.4800 311.0000 1.0000
30.5000 302.0000 1.0000
30.5200 304.0000 1.0000
30.5400 287.0000 1.0000
30.5600 300.0000 1.0000
30.5800 305.0000 1.0000
30.6000 323.0000 1.0000
30.6200 300.0000 1.0000
30.6400 324.0000 1.0000
30.6600 324.0000 1.0000
30.6800 307.0000 1.0000
30.7000 307.0000 1.0000
30.7200 316.0000 1.0000
30.7400 320.0000 1.0000
30.7600 298.0000 1.0000
30.7800 293.0000 1.0000
30.8000 267.0000 1.0000
30.8200 281.0000 1.0000
30.8400 279.0000 1.0000
30.8600 255.0000 1.0000
30.8800 257.0000 1.0000
30.9000 256.0000 1.0000
30.9200 247.0000 1.0000
30.9400 255.0000 1.0000
30.9600 240.0000 1.0000
30.9800 260.0000 1.0000
31.0000 266.0000 1.0000
31.0200 273.0000 1.0000
31.0400 281.0000 1.0000
31.0600 285.0000 1.0000
31.0800 295.0000 1.0000
31.1000 292.0000 1.0000
31.1200 301.0000 1.0000
31.1400 272.0000 1.0000
31.1600 287.0000 1.0000
31.1800 286.0000 1.0000
31.2000 267.0000 1.0000
31.2200 269.0000 1.0000
31.2400 292.0000 1.0000
31.2600 308.0000 1.0000
31.2800 300.0000 1.0000
31.3000 307.0000 1.0000
31.3200 337.0000 1.0000
31.3400 324.0000 1.0000
31.3600 316.0000 1.0000
31.3800 305.0000 1.0000
31.4000 295.0000 1.0000
31.4200 319.0000 1.0000
31.4400 300.0000 1.0000
31.4600 329.0000 1.0000
31.4800 325.0000 1.0000
31.5000 353.0000 1.0000
31.5200 336.0000 1.0000
31.5400 356.0000 1.0000
31.5600 352.0000 1.0000
31.5800 316.0000 1.0000
31.6000 283.0000 1.0000
31.6200 310.0000 1.0000
31.6400 263.0000 1.0000
31.6600 236.0000 1.0000
31.6800 242.0000 1.0000
31.7000 214.0000 1.0000
31.7200 203.0000 1.0000
31.7400 220.0000 1.0000
31.7600 236.0000 1.0000
31.7800 225.0000 1.0000
31.8000 238.0000 1.0000
31.8200 232.0000 1.0000
31.8400 226.0000 1.0000
31.8600 202.0000 1.0000
31.8800 202.0000 1.0000
31.9000 201.0000 1.0000
31.9200 188.0000 1.0000
31.9400 191.0000 1.0000
31.9600 198.0000 1.0000
31.9800 214.0000 1.0000
32.0000 209.0000 1.0000
32.0200 204.0000 1.0000
32.0400 172.0000 1.0000
32.0600 176.0000 1.0000
32.0800 186.0000 1.0000
32.1000 208.0000 1.0000
32.1200 216.0000 1.0000
32.1400 188.0000 1.0000
32.1600 192.0000 1.0000
32.1800 184.0000 1.0000
32.2000 165.0000 1.0000
32.2200 176.0000 1.0000
32.2400 206.0000 1.0000
32.2600 201.0000 1.0000
32.2800 177.0000 1.0000
32.3000 167.0000 1.0000
32.3200 173.0000 1.0000
32.3400 169.0000 1.0000
32.3600 167.0000 1.0000
32.3800 146.0000 1.0000
32.4000 170.0000 1.0000
32.4200 176.0000 1.0000
32.4400 170.0000 1.0000
32.4600 174.0000 1.0000
32.4800 176.0000 1.0000
32.5000 158.0000 1.0000
32.5200 150.0000 1.0000
32.5400 169.0000 1.0000
32.5600 148.0000 1.0000
32.5800 158.0000 1.0000
32.6000 151.0000 1.0000
32.6200 151.0000 1.0000
32.6400 134.0000 1.0000
32.6600 153.0000 1.0000
32.6800 139.0000 1.0000
32.7000 125.0000 1.0000
32.7200 157.0000 1.0000
32.7400 142.0000 1.0000
32.7600 149.0000 1.0000
32.7800 167.0000 1.0000
32.8000 170.0000 1.0000
32.8200 160.0000 1.0000
32.8400 155.0000 1.0000
32.8600 160.0000 1.0000
32.8800 157.0000 1.0000
32.9000 171.0000 1.0000
32.9200 158.0000 1.0000
32.9400 170.0000 1.0000
32.9600 180.0000 1.0000
32.9800 190.0000 1.0000
33.0000 181.0000 1.0000
33.0200 167.0000 1.0000
33.0400 169.0000 1.0000
33.0600 167.0000 1.0000
33.0800 151.0000 1.0000
33.1000 143.0000 1.0000
33.1200 177.0000 1.0000
33.1400 163.0000 1.0000
33.1600 165.0000 1.0000
33.1800 143.0000 1.0000
33.2000 158.0000 1.0000
33.2200 171.0000 1.0000
33.2400 157.0000 1.0000
33.2600 171.0000 1.0000
33.2800 147.0000 1.0000
33.3000 167.0000 1.0000
33.3200 159.0000 1.0000
33.3400 160.0000 1.0000
33.3600 154.0000 1.0000
33.3800 158.0000 1.0000
33.4000 174.0000 1.0000
33.4200 160.0000 1.0000
33.4400 164.0000 1.0000
33.4600 198.0000 1.0000
33.4800 176.0000 1.0000
33.5000 180.0000 1.0000
33.5200 193.0000 1.0000
33.5400 195.0000 1.0000
33.5600 199.0000 1.0000
33.5800 210.0000 1.0000
33.6000 229.0000 1.0000
33.6200 218.0000 1.0000
33.6400 204.0000 1.0000
33.6600 185.0000 1.0000
33.6800 214.0000 1.0000
33.7000 199.0000 1.0000
33.7200 206.0000 1.0000
33.7400 211.0000 1.0000
33.7600 227.0000 1.0000
33.7800 208.0000 1.0000
33.8000 221.0000 1.0000
33.8200 203.0000 1.0000
33.8400 220.0000 1.0000
33.8600 224.0000 1.0000
33.8800 205.0000 1.0000
33.9000 195.0000 1.0000
33.9200 216.0000 1.0000
33.9400 209.0000 1.0000
33.9600 215.0000 1.0000
33.9800 217.0000 1.0000
34.0000 190.0000 1.0000
34.0200 232.0000 1.0000
34.0400 213.0000 1.0000
34.0600 239.0000 1.0000
34.0800 233.0000 1.0000
34.1000 233.0000 1.0000
34.1200 273.0000 1.0000
34.1400 242.0000 1.0000
34.1600 266.0000 1.0000
34.1800 269.0000 1.0000
34.2000 312.0000 1.0000
34.2200 281.0000 1.0000
34.2400 310.0000 1.0000
34.2600 334.0000 1.0000
34.2800 321.0000 1.0000
34.3000 371.0000 1.0000
34.3200 322.0000 1.0000
34.3400 358.0000 1.0000
34.3600 386.0000 1.0000
34.3800 369.0000 1.0000
34.4000 367.0000 1.0000
34.4200 416.0000 1.0000
34.4400 399.0000 1.0000
34.4600 400.0000 1.0000
34.4800 431.0000 1.0000
34.5000 468.0000 1.0000
34.5200 502.0000 1.0000
34.5400 469.0000 1.0000
34.5600 490.0000 1.0000
34.5800 526.0000 1.0000
34.6000 534.0000 1.0000
34.6200 542.0000 1.0000
34.6400 552.0000 1.0000
34.6600 580.0000 1.0000
34.6800 626.0000 1.0000
34.7000 649.0000 1.0000
34.7200 613.0000 1.0000
34.7400 680.0000 1.0000
34.7600 729.0000 1.0000
34.7800 750.0000 1.0000
34.8000 762.0000 1.0000
34.8200 783.0000 1.0000
34.8400 901.0000 1.0000
34.8600 948.0000 1.0000
34.8800 1058.0000 1.0000
34.9000 1262.0000 1.0000
34.9200 1397.0000 1.0000
34.9400 1524.0000 1.0000
34.9600 1722.0000 1.0000
34.9800 1791.0000 1.0000
35.0000 1881.0000 1.0000
35.0200 1892.0000 1.0000
35.0400 1771.0000 1.0000
35.0600 1563.0000 1.0000
35.0800 1342.0000 1.0000
35.1000 1180.0000 1.0000
35.1200 919.0000 1.0000
35.1400 861.0000 1.0000
35.1600 616.0000 1.0000
35.1800 558.0000 1.0000
35.2000 545.0000 1.0000
35.2200 456.0000 1.0000
35.2400 474.0000 1.0000
35.2600 422.0000 1.0000
35.2800 459.0000 1.0000
35.3000 407.0000 1.0000
35.3200 442.0000 1.0000
35.3400 446.0000 1.0000
35.3600 462.0000 1.0000
35.3800 423.0000 1.0000
35.4000 415.0000 1.0000
35.4200 478.0000 1.0000
35.4400 433.0000 1.0000
35.4600 430.0000 1.0000
35.4800 421.0000 1.0000
35.5000 418.0000 1.0000
35.5200 404.0000 1.0000
35.5400 391.0000 1.0000
35.5600 377.0000 1.0000
35.5800 380.0000 1.0000
35.6000 316.0000 1.0000
35.6200 372.0000 1.0000
35.6400 326.0000 1.0000
35.6600 348.0000 1.0000
35.6800 303.0000 1.0000
35.7000 308.0000 1.0000
35.7200 284.0000 1.0000
35.7400 283.0000 1.0000
35.7600 257.0000 1.0000
35.7800 240.0000 1.0000
35.8000 274.0000 1.0000
35.8200 269.0000 1.0000
35.8400 257.0000 1.0000
35.8600 259.0000 1.0000
35.8800 262.0000 1.0000
35.9000 262.0000 1.0000
35.9200 267.0000 1.0000
35.9400 253.0000 1.0000
35.9600 258.0000 1.0000
35.9800 270.0000 1.0000
36.0000 261.0000 1.0000
36.0200 277.0000 1.0000
36.0400 273.0000 1.0000
36.0600 246.0000 1.0000
36.0800 264.0000 1.0000
36.1000 266.0000 1.0000
36.1200 270.0000 1.0000
36.1400 281.0000 1.0000
36.1600 270.0000 1.0000
36.1800 305.0000 1.0000
36.2000 279.0000 1.0000
36.2200 272.0000 1.0000
36.2400 360.0000 1.0000
36.2600 454.0000 1.0000
36.2800 475.0000 1.0000
36.3000 498.0000 1.0000
36.3200 556.0000 1.0000
36.3400 635.0000 1.0000
36.3600 651.0000 1.0000
36.3800 712.0000 1.0000
36.4000 701.0000 1.0000
36.4200 676.0000 1.0000
36.4400 668.0000 1.0000
36.4600 593.0000 1.0000
36.4800 479.0000 1.0000
36.5000 517.0000 1.0000
36.5200 519.0000 1.0000
36.5400 441.0000 1.0000
36.5600 375.0000 1.0000
36.5800 331.0000 1.0000
36.6000 319.0000 1.0000
36.6200 326.0000 1.0000
36.6400 295.0000 1.0000
36.6600 278.0000 1.0000
36.6800 288.0000 1.0000
36.7000 258.0000 1.0000
36.7200 289.0000 1.0000
36.7400 280.0000 1.0000
36.7600 270.0000 1.0000
36.7800 247.0000 1.0000
36.8000 258.0000 1.0000
36.8200 268.0000 1.0000
36.8400 259.0000 1.0000
36.8600 273.0000 1.0000
36.8800 248.0000 1.0000
36.9000 235.0000 1.0000
36.9200 229.0000 1.0000
36.9400 246.0000 1.0000
36.9600 256.0000 1.0000
36.9800 264.0000 1.0000
37.0000 254.0000 1.0000
37.0200 246.0000 1.0000
37.0400 266.0000 1.0000
37.0600 258.0000 1.0000
37.0800 252.0000 1.0000
37.1000 271.0000 1.0000
37.1200 268.0000 1.0000
37.1400 274.0000 1.0000
37.1600 252.0000 1.0000
37.1800 263.0000 1.0000
37.2000 258.0000 1.0000
37.2200 292.0000 1.0000
37.2400 285.0000 1.0000
37.2600 286.0000 1.0000
37.2800 283.0000 1.0000
37.3000 304.0000 1.0000
37.3200 287.0000 1.0000
37.3400 302.0000 1.0000
37.3600 314.0000 1.0000
37.3800 322.0000 1.0000
37.4000 332.0000 1.0000
37.4200 341.0000 1.0000
37.4400 353.0000 1.0000
37.4600 408.0000 1.0000
37.4800 438.0000 1.0000
37.5000 461.0000 1.0000
37.5200 485.0000 1.0000
37.5400 610.0000 1.0000
37.5600 694.0000 1.0000
37.5800 767.0000 1.0000
37.6000 860.0000 1.0000
37.6200 856.0000 1.0000
37.6400 864.0000 1.0000
37.6600 813.0000 1.0000
37.6800 732.0000 1.0000
37.7000 633.0000 1.0000
37.7200 541.0000 1.0000
37.7400 471.0000 1.0000
37.7600 431.0000 1.0000
37.7800 359.0000 1.0000
37.8000 299.0000 1.0000
37.8200 264.0000 1.0000
37.8400 227.0000 1.0000
37.8600 202.0000 1.0000
37.8800 213.0000 1.0000
37.9000 229.0000 1.0000
37.9200 213.0000 1.0000
37.9400 186.0000 1.0000
37.9600 210.0000 1.0000
37.9800 179.0000 1.0000
38.0000 173.0000 1.0000
38.0200 173.0000 1.0000
38.0400 173.0000 1.0000
38.0600 188.0000 1.0000
38.0800 168.0000 1.0000
38.1000 155.0000 1.0000
38.1200 190.0000 1.0000
38.1400 186.0000 1.0000
38.1600 169.0000 1.0000
38.1800 157.0000 1.0000
38.2000 167.0000 1.0000
38.2200 163.0000 1.0000
38.2400 174.0000 1.0000
38.2600 184.0000 1.0000
38.2800 159.0000 1.0000
38.3000 149.0000 1.0000
38.3200 156.0000 1.0000
38.3400 151.0000 1.0000
38.3600 157.0000 1.0000
38.3800 147.0000 1.0000
38.4000 138.0000 1.0000
38.4200 154.0000 1.0000
38.4400 154.0000 1.0000
38.4600 149.0000 1.0000
38.4800 148.0000 1.0000
38.5000 147.0000 1.0000
38.5200 160.0000 1.0000
38.5400 165.0000 1.0000
38.5600 168.0000 1.0000
38.5800 163.0000 1.0000
38.6000 172.0000 1.0000
38.6200 159.0000 1.0000
38.6400 180.0000 1.0000
38.6600 182.0000 1.0000
38.6800 166.0000 1.0000
38.7000 173.0000 1.0000
38.7200 166.0000 1.0000
38.7400 159.0000 1.0000
38.7600 160.0000 1.0000
38.7800 178.0000 1.0000
38.8000 180.0000 1.0000
38.8200 185.0000 1.0000
38.8400 175.0000 1.0000
38.8600 154.0000 1.0000
38.8800 151.0000 1.0000
38.9000 162.0000 1.0000
38.9200 165.0000 1.0000
38.9400 174.0000 1.0000
38.9600 158.0000 1.0000
38.9800 161.0000 1.0000
39.0000 164.0000 1.0000
39.0200 153.0000 1.0000
39.0400 167.0000 1.0000
39.0600 172.0000 1.0000
39.0800 190.0000 1.0000
39.1000 190.0000 1.0000
39.1200 206.0000 1.0000
39.1400 219.0000 1.0000
39.1600 233.0000 1.0000
39.1800 275.0000 1.0000
39.2000 299.0000 1.0000
39.2200 314.0000 1.0000
39.2400 385.0000 1.0000
39.2600 451.0000 1.0000
39.2800 484.0000 1.0000
39.3000 525.0000 1.0000
39.3200 526.0000 1.0000
39.3400 515.0000 1.0000
39.3600 509.0000 1.0000
39.3800 482.0000 1.0000
39.4000 433.0000 1.0000
39.4200 360.0000 1.0000
39.4400 318.0000 1.0000
39.4600 303.0000 1.0000
39.4800 267.0000 1.0000
39.5000 229.0000 1.0000
39.5200 214.0000 1.0000
39.5400 193.0000 1.0000
39.5600 171.0000 1.0000
39.5800 192.0000 1.0000
39.6000 202.0000 1.0000
39.6200 186.0000 1.0000
39.6400 187.0000 1.0000
39.6600 191.0000 1.0000
39.6800 177.0000 1.0000
39.7000 163.0000 1.0000
39.7200 182.0000 1.0000
39.7400 191.0000 1.0000
39.7600 192.0000 1.0000
39.7800 180.0000 1.0000
39.8000 181.0000 1.0000
39.8200 179.0000 1.0000
39.8400 182.0000 1.0000
39.8600 192.0000 1.0000
39.8800 191.0000 1.0000
39.9000 188.0000 1.0000
39.9200 203.0000 1.0000
39.9400 206.0000 1.0000
39.9600 200.0000 1.0000
39.9800 215.0000 1.0000
40.0000 219.0000 1.0000
40.0200 227.0000 1.0000
40.0400 248.0000 1.0000
40.0600 267.0000 1.0000
40.0800 295.0000 1.0000
40.1000 332.0000 1.0000
40.1200 357.0000 1.0000
40.1400 340.0000 1.0000
40.1600 336.0000 1.0000
40.1800 335.0000 1.0000
40.2000 308.0000 1.0000
40.2200 300.0000 1.0000
40.2400 283.0000 1.0000
40.2600 258.0000 1.0000
40.2800 251.0000 1.0000
40.3000 235.0000 1.0000
40.3200 218.0000 1.0000
40.3400 196.0000 1.0000
40.3600 191.0000 1.0000
40.3800 205.0000 1.0000
40.4000 199.0000 1.0000
40.4200 198.0000 1.0000
40.4400 206.0000 1.0000
40.4600 206.0000 1.0000
40.4800 199.0000 1.0000
40.5000 193.0000 1.0000
40.5200 190.0000 1.0000
40.5400 195.0000 1.0000
40.5600 189.0000 1.0000
40.5800 184.0000 1.0000
40.6000 207.0000 1.0000
40.6200 207.0000 1.0000
40.6400 191.0000 1.0000
40.6600 198.0000 1.0000
40.6800 209.0000 1.0000
40.7000 191.0000 1.0000
40.7200 187.0000 1.0000
40.7400 205.0000 1.0000
40.7600 201.0000 1.0000
40.7800 190.0000 1.0000
40.8000 186.0000 1.0000
40.8200 194.0000 1.0000
40.8400 199.0000 1.0000
40.8600 196.0000 1.0000
40.8800 178.0000 1.0000
40.9000 186.0000 1.0000
40.9200 196.0000 1.0000
40.9400 190.0000 1.0000
40.9600 179.0000 1.0000
40.9800 173.0000 1.0000
41.0000 181.0000 1.0000
41.0200 187.0000 1.0000
41.0400 200.0000 1.0000
41.0600 190.0000 1.0000
41.0800 180.0000 1.0000
41.1000 184.0000 1.0000
41.1200 184.0000 1.0000
41.1400 197.0000 1.0000
41.1600 210.0000 1.0000
41.1800 189.0000 1.0000
41.2000 165.0000 1.0000
41.2200 159.0000 1.0000
41.2400 160.0000 1.0000
41.2600 170.0000 1.0000
41.2800 186.0000 1.0000
41.3000 180.0000 1.0000
41.3200 183.0000 1.0000
41.3400 183.0000 1.0000
41.3600 184.0000 1.0000
41.3800 191.0000 1.0000
41.4000 192.0000 1.0000
41.4200 193.0000 1.0000
41.4400 193.0000 1.0000
41.4600 189.0000 1.0000
41.4800 200.0000 1.0000
41.5000 198.0000 1.0000
41.5200 206.0000 1.0000
41.5400 220.0000 1.0000
41.5600 215.0000 1.0000
41.5800 237.0000 1.0000
41.6000 254.0000 1.0000
41.6200 241.0000 1.0000
41.6400 241.0000 1.0000
41.6600 250.0000 1.0000
41.6800 249.0000 1.0000
41.7000 239.0000 1.0000
41.7200 231.0000 1.0000
41.7400 234.0000 1.0000
41.7600 227.0000 1.0000
41.7800 213.0000 1.0000
41.8000 218.0000 1.0000
41.8200 232.0000 1.0000
41.8400 234.0000 1.0000
41.8600 224.0000 1.0000
41.8800 233.0000 1.0000
41.9000 220.0000 1.0000
41.9200 228.0000 1.0000
41.9400 240.0000 1.0000
41.9600 255.0000 1.0000
41.9800 261.0000 1.0000
42.0000 269.0000 1.0000
42.0200 266.0000 1.0000
42.0400 274.0000 1.0000
42.0600 272.0000 1.0000
42.0800 273.0000 1.0000
42.1000 283.0000 1.0000
42.1200 294.0000 1.0000
42.1400 280.0000 1.0000
42.1600 334.0000 1.0000
42.1800 367.0000 1.0000
42.2000 384.0000 1.0000
42.2200 444.0000 1.0000
42.2400 468.0000 1.0000
42.2600 488.0000 1.0000
42.2800 507.0000 1.0000
42.3000 563.0000 1.0000
42.3200 553.0000 1.0000
42.3400 512.0000 1.0000
42.3600 497.0000 1.0000
42.3800 454.0000 1.0000
42.4000 435.0000 1.0000
42.4200 384.0000 1.0000
42.4400 398.0000 1.0000
42.4600 341.0000 1.0000
42.4800 310.0000 1.0000
42.5000 276.0000 1.0000
42.5200 244.0000 1.0000
42.5400 251.0000 1.0000
42.5600 240.0000 1.0000
42.5800 228.0000 1.0000
42.6000 238.0000 1.0000
42.6200 234.0000 1.0000
42.6400 230.0000 1.0000
42.6600 231.0000 1.0000
42.6800 236.0000 1.0000
42.7000 232.0000 1.0000
42.7200 213.0000 1.0000
42.7400 225.0000 1.0000
42.7600 239.0000 1.0000
42.7800 219.0000 1.0000
42.8000 229.0000 1.0000
42.8200 222.0000 1.0000
42.8400 233.0000 1.0000
42.8600 250.0000 1.0000
42.8800 238.0000 1.0000
42.9000 267.0000 1.0000
42.9200 271.0000 1.0000
42.9400 289.0000 1.0000
42.9600 281.0000 1.0000
42.9800 315.0000 1.0000
43.0000 342.0000 1.0000
43.0200 401.0000 1.0000
43.0400 466.0000 1.0000
43.0600 505.0000 1.0000
43.0800 639.0000 1.0000
43.1000 825.0000 1.0000
43.1200 1050.0000 1.0000
43.1400 1231.0000 1.0000
43.1600 1382.0000 1.0000
43.1800 1576.0000 1.0000
43.2000 1677.0000 1.0000
43.2200 1665.0000 1.0000
43.2400 1523.0000 1.0000
43.2600 1487.0000 1.0000
43.2800 1296.0000 1.0000
43.3000 1147.0000 1.0000
43.3200 1008.0000 1.0000
43.3400 873.0000 1.0000
43.3600 757.0000 1.0000
43.3800 616.0000 1.0000
43.4000 470.0000 1.0000
43.4200 374.0000 1.0000
43.4400 293.0000 1.0000
43.4600 238.0000 1.0000
43.4800 259.0000 1.0000
43.5000 242.0000 1.0000
43.5200 215.0000 1.0000
43.5400 214.0000 1.0000
43.5600 201.0000 1.0000
43.5800 200.0000 1.0000
43.6000 190.0000 1.0000
43.6200 202.0000 1.0000
43.6400 205.0000 1.0000
43.6600 197.0000 1.0000
43.6800 180.0000 1.0000
43.7000 192.0000 1.0000
43.7200 157.0000 1.0000
43.7400 172.0000 1.0000
43.7600 182.0000 1.0000
43.7800 162.0000 1.0000
43.8000 142.0000 1.0000
43.8200 167.0000 1.0000
43.8400 162.0000 1.0000
43.8600 160.0000 1.0000
43.8800 168.0000 1.0000
43.9000 165.0000 1.0000
43.9200 158.0000 1.0000
43.9400 174.0000 1.0000
43.9600 150.0000 1.0000
43.9800 156.0000 1.0000
44.0000 170.0000 1.0000
44.0200 186.0000 1.0000
44.0400 175.0000 1.0000
44.0600 156.0000 1.0000
44.0800 145.0000 1.0000
44.1000 157.0000 1.0000
44.1200 169.0000 1.0000
44.1400 171.0000 1.0000
44.1600 166.0000 1.0000
44.1800 178.0000 1.0000
44.2000 154.0000 1.0000
44.2200 142.0000 1.0000
44.2400 141.0000 1.0000
44.2600 163.0000 1.0000
44.2800 156.0000 1.0000
44.3000 152.0000 1.0000
44.3200 168.0000 1.0000
44.3400 158.0000 1.0000
44.3600 148.0000 1.0000
44.3800 162.0000 1.0000
44.4000 145.0000 1.0000
44.4200 161.0000 1.0000
44.4400 160.0000 1.0000
44.4600 170.0000 1.0000
44.4800 151.0000 1.0000
44.5000 154.0000 1.0000
44.5200 152.0000 1.0000
44.5400 142.0000 1.0000
44.5600 143.0000 1.0000
44.5800 148.0000 1.0000
44.6000 187.0000 1.0000
44.6200 162.0000 1.0000
44.6400 173.0000 1.0000
44.6600 190.0000 1.0000
44.6800 179.0000 1.0000
44.7000 160.0000 1.0000
44.7200 165.0000 1.0000
44.7400 178.0000 1.0000
44.7600 175.0000 1.0000
44.7800 154.0000 1.0000
44.8000 180.0000 1.0000
44.8200 170.0000 1.0000
44.8400 183.0000 1.0000
44.8600 178.0000 1.0000
44.8800 197.0000 1.0000
44.9000 199.0000 1.0000
44.9200 190.0000 1.0000
44.9400 154.0000 1.0000
44.9600 190.0000 1.0000
44.9800 216.0000 1.0000
45.0000 210.0000 1.0000
45.0200 176.0000 1.0000
45.0400 194.0000 1.0000
45.0600 212.0000 1.0000
45.0800 197.0000 1.0000
45.1000 206.0000 1.0000
45.1200 212.0000 1.0000
45.1400 215.0000 1.0000
45.1600 208.0000 1.0000
45.1800 234.0000 1.0000
45.2000 246.0000 1.0000
45.2200 243.0000 1.0000
45.2400 247.0000 1.0000
45.2600 244.0000 1.0000
45.2800 244.0000 1.0000
45.3000 253.0000 1.0000
45.3200 269.0000 1.0000
45.3400 233.0000 1.0000
45.3600 238.0000 1.0000
45.3800 223.0000 1.0000
45.4000 247.0000 1.0000
45.4200 213.0000 1.0000
45.4400 230.0000 1.0000
45.4600 204.0000 1.0000
45.4800 217.0000 1.0000
45.5000 237.0000 1.0000
45.5200 238.0000 1.0000
45.5400 251.0000 1.0000
45.5600 288.0000 1.0000
45.5800 319.0000 1.0000
45.6000 305.0000 1.0000
45.6200 312.0000 1.0000
45.6400 350.0000 1.0000
45.6600 320.0000 1.0000
45.6800 341.0000 1.0000
45.7000 314.0000 1.0000
45.7200 329.0000 1.0000
45.7400 287.0000 1.0000
45.7600 275.0000 1.0000
45.7800 269.0000 1.0000
45.8000 236.0000 1.0000
45.8200 234.0000 1.0000
45.8400 199.0000 1.0000
45.8600 184.0000 1.0000
45.8800 195.0000 1.0000
45.9000 179.0000 1.0000
45.9200 176.0000 1.0000
45.9400 161.0000 1.0000
45.9600 171.0000 1.0000
45.9800 183.0000 1.0000
46.0000 168.0000 1.0000
46.0200 189.0000 1.0000
46.0400 176.0000 1.0000
46.0600 155.0000 1.0000
46.0800 155.0000 1.0000
46.1000 159.0000 1.0000
46.1200 152.0000 1.0000
46.1400 164.0000 1.0000
46.1600 153.0000 1.0000
46.1800 165.0000 1.0000
46.2000 170.0000 1.0000
46.2200 152.0000 1.0000
46.2400 144.0000 1.0000
46.2600 140.0000 1.0000
46.2800 138.0000 1.0000
46.3000 152.0000 1.0000
46.3200 155.0000 1.0000
46.3400 144.0000 1.0000
46.3600 133.0000 1.0000
46.3800 139.0000 1.0000
46.4000 155.0000 1.0000
46.4200 148.0000 1.0000
46.4400 157.0000 1.0000
46.4600 141.0000 1.0000
46.4800 147.0000 1.0000
46.5000 127.0000 1.0000
46.5200 147.0000 1.0000
46.5400 138.0000 1.0000
46.5600 131.0000 1.0000
46.5800 128.0000 1.0000
46.6000 136.0000 1.0000
46.6200 124.0000 1.0000
46.6400 143.0000 1.0000
46.6600 138.0000 1.0000
46.6800 151.0000 1.0000
46.7000 161.0000 1.0000
46.7200 147.0000 1.0000
46.7400 146.0000 1.0000
46.7600 154.0000 1.0000
46.7800 147.0000 1.0000
46.8000 156.0000 1.0000
46.8200 164.0000 1.0000
46.8400 134.0000 1.0000
46.8600 144.0000 1.0000
46.8800 151.0000 1.0000
46.9000 151.0000 1.0000
46.9200 160.0000 1.0000
46.9400 153.0000 1.0000
46.9600 139.0000 1.0000
46.9800 147.0000 1.0000
47.0000 152.0000 1.0000
47.0200 141.0000 1.0000
47.0400 130.0000 1.0000
47.0600 143.0000 1.0000
47.0800 137.0000 1.0000
47.1000 119.0000 1.0000
47.1200 116.0000 1.0000
47.1400 115.0000 1.0000
47.1600 123.0000 1.0000
47.1800 123.0000 1.0000
47.2000 126.0000 1.0000
47.2200 121.0000 1.0000
47.2400 127.0000 1.0000
47.2600 114.0000 1.0000
47.2800 124.0000 1.0000
47.3000 124.0000 1.0000
47.3200 142.0000 1.0000
47.3400 119.0000 1.0000
47.3600 128.0000 1.0000
47.3800 126.0000 1.0000
47.4000 128.0000 1.0000
47.4200 124.0000 1.0000
47.4400 131.0000 1.0000
47.4600 139.0000 1.0000
47.4800 141.0000 1.0000
47.5000 119.0000 1.0000
47.5200 125.0000 1.0000
47.5400 128.0000 1.0000
47.5600 113.0000 1.0000
47.5800 118.0000 1.0000
47.6000 119.0000 1.0000
47.6200 123.0000 1.0000
47.6400 137.0000 1.0000
47.6600 132.0000 1.0000
47.6800 126.0000 1.0000
47.7000 120.0000 1.0000
47.7200 124.0000 1.0000
47.7400 137.0000 1.0000
47.7600 134.0000 1.0000
47.7800 139.0000 1.0000
47.8000 133.0000 1.0000
47.8200 141.0000 1.0000
47.8400 120.0000 1.0000
47.8600 135.0000 1.0000
47.8800 145.0000 1.0000
47.9000 156.0000 1.0000
47.9200 153.0000 1.0000
47.9400 139.0000 1.0000
47.9600 131.0000 1.0000
47.9800 149.0000 1.0000
48.0000 158.0000 1.0000
48.0200 155.0000 1.0000
48.0400 155.0000 1.0000
48.0600 165.0000 1.0000
48.0800 166.0000 1.0000
48.1000 148.0000 1.0000
48.1200 151.0000 1.0000
48.1400 155.0000 1.0000
48.1600 151.0000 1.0000
48.1800 144.0000 1.0000
48.2000 141.0000 1.0000
48.2200 162.0000 1.0000
48.2400 155.0000 1.0000
48.2600 150.0000 1.0000
48.2800 144.0000 1.0000
48.3000 136.0000 1.0000
48.3200 140.0000 1.0000
48.3400 137.0000 1.0000
48.3600 150.0000 1.0000
48.3800 147.0000 1.0000
48.4000 142.0000 1.0000
48.4200 136.0000 1.0000
48.4400 137.0000 1.0000
48.4600 143.0000 1.0000
48.4800 141.0000 1.0000
48.5000 141.0000 1.0000
48.5200 132.0000 1.0000
48.5400 129.0000 1.0000
48.5600 143.0000 1.0000
48.5800 151.0000 1.0000
48.6000 151.0000 1.0000
48.6200 157.0000 1.0000
48.6400 155.0000 1.0000
48.6600 145.0000 1.0000
48.6800 142.0000 1.0000
48.7000 138.0000 1.0000
48.7200 130.0000 1.0000
48.7400 117.0000 1.0000
48.7600 116.0000 1.0000
48.7800 138.0000 1.0000
48.8000 149.0000 1.0000
48.8200 153.0000 1.0000
48.8400 145.0000 1.0000
48.8600 141.0000 1.0000
48.8800 165.0000 1.0000
48.9000 168.0000 1.0000
48.9200 173.0000 1.0000
48.9400 172.0000 1.0000
48.9600 163.0000 1.0000
48.9800 166.0000 1.0000
49.0000 162.0000 1.0000
49.0200 177.0000 1.0000
49.0400 198.0000 1.0000
49.0600 200.0000 1.0000
49.0800 198.0000 1.0000
49.1000 194.0000 1.0000
49.1200 188.0000 1.0000
49.1400 205.0000 1.0000
49.1600 226.0000 1.0000
49.1800 210.0000 1.0000
49.2000 180.0000 1.0000
49.2200 190.0000 1.0000
49.2400 190.0000 1.0000
49.2600 157.0000 1.0000
49.2800 164.0000 1.0000
49.3000 183.0000 1.0000
49.3200 184.0000 1.0000
49.3400 181.0000 1.0000
49.3600 173.0000 1.0000
49.3800 175.0000 1.0000
49.4000 185.0000 1.0000
49.4200 196.0000 1.0000
49.4400 191.0000 1.0000
49.4600 191.0000 1.0000
49.4800 203.0000 1.0000
49.5000 201.0000 1.0000
49.5200 199.0000 1.0000
49.5400 211.0000 1.0000
49.5600 204.0000 1.0000
49.5800 209.0000 1.0000
49.6000 214.0000 1.0000
49.6200 212.0000 1.0000
49.6400 195.0000 1.0000
49.6600 207.0000 1.0000
49.6800 232.0000 1.0000
49.7000 226.0000 1.0000
49.7200 243.0000 1.0000
49.7400 254.0000 1.0000
49.7600 271.0000 1.0000
49.7800 278.0000 1.0000
49.8000 291.0000 1.0000
49.8200 313.0000 1.0000
49.8400 354.0000 1.0000
49.8600 401.0000 1.0000
49.8800 445.0000 1.0000
49.9000 467.0000 1.0000
49.9200 557.0000 1.0000
49.9400 678.0000 1.0000
49.9600 754.0000 1.0000
49.9800 779.0000 1.0000
50.0000 832.0000 1.0000
50.0200 775.0000 1.0000
50.0400 729.0000 1.0000
50.0600 624.0000 1.0000
50.0800 599.0000 1.0000
50.1000 591.0000 1.0000
50.1200 536.0000 1.0000
50.1400 503.0000 1.0000
50.1600 451.0000 1.0000
50.1800 357.0000 1.0000
50.2000 296.0000 1.0000
50.2200 258.0000 1.0000
50.2400 234.0000 1.0000
50.2600 199.0000 1.0000
50.2800 179.0000 1.0000
50.3000 201.0000 1.0000
50.3200 199.0000 1.0000
50.3400 195.0000 1.0000
50.3600 189.0000 1.0000
50.3800 198.0000 1.0000
50.4000 210.0000 1.0000
50.4200 196.0000 1.0000
50.4400 207.0000 1.0000
50.4600 230.0000 1.0000
50.4800 202.0000 1.0000
50.5000 197.0000 1.0000
50.5200 198.0000 1.0000
50.5400 221.0000 1.0000
50.5600 218.0000 1.0000
50.5800 237.0000 1.0000
50.6000 227.0000 1.0000
50.6200 215.0000 1.0000
50.6400 230.0000 1.0000
50.6600 217.0000 1.0000
50.6800 192.0000 1.0000
50.7000 170.0000 1.0000
50.7200 178.0000 1.0000
50.7400 185.0000 1.0000
50.7600 164.0000 1.0000
50.7800 159.0000 1.0000
50.8000 166.0000 1.0000
50.8200 168.0000 1.0000
50.8400 155.0000 1.0000
50.8600 165.0000 1.0000
50.8800 152.0000 1.0000
50.9000 162.0000 1.0000
50.9200 154.0000 1.0000
50.9400 152.0000 1.0000
50.9600 167.0000 1.0000
50.9800 147.0000 1.0000
51.0000 154.0000 1.0000
51.0200 176.0000 1.0000
51.0400 171.0000 1.0000
51.0600 169.0000 1.0000
51.0800 166.0000 1.0000
51.1000 167.0000 1.0000
51.1200 156.0000 1.0000
51.1400 152.0000 1.0000
51.1600 162.0000 1.0000
51.1800 200.0000 1.0000
51.2000 177.0000 1.0000
51.2200 158.0000 1.0000
51.2400 147.0000 1.0000
51.2600 159.0000 1.0000
51.2800 158.0000 1.0000
51.3000 151.0000 1.0000
51.3200 148.0000 1.0000
51.3400 152.0000 1.0000
51.3600 162.0000 1.0000
51.3800 161.0000 1.0000
51.4000 136.0000 1.0000
51.4200 148.0000 1.0000
51.4400 148.0000 1.0000
51.4600 154.0000 1.0000
51.4800 141.0000 1.0000
51.5000 151.0000 1.0000
51.5200 129.0000 1.0000
51.5400 135.0000 1.0000
51.5600 139.0000 1.0000
51.5800 131.0000 1.0000
51.6000 135.0000 1.0000
51.6200 151.0000 1.0000
51.6400 118.0000 1.0000
51.6600 115.0000 1.0000
51.6800 139.0000 1.0000
51.7000 116.0000 1.0000
51.7200 121.0000 1.0000
51.7400 128.0000 1.0000
51.7600 139.0000 1.0000
51.7800 129.0000 1.0000
51.8000 150.0000 1.0000
51.8200 144.0000 1.0000
51.8400 126.0000 1.0000
51.8600 126.0000 1.0000
51.8800 128.0000 1.0000
51.9000 154.0000 1.0000
51.9200 143.0000 1.0000
51.9400 157.0000 1.0000
51.9600 136.0000 1.0000
51.9800 159.0000 1.0000
52.0000 164.0000 1.0000
52.0200 164.0000 1.0000
52.0400 141.0000 1.0000
52.0600 157.0000 1.0000
52.0800 162.0000 1.0000
52.1000 165.0000 1.0000
52.1200 168.0000 1.0000
52.1400 219.0000 1.0000
52.1600 204.0000 1.0000
52.1800 208.0000 1.0000
52.2000 200.0000 1.0000
52.2200 227.0000 1.0000
52.2400 255.0000 1.0000
52.2600 267.0000 1.0000
52.2800 318.0000 1.0000
52.3000 385.0000 1.0000
52.3200 482.0000 1.0000
52.3400 588.0000 1.0000
52.3600 650.0000 1.0000
52.3800 706.0000 1.0000
52.4000 735.0000 1.0000
52.4200 785.0000 1.0000
52.4400 803.0000 1.0000
52.4600 741.0000 1.0000
52.4800 648.0000 1.0000
52.5000 621.0000 1.0000
52.5200 556.0000 1.0000
52.5400 534.0000 1.0000
52.5600 451.0000 1.0000
52.5800 483.0000 1.0000
52.6000 419.0000 1.0000
52.6200 351.0000 1.0000
52.6400 262.0000 1.0000
52.6600 293.0000 1.0000
52.6800 211.0000 1.0000
52.7000 199.0000 1.0000
52.7200 164.0000 1.0000
52.7400 173.0000 1.0000
52.7600 186.0000 1.0000
52.7800 177.0000 1.0000
52.8000 184.0000 1.0000
52.8200 166.0000 1.0000
52.8400 173.0000 1.0000
52.8600 165.0000 1.0000
52.8800 191.0000 1.0000
52.9000 185.0000 1.0000
52.9200 170.0000 1.0000
52.9400 172.0000 1.0000
52.9600 181.0000 1.0000
52.9800 178.0000 1.0000
53.0000 187.0000 1.0000
53.0200 175.0000 1.0000
53.0400 191.0000 1.0000
53.0600 162.0000 1.0000
53.0800 187.0000 1.0000
53.1000 186.0000 1.0000
53.1200 175.0000 1.0000
53.1400 177.0000 1.0000
53.1600 186.0000 1.0000
53.1800 181.0000 1.0000
53.2000 190.0000 1.0000
53.2200 180.0000 1.0000
53.2400 182.0000 1.0000
53.2600 195.0000 1.0000
53.2800 189.0000 1.0000
53.3000 171.0000 1.0000
53.3200 169.0000 1.0000
53.3400 148.0000 1.0000
53.3600 144.0000 1.0000
53.3800 177.0000 1.0000
53.4000 194.0000 1.0000
53.4200 184.0000 1.0000
53.4400 165.0000 1.0000
53.4600 168.0000 1.0000
53.4800 153.0000 1.0000
53.5000 175.0000 1.0000
53.5200 159.0000 1.0000
53.5400 153.0000 1.0000
53.5600 159.0000 1.0000
53.5800 181.0000 1.0000
53.6000 156.0000 1.0000
53.6200 163.0000 1.0000
53.6400 173.0000 1.0000
53.6600 165.0000 1.0000
53.6800 155.0000 1.0000
53.7000 165.0000 1.0000
53.7200 161.0000 1.0000
53.7400 182.0000 1.0000
53.7600 171.0000 1.0000
53.7800 175.0000 1.0000
53.8000 177.0000 1.0000
53.8200 186.0000 1.0000
53.8400 183.0000 1.0000
53.8600 167.0000 1.0000
53.8800 162.0000 1.0000
53.9000 176.0000 1.0000
53.9200 182.0000 1.0000
53.9400 150.0000 1.0000
53.9600 173.0000 1.0000
53.9800 170.0000 1.0000
54.0000 180.0000 1.0000
54.0200 184.0000 1.0000
54.0400 186.0000 1.0000
54.0600 183.0000 1.0000
54.0800 177.0000 1.0000
54.1000 153.0000 1.0000
54.1200 175.0000 1.0000
54.1400 154.0000 1.0000
54.1600 156.0000 1.0000
54.1800 176.0000 1.0000
54.2000 173.0000 1.0000
54.2200 160.0000 1.0000
54.2400 161.0000 1.0000
54.2600 173.0000 1.0000
54.2800 170.0000 1.0000
54.3000 175.0000 1.0000
54.3200 178.0000 1.0000
54.3400 187.0000 1.0000
54.3600 182.0000 1.0000
54.3800 164.0000 1.0000
54.4000 175.0000 1.0000
54.4200 174.0000 1.0000
54.4400 185.0000 1.0000
54.4600 175.0000 1.0000
54.4800 158.0000 1.0000
54.5000 168.0000 1.0000
54.5200 173.0000 1.0000
54.5400 184.0000 1.0000
54.5600 195.0000 1.0000
54.5800 213.0000 1.0000
54.6000 230.0000 1.0000
54.6200 231.0000 1.0000
54.6400 243.0000 1.0000
54.6600 295.0000 1.0000
54.6800 315.0000 1.0000
54.7000 336.0000 1.0000
54.7200 350.0000 1.0000
54.7400 340.0000 1.0000
54.7600 319.0000 1.0000
54.7800 343.0000 1.0000
54.8000 341.0000 1.0000
54.8200 325.0000 1.0000
54.8400 294.0000 1.0000
54.8600 262.0000 1.0000
54.8800 262.0000 1.0000
54.9000 272.0000 1.0000
54.9200 269.0000 1.0000
54.9400 239.0000 1.0000
54.9600 244.0000 1.0000
54.9800 217.0000 1.0000
55.0000 215.0000 1.0000
55.0200 226.0000 1.0000
55.0400 223.0000 1.0000
55.0600 220.0000 1.0000
55.0800 221.0000 1.0000
55.1000 230.0000 1.0000
55.1200 243.0000 1.0000
55.1400 234.0000 1.0000
55.1600 245.0000 1.0000
55.1800 244.0000 1.0000
55.2000 268.0000 1.0000
55.2200 244.0000 1.0000
55.2400 203.0000 1.0000
55.2600 218.0000 1.0000
55.2800 228.0000 1.0000
55.3000 230.0000 1.0000
55.3200 227.0000 1.0000
55.3400 211.0000 1.0000
55.3600 201.0000 1.0000
55.3800 188.0000 1.0000
55.4000 191.0000 1.0000
55.4200 189.0000 1.0000
55.4400 184.0000 1.0000
55.4600 186.0000 1.0000
55.4800 167.0000 1.0000
55.5000 172.0000 1.0000
55.5200 186.0000 1.0000
55.5400 163.0000 1.0000
55.5600 167.0000 1.0000
55.5800 179.0000 1.0000
55.6000 178.0000 1.0000
55.6200 186.0000 1.0000
55.6400 188.0000 1.0000
55.6600 172.0000 1.0000
55.6800 179.0000 1.0000
55.7000 186.0000 1.0000
55.7200 166.0000 1.0000
55.7400 169.0000 1.0000
55.7600 176.0000 1.0000
55.7800 152.0000 1.0000
55.8000 141.0000 1.0000
55.8200 164.0000 1.0000
55.8400 171.0000 1.0000
55.8600 159.0000 1.0000
55.8800 148.0000 1.0000
55.9000 159.0000 1.0000
55.9200 178.0000 1.0000
55.9400 169.0000 1.0000
55.9600 166.0000 1.0000
55.9800 180.0000 1.0000
56.0000 179.0000 1.0000
56.0200 164.0000 1.0000
56.0400 171.0000 1.0000
56.0600 181.0000 1.0000
56.0800 176.0000 1.0000
56.1000 164.0000 1.0000
56.1200 168.0000 1.0000
56.1400 174.0000 1.0000
56.1600 161.0000 1.0000
56.1800 168.0000 1.0000
56.2000 179.0000 1.0000
56.2200 175.0000 1.0000
56.2400 177.0000 1.0000
56.2600 176.0000 1.0000
56.2800 163.0000 1.0000
56.3000 177.0000 1.0000
56.3200 203.0000 1.0000
56.3400 198.0000 1.0000
56.3600 180.0000 1.0000
56.3800 176.0000 1.0000
56.4000 209.0000 1.0000
56.4200 225.0000 1.0000
56.4400 195.0000 1.0000
56.4600 191.0000 1.0000
56.4800 195.0000 1.0000
56.5000 175.0000 1.0000
56.5200 169.0000 1.0000
56.5400 191.0000 1.0000
56.5600 188.0000 1.0000
56.5800 187.0000 1.0000
56.6000 185.0000 1.0000
56.6200 177.0000 1.0000
56.6400 176.0000 1.0000
56.6600 175.0000 1.0000
56.6800 181.0000 1.0000
56.7000 165.0000 1.0000
56.7200 158.0000 1.0000
56.7400 164.0000 1.0000
56.7600 165.0000 1.0000
56.7800 154.0000 1.0000
56.8000 153.0000 1.0000
56.8200 159.0000 1.0000
56.8400 166.0000 1.0000
56.8600 160.0000 1.0000
56.8800 180.0000 1.0000
56.9000 170.0000 1.0000
56.9200 176.0000 1.0000
56.9400 189.0000 1.0000
56.9600 175.0000 1.0000
56.9800 179.0000 1.0000
57.0000 186.0000 1.0000
57.0200 204.0000 1.0000
57.0400 209.0000 1.0000
57.0600 193.0000 1.0000
57.0800 202.0000 1.0000
57.1000 220.0000 1.0000
57.1200 241.0000 1.0000
57.1400 269.0000 1.0000
57.1600 297.0000 1.0000
57.1800 347.0000 1.0000
57.2000 375.0000 1.0000
57.2200 437.0000 1.0000
57.2400 543.0000 1.0000
57.2600 657.0000 1.0000
57.2800 788.0000 1.0000
57.3000 948.0000 1.0000
57.3200 1101.0000 1.0000
57.3400 1232.0000 1.0000
57.3600 1372.0000 1.0000
57.3800 1394.0000 1.0000
57.4000 1273.0000 1.0000
57.4200 1166.0000 1.0000
57.4400 1040.0000 1.0000
57.4600 949.0000 1.0000
57.4800 892.0000 1.0000
57.5000 876.0000 1.0000
57.5200 854.0000 1.0000
57.5400 786.0000 1.0000
57.5600 666.0000 1.0000
57.5800 595.0000 1.0000
57.6000 457.0000 1.0000
57.6200 380.0000 1.0000
57.6400 325.0000 1.0000
57.6600 267.0000 1.0000
57.6800 256.0000 1.0000
57.7000 222.0000 1.0000
57.7200 230.0000 1.0000
57.7400 195.0000 1.0000
57.7600 186.0000 1.0000
57.7800 171.0000 1.0000
57.8000 168.0000 1.0000
57.8200 178.0000 1.0000
57.8400 155.0000 1.0000
57.8600 167.0000 1.0000
57.8800 166.0000 1.0000
57.9000 151.0000 1.0000
57.9200 152.0000 1.0000
57.9400 155.0000 1.0000
57.9600 143.0000 1.0000
57.9800 130.0000 1.0000
58.0000 138.0000 1.0000
58.0200 146.0000 1.0000
58.0400 149.0000 1.0000
58.0600 139.0000 1.0000
58.0800 144.0000 1.0000
58.1000 154.0000 1.0000
58.1200 151.0000 1.0000
58.1400 140.0000 1.0000
58.1600 148.0000 1.0000
58.1800 126.0000 1.0000
58.2000 129.0000 1.0000
58.2200 130.0000 1.0000
58.2400 128.0000 1.0000
58.2600 134.0000 1.0000
58.2800 128.0000 1.0000
58.3000 128.0000 1.0000
58.3200 137.0000 1.0000
58.3400 123.0000 1.0000
58.3600 134.0000 1.0000
58.3800 130.0000 1.0000
58.4000 137.0000 1.0000
58.4200 142.0000 1.0000
58.4400 144.0000 1.0000
58.4600 146.0000 1.0000
58.4800 143.0000 1.0000
58.5000 135.0000 1.0000
58.5200 128.0000 1.0000
58.5400 141.0000 1.0000
58.5600 137.0000 1.0000
58.5800 146.0000 1.0000
58.6000 150.0000 1.0000
58.6200 141.0000 1.0000
58.6400 155.0000 1.0000
58.6600 152.0000 1.0000
58.6800 150.0000 1.0000
58.7000 151.0000 1.0000
58.7200 140.0000 1.0000
58.7400 150.0000 1.0000
58.7600 141.0000 1.0000
58.7800 150.0000 1.0000
58.8000 132.0000 1.0000
58.8200 147.0000 1.0000
58.8400 154.0000 1.0000
58.8600 132.0000 1.0000
58.8800 157.0000 1.0000
58.9000 150.0000 1.0000
58.9200 136.0000 1.0000
58.9400 144.0000 1.0000
58.9600 140.0000 1.0000
58.9800 148.0000 1.0000
59.0000 150.0000 1.0000
59.0200 133.0000 1.0000
59.0400 159.0000 1.0000
59.0600 136.0000 1.0000
59.0800 136.0000 1.0000
59.1000 164.0000 1.0000
59.1200 151.0000 1.0000
59.1400 144.0000 1.0000
59.1600 142.0000 1.0000
59.1800 137.0000 1.0000
59.2000 147.0000 1.0000
59.2200 126.0000 1.0000
59.2400 137.0000 1.0000
59.2600 161.0000 1.0000
59.2800 160.0000 1.0000
59.3000 157.0000 1.0000
59.3200 155.0000 1.0000
59.3400 162.0000 1.0000
59.3600 169.0000 1.0000
59.3800 188.0000 1.0000
59.4000 172.0000 1.0000
59.4200 168.0000 1.0000
59.4400 192.0000 1.0000
59.4600 170.0000 1.0000
59.4800 194.0000 1.0000
59.5000 184.0000 1.0000
59.5200 202.0000 1.0000
59.5400 197.0000 1.0000
59.5600 194.0000 1.0000
59.5800 223.0000 1.0000
59.6000 239.0000 1.0000
59.6200 252.0000 1.0000
59.6400 267.0000 1.0000
59.6600 268.0000 1.0000
59.6800 292.0000 1.0000
59.7000 314.0000 1.0000
59.7200 366.0000 1.0000
59.7400 424.0000 1.0000
59.7600 463.0000 1.0000
59.7800 506.0000 1.0000
59.8000 580.0000 1.0000
59.8200 612.0000 1.0000
59.8400 568.0000 1.0000
59.8600 554.0000 1.0000
59.8800 511.0000 1.0000
59.9000 470.0000 1.0000
59.9200 408.0000 1.0000
59.9400 385.0000 1.0000
59.9600 405.0000 1.0000
59.9800 395.0000 1.0000
60.0000 374.0000 1.0000
60.0200 345.0000 1.0000
60.0400 347.0000 1.0000
60.0600 278.0000 1.0000
60.0800 260.0000 1.0000
60.1000 240.0000 1.0000
60.1200 214.0000 1.0000
60.1400 209.0000 1.0000
60.1600 193.0000 1.0000
60.1800 212.0000 1.0000
60.2000 184.0000 1.0000
60.2200 196.0000 1.0000
60.2400 185.0000 1.0000
60.2600 177.0000 1.0000
60.2800 182.0000 1.0000
60.3000 195.0000 1.0000
60.3200 186.0000 1.0000
60.3400 187.0000 1.0000
60.3600 193.0000 1.0000
60.3800 207.0000 1.0000
60.4000 201.0000 1.0000
60.4200 171.0000 1.0000
60.4400 166.0000 1.0000
60.4600 172.0000 1.0000
60.4800 208.0000 1.0000
60.5000 216.0000 1.0000
60.5200 191.0000 1.0000
60.5400 189.0000 1.0000
60.5600 177.0000 1.0000
60.5800 185.0000 1.0000
60.6000 194.0000 1.0000
60.6200 158.0000 1.0000
60.6400 171.0000 1.0000
60.6600 188.0000 1.0000
60.6800 195.0000 1.0000
60.7000 181.0000 1.0000
60.7200 171.0000 1.0000
60.7400 172.0000 1.0000
60.7600 171.0000 1.0000
60.7800 182.0000 1.0000
60.8000 185.0000 1.0000
60.8200 192.0000 1.0000
60.8400 189.0000 1.0000
60.8600 200.0000 1.0000
60.8800 222.0000 1.0000
60.9000 197.0000 1.0000
60.9200 183.0000 1.0000
60.9400 189.0000 1.0000
60.9600 197.0000 1.0000
60.9800 232.0000 1.0000
61.0000 220.0000 1.0000
61.0200 228.0000 1.0000
61.0400 247.0000 1.0000
61.0600 234.0000 1.0000
61.0800 235.0000 1.0000
61.1000 261.0000 1.0000
61.1200 287.0000 1.0000
61.1400 282.0000 1.0000
61.1600 286.0000 1.0000
61.1800 316.0000 1.0000
61.2000 320.0000 1.0000
61.2200 289.0000 1.0000
61.2400 271.0000 1.0000
61.2600 286.0000 1.0000
61.2800 242.0000 1.0000
61.3000 271.0000 1.0000
61.3200 292.0000 1.0000
61.3400 269.0000 1.0000
61.3600 282.0000 1.0000
61.3800 286.0000 1.0000
61.4000 250.0000 1.0000
61.4200 248.0000 1.0000
61.4400 259.0000 1.0000
61.4600 280.0000 1.0000
61.4800 241.0000 1.0000
61.5000 247.0000 1.0000
61.5200 296.0000 1.0000
61.5400 262.0000 1.0000
61.5600 259.0000 1.0000
61.5800 264.0000 1.0000
61.6000 259.0000 1.0000
61.6200 279.0000 1.0000
61.6400 268.0000 1.0000
61.6600 264.0000 1.0000
61.6800 235.0000 1.0000
61.7000 238.0000 1.0000
61.7200 266.0000 1.0000
61.7400 257.0000 1.0000
61.7600 268.0000 1.0000
61.7800 273.0000 1.0000
61.8000 259.0000 1.0000
61.8200 271.0000 1.0000
61.8400 248.0000 1.0000
61.8600 252.0000 1.0000
61.8800 232.0000 1.0000
61.9000 212.0000 1.0000
61.9200 262.0000 1.0000
61.9400 216.0000 1.0000
61.9600 216.0000 1.0000
61.9800 227.0000 1.0000
62.0000 217.0000 1.0000
62.0200 220.0000 1.0000
62.0400 213.0000 1.0000
62.0600 205.0000 1.0000
62.0800 216.0000 1.0000
62.1000 190.0000 1.0000
62.1200 186.0000 1.0000
62.1400 192.0000 1.0000
62.1600 184.0000 1.0000
62.1800 174.0000 1.0000
62.2000 172.0000 1.0000
62.2200 178.0000 1.0000
62.2400 161.0000 1.0000
62.2600 184.0000 1.0000
62.2800 181.0000 1.0000
62.3000 190.0000 1.0000
62.3200 177.0000 1.0000
62.3400 192.0000 1.0000
62.3600 179.0000 1.0000
62.3800 193.0000 1.0000
62.4000 171.0000 1.0000
62.4200 160.0000 1.0000
62.4400 168.0000 1.0000
62.4600 142.0000 1.0000
62.4800 175.0000 1.0000
62.5000 175.0000 1.0000
62.5200 160.0000 1.0000
62.5400 149.0000 1.0000
62.5600 152.0000 1.0000
62.5800 172.0000 1.0000
62.6000 168.0000 1.0000
62.6200 149.0000 1.0000
62.6400 166.0000 1.0000
62.6600 164.0000 1.0000
62.6800 145.0000 1.0000
62.7000 142.0000 1.0000
62.7200 149.0000 1.0000
62.7400 140.0000 1.0000
62.7600 159.0000 1.0000
62.7800 152.0000 1.0000
62.8000 138.0000 1.0000
62.8200 158.0000 1.0000
62.8400 142.0000 1.0000
62.8600 114.0000 1.0000
62.8800 145.0000 1.0000
62.9000 146.0000 1.0000
62.9200 118.0000 1.0000
62.9400 142.0000 1.0000
62.9600 140.0000 1.0000
62.9800 136.0000 1.0000
63.0000 136.0000 1.0000
63.0200 134.0000 1.0000
63.0400 135.0000 1.0000
63.0600 147.0000 1.0000
63.0800 135.0000 1.0000
63.1000 122.0000 1.0000
63.1200 142.0000 1.0000
63.1400 140.0000 1.0000
63.1600 144.0000 1.0000
63.1800 136.0000 1.0000
63.2000 123.0000 1.0000
63.2200 144.0000 1.0000
63.2400 154.0000 1.0000
63.2600 146.0000 1.0000
63.2800 130.0000 1.0000
63.3000 151.0000 1.0000
63.3200 127.0000 1.0000
63.3400 139.0000 1.0000
63.3600 145.0000 1.0000
63.3800 136.0000 1.0000
63.4000 136.0000 1.0000
63.4200 138.0000 1.0000
63.4400 148.0000 1.0000
63.4600 154.0000 1.0000
63.4800 157.0000 1.0000
63.5000 141.0000 1.0000
63.5200 143.0000 1.0000
63.5400 140.0000 1.0000
63.5600 164.0000 1.0000
63.5800 158.0000 1.0000
63.6000 138.0000 1.0000
63.6200 150.0000 1.0000
63.6400 174.0000 1.0000
63.6600 169.0000 1.0000
63.6800 165.0000 1.0000
63.7000 150.0000 1.0000
63.7200 152.0000 1.0000
63.7400 162.0000 1.0000
63.7600 166.0000 1.0000
63.7800 173.0000 1.0000
63.8000 177.0000 1.0000
63.8200 195.0000 1.0000
63.8400 195.0000 1.0000
63.8600 225.0000 1.0000
63.8800 217.0000 1.0000
63.9000 206.0000 1.0000
63.9200 228.0000 1.0000
63.9400 228.0000 1.0000
63.9600 192.0000 1.0000
63.9800 170.0000 1.0000
64.0000 181.0000 1.0000
64.0200 179.0000 1.0000
64.0400 190.0000 1.0000
64.0600 173.0000 1.0000
64.0800 186.0000 1.0000
64.1000 192.0000 1.0000
64.1200 169.0000 1.0000
64.1400 147.0000 1.0000
64.1600 160.0000 1.0000
64.1800 148.0000 1.0000
64.2000 137.0000 1.0000
64.2200 110.0000 1.0000
64.2400 123.0000 1.0000
64.2600 130.0000 1.0000
64.2800 140.0000 1.0000
64.3000 132.0000 1.0000
64.3200 133.0000 1.0000
64.3400 119.0000 1.0000
64.3600 132.0000 1.0000
64.3800 123.0000 1.0000
64.4000 123.0000 1.0000
64.4200 135.0000 1.0000
64.4400 126.0000 1.0000
64.4600 134.0000 1.0000
64.4800 125.0000 1.0000
64.5000 141.0000 1.0000
64.5200 124.0000 1.0000
64.5400 141.0000 1.0000
64.5600 139.0000 1.0000
64.5800 125.0000 1.0000
64.6000 130.0000 1.0000
64.6200 150.0000 1.0000
64.6400 147.0000 1.0000
64.6600 138.0000 1.0000
64.6800 131.0000 1.0000
64.7000 136.0000 1.0000
64.7200 118.0000 1.0000
64.7400 144.0000 1.0000
64.7600 147.0000 1.0000
64.7800 151.0000 1.0000
64.8000 152.0000 1.0000
64.8200 132.0000 1.0000
64.8400 149.0000 1.0000
64.8600 141.0000 1.0000
64.8800 146.0000 1.0000
64.9000 139.0000 1.0000
64.9200 143.0000 1.0000
64.9400 138.0000 1.0000
64.9600 135.0000 1.0000
64.9800 135.0000 1.0000
65.0000 135.0000 1.0000
*RAS_INT_END
*RAS_DATA_END
