*RAS_DATA_START
*RAS_HEADER_START
*CORR_POS_DB_NAME "Angle Correction ASC6 SC WITH Mono_04082019"
*CORR_POS_GONIO_RADIUS ""
*CORR_POS_NODE_INDEX01 ""
*CORR_POS_NODE_INDEX02 ""
*CORR_POS_NODE_INDEX03 ""
*CORR_POS_NODE_INDEX04 ""
*CORR_POS_NODE_INDEX05 ""
*CORR_POS_NODE_INDEX06 ""
*CORR_POS_NODE_INDEX07 ""
*CORR_POS_NODE_INDEX08 ""
*CORR_POS_NODE_INDEX09 ""
*CORR_POS_NODE_INDEX10 ""
*CORR_POS_NODE_INDEX11 ""
*CORR_POS_NODE_LABEL01 "Si(111)"
*CORR_POS_NODE_LABEL02 "Si(220)"
*CORR_POS_NODE_LABEL03 "Si(311)"
*CORR_POS_NODE_LABEL04 "Si(400)"
*CORR_POS_NODE_LABEL05 "Si(331)"
*CORR_POS_NODE_LABEL06 "Si(422)"
*CORR_POS_NODE_LABEL07 "Si(511)"
*CORR_POS_NODE_LABEL08 "Si(440)"
*CORR_POS_NODE_LABEL09 "Si(531)"
*CORR_POS_NODE_LABEL10 "Si(620)"
*CORR_POS_NODE_LABEL11 "Si(533)"
*CORR_POS_NODE_POS_CALC01 "28.377"
*CORR_POS_NODE_POS_CALC02 "47.2506"
*CORR_POS_NODE_POS_CALC03 "56.0725"
*CORR_POS_NODE_POS_CALC04 "69.0822"
*CORR_POS_NODE_POS_CALC05 "76.3294"
*CORR_POS_NODE_POS_CALC06 "87.9853"
*CORR_POS_NODE_POS_CALC07 "94.9091"
*CORR_POS_NODE_POS_CALC08 "106.668"
*CORR_POS_NODE_POS_CALC09 "114.054"
*CORR_POS_NODE_POS_CALC10 "127.511"
*CORR_POS_NODE_POS_CALC11 "136.864"
*CORR_POS_NODE_POS_MEAS01 "28.5058"
*CORR_POS_NODE_POS_MEAS02 "47.345"
*CORR_POS_NODE_POS_MEAS03 "56.1421"
*CORR_POS_NODE_POS_MEAS04 "69.1304"
*CORR_POS_NODE_POS_MEAS05 "76.366"
*CORR_POS_NODE_POS_MEAS06 "88.0213"
*CORR_POS_NODE_POS_MEAS07 "94.9406"
*CORR_POS_NODE_POS_MEAS08 "106.689"
*CORR_POS_NODE_POS_MEAS09 "114.065"
*CORR_POS_NODE_POS_MEAS10 "127.518"
*CORR_POS_NODE_POS_MEAS11 "136.869"
*CORR_POS_OPT_ATTR "集中法"
*CORR_POS_PARAM_MU ""
*CORR_POS_PARAM_PL ""
*CORR_POS_SEMODEL_TYPE "0"
*CORR_POS_STANDARD_TYPE ""
*CORR_POS_VALUE_ANALYZER "None"
*CORR_POS_VALUE_CMONO "None"
*CORR_POS_VALUE_IMONO "None"
*CORR_POS_VALUE_IS "1.250deg"
*CORR_POS_VALUE_ISL "10.0mm"
*CORR_POS_VALUE_ISOLLER "5.0deg"
*CORR_POS_VALUE_RS1 "1.250deg"
*CORR_POS_VALUE_RS2 "0.3mm"
*CORR_POS_VALUE_RSOLLER "5.0deg"
*CORR_POS_XG_FOCUS_L ""
*CORR_POS_XG_WAVE_TYPE ""
*CORR_POS_XG_WAVE_VALUE ""
*DISP_FMT_X "%.2f"
*DISP_FMT_Y "%.0f"
*DISP_FULLSCALE "6181.8000000000"
*DISP_LINE_COLOR "255.0000000000"
*DISP_LINE_STYLE "0.0000000000"
*DISP_LINE_WIDTH "0.2500000000"
*DISP_NOTE "Collected Data-5"
*DISP_OFFSET_Y "0.0000000000"
*DISP_PEAKSEARCH_UNIT_Y "CPS"
*DISP_RANGE_BOTTOM "0.0000000000"
*DISP_RANGE_LEFT "5.0000000000"
*DISP_RANGE_LOGCUTOFF "0.0100000000"
*DISP_RANGE_RIGHT "65.0000000000"
*DISP_RANGE_TOP "6181.8000000000"
*DISP_SCALE_MODE_Y "0.0000000000"
*DISP_TAB_NAME "Theta/2-Theta"
*DISP_TITLE_Y "Intensity"
*DISP_UNIT_Y "CPS"
*DISP_WINDOW_NAME "MSG_MACROENGINE"
*FILE_COMMENT " "
*FILE_MD5 ""
*FILE_MEMO " "
*FILE_OPERATOR "Administrator"
*FILE_PART_ID "MEAS_PBEA_00223"
*FILE_SAMPLE " "
*FILE_TYPE "RAS_RAW"
*FILE_USERGROUP "System Manager"
*FILE_VERSION "1.0000000000"
*HW_ATTACHMENT_ID "ATT1031"
*HW_ATTACHMENT_NAME "6サンプルチェンジャ|ASC-6"
*HW_COUNTER_ID-0 "CUT0021"
*HW_COUNTER_ID-1 "CUT0020"
*HW_COUNTER_ID-2 "CUT0020"
*HW_COUNTER_ID-3 "CMC0021"
*HW_COUNTER_NAME-0 "SC-70|SC-70"
*HW_COUNTER_NAME-1 "None|None"
*HW_COUNTER_NAME-2 "None|None"
*HW_COUNTER_NAME-3 "検出器モノクロメータ|Detector monochromator"
*HW_COUNTER_SELECT_NAME "SC-70|SC-70"
*HW_ECP_HV "671.5000000000"
*HW_ECP_HV_UNIT "V"
*HW_GONIOMETER_ID "GON0070"
*HW_GONIOMETER_NAME "MiniFlex 300/600|MiniFlex 300/600"
*HW_GONIOMETER_RADIUS-0 "79.0"
*HW_GONIOMETER_RADIUS-1 "91.5"
*HW_GONIOMETER_RADIUS-2 "150.0"
*HW_GONIOMETER_RADIUS-3 "0"
*HW_GONIOMETER_RADIUS-4 "103.4"
*HW_GONIOMETER_RADIUS-5 "150.0"
*HW_GONIOMETER_RADIUS-6 "46.6"
*HW_GONIOMETER_RADIUS-7 "160.0"
*HW_I_OPT_ID-0 "ISL0021"
*HW_I_OPT_ID-1 "ISO0021"
*HW_I_OPT_NAME-0 "発散スリット|Divergence slit"
*HW_I_OPT_NAME-1 "入射平行スリット|Incident parallel slit"
*HW_R_ATTENUATER_AUTOMODE "0"
*HW_R_OPT_ID-0 "RSS0021"
*HW_R_OPT_ID-1 "RSO0021"
*HW_R_OPT_ID-2 "RRS0021"
*HW_R_OPT_NAME-0 "散乱スリット|Scattering slit"
*HW_R_OPT_NAME-1 "受光平行スリット|Receiving soller slit"
*HW_R_OPT_NAME-2 "受光スリット|Receiving slit"
*HW_SAMPLE_HOLDER_ID "SMP0000"
*HW_SAMPLE_HOLDER_NAME "無し|None"
*HW_XG_CURRENT_MAX "15"
*HW_XG_CURRENT_MIN "2"
*HW_XG_CURRENT_RESOLUTION "1"
*HW_XG_CURRENT_UNIT "mA"
*HW_XG_FOCUS "1mm x 10mm"
*HW_XG_FOCUS_TYPE "Normal"
*HW_XG_ID "1060"
*HW_XG_NAME "300W/600W 封入管-B|300W/600W Sealed tube-B"
*HW_XG_TARGET_ATOMIC_NUMBER "29.0000000000"
*HW_XG_TARGET_NAME "Cu"
*HW_XG_TYPE "Hermetic"
*HW_XG_VOLTAGE_MAX "40"
*HW_XG_VOLTAGE_MIN "20"
*HW_XG_VOLTAGE_RESOLUTION "1"
*HW_XG_VOLTAGE_UNIT "kV"
*HW_XG_WATT_MAX "0.600"
*HW_XG_WATT_UNIT "kW"
*HW_XG_WAVE_LENGTH_ALPHA1 "1.540593"
*HW_XG_WAVE_LENGTH_ALPHA2 "1.544414"
*HW_XG_WAVE_LENGTH_BETA "1.392250"
*MEAS_COND_AXIS_NAME-0 "Theta/2-Theta"
*MEAS_COND_AXIS_NAME-1 "Spin"
*MEAS_COND_AXIS_NAME-2 "Change"
*MEAS_COND_AXIS_NAME-3 "Soller(inc.)"
*MEAS_COND_AXIS_NAME-4 "IHS"
*MEAS_COND_AXIS_NAME-5 "DS"
*MEAS_COND_AXIS_NAME-6 "SS"
*MEAS_COND_AXIS_NAME-7 "Soller(rec.)"
*MEAS_COND_AXIS_NAME-8 "RS"
*MEAS_COND_AXIS_NAME-9 "Filter"
*MEAS_COND_AXIS_NAME-10 "Monochromator"
*MEAS_COND_AXIS_NAME-11 "HV"
*MEAS_COND_AXIS_NAME-12 "PHA"
*MEAS_COND_AXIS_NAME_INTERNAL-0 "TwoThetaTheta"
*MEAS_COND_AXIS_NAME_INTERNAL-1 "Spin"
*MEAS_COND_AXIS_NAME_INTERNAL-2 "Change"
*MEAS_COND_AXIS_NAME_INTERNAL-3 "IncidentSollerSlit"
*MEAS_COND_AXIS_NAME_INTERNAL-4 "IncidentAxdSlit"
*MEAS_COND_AXIS_NAME_INTERNAL-5 "IncidentSlitBox"
*MEAS_COND_AXIS_NAME_INTERNAL-6 "ReceivingSlitBox1"
*MEAS_COND_AXIS_NAME_INTERNAL-7 "ReceivingSollerSlit"
*MEAS_COND_AXIS_NAME_INTERNAL-8 "ReceivingSlitBox2"
*MEAS_COND_AXIS_NAME_INTERNAL-9 "Filter"
*MEAS_COND_AXIS_NAME_INTERNAL-10 "CounterMonochromator"
*MEAS_COND_AXIS_NAME_INTERNAL-11 "HV"
*MEAS_COND_AXIS_NAME_INTERNAL-12 "PHA"
*MEAS_COND_AXIS_NAME_MAGICNO-0 "268632064.0000000000"
*MEAS_COND_AXIS_NAME_MAGICNO-1 "16842752.0000000000"
*MEAS_COND_AXIS_NAME_MAGICNO-2 "16842752.0000000000"
*MEAS_COND_AXIS_NAME_MAGICNO-3 "20971521.0000000000"
*MEAS_COND_AXIS_NAME_MAGICNO-4 "22020097.0000000000"
*MEAS_COND_AXIS_NAME_MAGICNO-5 "22020097.0000000000"
*MEAS_COND_AXIS_NAME_MAGICNO-6 "23068673.0000000000"
*MEAS_COND_AXIS_NAME_MAGICNO-7 "20971521.0000000000"
*MEAS_COND_AXIS_NAME_MAGICNO-8 "23068673.0000000000"
*MEAS_COND_AXIS_NAME_MAGICNO-9 "20971521.0000000000"
*MEAS_COND_AXIS_NAME_MAGICNO-10 "20971521.0000000000"
*MEAS_COND_AXIS_NAME_MAGICNO-11 "0.0000000000"
*MEAS_COND_AXIS_NAME_MAGICNO-12 "0.0000000000"
*MEAS_COND_AXIS_OFFSET-0 "0.0000000000"
*MEAS_COND_AXIS_OFFSET-1 "-"
*MEAS_COND_AXIS_OFFSET-2 "-"
*MEAS_COND_AXIS_OFFSET-3 "-"
*MEAS_COND_AXIS_OFFSET-4 "-"
*MEAS_COND_AXIS_OFFSET-5 "-"
*MEAS_COND_AXIS_OFFSET-6 "-"
*MEAS_COND_AXIS_OFFSET-7 "-"
*MEAS_COND_AXIS_OFFSET-8 "-"
*MEAS_COND_AXIS_OFFSET-9 "-"
*MEAS_COND_AXIS_OFFSET-10 "-"
*MEAS_COND_AXIS_OFFSET-11 "-"
*MEAS_COND_AXIS_OFFSET-12 "-"
*MEAS_COND_AXIS_POSITION-0 "65.0000000000"
*MEAS_COND_AXIS_POSITION-1 "0.0000000000"
*MEAS_COND_AXIS_POSITION-2 "1.0000000000"
*MEAS_COND_AXIS_POSITION-3 "5.0deg"
*MEAS_COND_AXIS_POSITION-4 "10.0mm"
*MEAS_COND_AXIS_POSITION-5 "1.250deg"
*MEAS_COND_AXIS_POSITION-6 "1.250deg"
*MEAS_COND_AXIS_POSITION-7 "5.0deg"
*MEAS_COND_AXIS_POSITION-8 "0.3mm"
*MEAS_COND_AXIS_POSITION-9 "None"
*MEAS_COND_AXIS_POSITION-10 "Bent"
*MEAS_COND_AXIS_POSITION-11 "671.5000000000"
*MEAS_COND_AXIS_POSITION-12 "551.2500000000"
*MEAS_COND_AXIS_UNIT-0 "deg"
*MEAS_COND_AXIS_UNIT-1 ""
*MEAS_COND_AXIS_UNIT-2 ""
*MEAS_COND_AXIS_UNIT-3 ""
*MEAS_COND_AXIS_UNIT-4 ""
*MEAS_COND_AXIS_UNIT-5 ""
*MEAS_COND_AXIS_UNIT-6 ""
*MEAS_COND_AXIS_UNIT-7 ""
*MEAS_COND_AXIS_UNIT-8 ""
*MEAS_COND_AXIS_UNIT-9 ""
*MEAS_COND_AXIS_UNIT-10 ""
*MEAS_COND_AXIS_UNIT-11 "V"
*MEAS_COND_AXIS_UNIT-12 "mV"
*MEAS_COND_CORRECTION_SLIT_COUNTERMONO "None"
*MEAS_COND_CORRECTION_SLIT_DS "1.250deg"
*MEAS_COND_CORRECTION_SLIT_FILTER "None"
*MEAS_COND_CORRECTION_SLIT_IHS "10.0mm"
*MEAS_COND_CORRECTION_SLIT_RS "0.3mm"
*MEAS_COND_CORRECTION_SLIT_SOLLER_INC "5.0deg"
*MEAS_COND_CORRECTION_SLIT_SOLLER_REC "5.0deg"
*MEAS_COND_CORRECTION_SLIT_SS "1.250deg"
*MEAS_COND_COUNTER_CNTLOSS_CORR "0.0000000000"
*MEAS_COND_COUNTER_PHABASE "551.2500000000"
*MEAS_COND_COUNTER_PHAWINDOW "926.2500000000"
*MEAS_COND_COUNTER_PHA_UNIT "mV"
*MEAS_COND_COUNTER_TAUDIFF "0.2500000000"
*MEAS_COND_COUNTER_TAUINT "0.7500000000"
*MEAS_COND_IRRADIATION_MODE "OFF"
*MEAS_COND_IRRADIATION_WIDTH ""
*MEAS_COND_OPT_ATTR " "
*MEAS_COND_OPT_NAME ""
*MEAS_COND_UNSYMMETRIC_MODE "OFF"
*MEAS_COND_XG_CURRENT "15.0000000000"
*MEAS_COND_XG_VOLTAGE "40.0000000000"
*MEAS_COND_XG_WAVE_TYPE "Ka"
*MEAS_DATA_COUNT "3001.0000000000"
*MEAS_SCAN_AXIS_X "Theta/2-Theta"
*MEAS_SCAN_AXIS_X_INTERNAL "TwoThetaTheta"
*MEAS_SCAN_END_TIME "07/11/25 02:08:27"
*MEAS_SCAN_MODE "STEP"
*MEAS_SCAN_MONITOR "0"
*MEAS_SCAN_RESOLUTION_X "0.0025"
*MEAS_SCAN_SPEED "2.00"
*MEAS_SCAN_SPEED_UNIT "sec."
*MEAS_SCAN_SPEED_USER "2.00"
*MEAS_SCAN_START "5.0000000000"
*MEAS_SCAN_START_TIME "07/11/25 00:23:11"
*MEAS_SCAN_STEP "0.0200000000"
*MEAS_SCAN_STOP "65.0000000000"
*MEAS_SCAN_UNIT_X "deg"
*MEAS_SCAN_UNIT_Y "counts"
*SLIT_SYSTEM "0"
*RAS_HEADER_END
*RAS_INT_START
5.0000 1161.0000 1.0000
5.0200 1090.0000 1.0000
5.0400 1171.0000 1.0000
5.0600 1074.0000 1.0000
5.0800 1095.0000 1.0000
5.1000 1069.0000 1.0000
5.1200 1123.0000 1.0000
5.1400 1054.0000 1.0000
5.1600 1071.0000 1.0000
5.1800 1063.0000 1.0000
5.2000 1023.0000 1.0000
5.2200 1055.0000 1.0000
5.2400 1033.0000 1.0000
5.2600 994.0000 1.0000
5.2800 990.0000 1.0000
5.3000 969.0000 1.0000
5.3200 1064.0000 1.0000
5.3400 990.0000 1.0000
5.3600 1031.0000 1.0000
5.3800 968.0000 1.0000
5.4000 1010.0000 1.0000
5.4200 982.0000 1.0000
5.4400 951.0000 1.0000
5.4600 951.0000 1.0000
5.4800 951.0000 1.0000
5.5000 944.0000 1.0000
5.5200 1008.0000 1.0000
5.5400 947.0000 1.0000
5.5600 914.0000 1.0000
5.5800 820.0000 1.0000
5.6000 854.0000 1.0000
5.6200 954.0000 1.0000
5.6400 901.0000 1.0000
5.6600 894.0000 1.0000
5.6800 855.0000 1.0000
5.7000 904.0000 1.0000
5.7200 957.0000 1.0000
5.7400 895.0000 1.0000
5.7600 937.0000 1.0000
5.7800 895.0000 1.0000
5.8000 853.0000 1.0000
5.8200 850.0000 1.0000
5.8400 927.0000 1.0000
5.8600 883.0000 1.0000
5.8800 870.0000 1.0000
5.9000 946.0000 1.0000
5.9200 956.0000 1.0000
5.9400 956.0000 1.0000
5.9600 881.0000 1.0000
5.9800 903.0000 1.0000
6.0000 912.0000 1.0000
6.0200 937.0000 1.0000
6.0400 946.0000 1.0000
6.0600 965.0000 1.0000
6.0800 903.0000 1.0000
6.1000 830.0000 1.0000
6.1200 833.0000 1.0000
6.1400 922.0000 1.0000
6.1600 861.0000 1.0000
6.1800 771.0000 1.0000
6.2000 831.0000 1.0000
6.2200 865.0000 1.0000
6.2400 832.0000 1.0000
6.2600 853.0000 1.0000
6.2800 794.0000 1.0000
6.3000 792.0000 1.0000
6.3200 804.0000 1.0000
6.3400 795.0000 1.0000
6.3600 857.0000 1.0000
6.3800 828.0000 1.0000
6.4000 744.0000 1.0000
6.4200 730.0000 1.0000
6.4400 766.0000 1.0000
6.4600 755.0000 1.0000
6.4800 729.0000 1.0000
6.5000 738.0000 1.0000
6.5200 756.0000 1.0000
6.5400 748.0000 1.0000
6.5600 774.0000 1.0000
6.5800 752.0000 1.0000
6.6000 736.0000 1.0000
6.6200 725.0000 1.0000
6.6400 734.0000 1.0000
6.6600 749.0000 1.0000
6.6800 702.0000 1.0000
6.7000 689.0000 1.0000
6.7200 706.0000 1.0000
6.7400 690.0000 1.0000
6.7600 702.0000 1.0000
6.7800 667.0000 1.0000
6.8000 645.0000 1.0000
6.8200 657.0000 1.0000
6.8400 694.0000 1.0000
6.8600 735.0000 1.0000
6.8800 719.0000 1.0000
6.9000 688.0000 1.0000
6.9200 669.0000 1.0000
6.9400 662.0000 1.0000
6.9600 674.0000 1.0000
6.9800 701.0000 1.0000
7.0000 704.0000 1.0000
7.0200 686.0000 1.0000
7.0400 692.0000 1.0000
7.0600 659.0000 1.0000
7.0800 649.0000 1.0000
7.1000 642.0000 1.0000
7.1200 635.0000 1.0000
7.1400 683.0000 1.0000
7.1600 678.0000 1.0000
7.1800 669.0000 1.0000
7.2000 651.0000 1.0000
7.2200 693.0000 1.0000
7.2400 748.0000 1.0000
7.2600 695.0000 1.0000
7.2800 677.0000 1.0000
7.3000 663.0000 1.0000
7.3200 653.0000 1.0000
7.3400 657.0000 1.0000
7.3600 637.0000 1.0000
7.3800 635.0000 1.0000
7.4000 654.0000 1.0000
7.4200 639.0000 1.0000
7.4400 648.0000 1.0000
7.4600 684.0000 1.0000
7.4800 692.0000 1.0000
7.5000 690.0000 1.0000
7.5200 666.0000 1.0000
7.5400 681.0000 1.0000
7.5600 652.0000 1.0000
7.5800 675.0000 1.0000
7.6000 713.0000 1.0000
7.6200 657.0000 1.0000
7.6400 626.0000 1.0000
7.6600 680.0000 1.0000
7.6800 679.0000 1.0000
7.7000 660.0000 1.0000
7.7200 665.0000 1.0000
7.7400 661.0000 1.0000
7.7600 648.0000 1.0000
7.7800 651.0000 1.0000
7.8000 647.0000 1.0000
7.8200 647.0000 1.0000
7.8400 717.0000 1.0000
7.8600 739.0000 1.0000
7.8800 725.0000 1.0000
7.9000 667.0000 1.0000
7.9200 679.0000 1.0000
7.9400 704.0000 1.0000
7.9600 669.0000 1.0000
7.9800 639.0000 1.0000
8.0000 687.0000 1.0000
8.0200 752.0000 1.0000
8.0400 734.0000 1.0000
8.0600 749.0000 1.0000
8.0800 745.0000 1.0000
8.1000 720.0000 1.0000
8.1200 734.0000 1.0000
8.1400 705.0000 1.0000
8.1600 698.0000 1.0000
8.1800 735.0000 1.0000
8.2000 759.0000 1.0000
8.2200 750.0000 1.0000
8.2400 753.0000 1.0000
8.2600 733.0000 1.0000
8.2800 749.0000 1.0000
8.3000 783.0000 1.0000
8.3200 739.0000 1.0000
8.3400 746.0000 1.0000
8.3600 809.0000 1.0000
8.3800 767.0000 1.0000
8.4000 732.0000 1.0000
8.4200 797.0000 1.0000
8.4400 843.0000 1.0000
8.4600 813.0000 1.0000
8.4800 809.0000 1.0000
8.5000 851.0000 1.0000
8.5200 923.0000 1.0000
8.5400 928.0000 1.0000
8.5600 943.0000 1.0000
8.5800 939.0000 1.0000
8.6000 908.0000 1.0000
8.6200 878.0000 1.0000
8.6400 973.0000 1.0000
8.6600 939.0000 1.0000
8.6800 861.0000 1.0000
8.7000 881.0000 1.0000
8.7200 838.0000 1.0000
8.7400 768.0000 1.0000
8.7600 646.0000 1.0000
8.7800 602.0000 1.0000
8.8000 590.0000 1.0000
8.8200 538.0000 1.0000
8.8400 518.0000 1.0000
8.8600 485.0000 1.0000
8.8800 427.0000 1.0000
8.9000 433.0000 1.0000
8.9200 406.0000 1.0000
8.9400 414.0000 1.0000
8.9600 388.0000 1.0000
8.9800 404.0000 1.0000
9.0000 386.0000 1.0000
9.0200 385.0000 1.0000
9.0400 374.0000 1.0000
9.0600 386.0000 1.0000
9.0800 410.0000 1.0000
9.1000 382.0000 1.0000
9.1200 404.0000 1.0000
9.1400 415.0000 1.0000
9.1600 384.0000 1.0000
9.1800 391.0000 1.0000
9.2000 402.0000 1.0000
9.2200 379.0000 1.0000
9.2400 364.0000 1.0000
9.2600 333.0000 1.0000
9.2800 302.0000 1.0000
9.3000 269.0000 1.0000
9.3200 313.0000 1.0000
9.3400 288.0000 1.0000
9.3600 315.0000 1.0000
9.3800 331.0000 1.0000
9.4000 288.0000 1.0000
9.4200 345.0000 1.0000
9.4400 275.0000 1.0000
9.4600 286.0000 1.0000
9.4800 286.0000 1.0000
9.5000 275.0000 1.0000
9.5200 255.0000 1.0000
9.5400 292.0000 1.0000
9.5600 303.0000 1.0000
9.5800 277.0000 1.0000
9.6000 300.0000 1.0000
9.6200 262.0000 1.0000
9.6400 293.0000 1.0000
9.6600 298.0000 1.0000
9.6800 288.0000 1.0000
9.7000 268.0000 1.0000
9.7200 290.0000 1.0000
9.7400 299.0000 1.0000
9.7600 276.0000 1.0000
9.7800 256.0000 1.0000
9.8000 273.0000 1.0000
9.8200 289.0000 1.0000
9.8400 247.0000 1.0000
9.8600 254.0000 1.0000
9.8800 252.0000 1.0000
9.9000 293.0000 1.0000
9.9200 245.0000 1.0000
9.9400 241.0000 1.0000
9.9600 235.0000 1.0000
9.9800 258.0000 1.0000
10.0000 245.0000 1.0000
10.0200 252.0000 1.0000
10.0400 218.0000 1.0000
10.0600 229.0000 1.0000
10.0800 250.0000 1.0000
10.1000 285.0000 1.0000
10.1200 264.0000 1.0000
10.1400 245.0000 1.0000
10.1600 232.0000 1.0000
10.1800 220.0000 1.0000
10.2000 253.0000 1.0000
10.2200 251.0000 1.0000
10.2400 221.0000 1.0000
10.2600 251.0000 1.0000
10.2800 222.0000 1.0000
10.3000 265.0000 1.0000
10.3200 246.0000 1.0000
10.3400 230.0000 1.0000
10.3600 242.0000 1.0000
10.3800 247.0000 1.0000
10.4000 207.0000 1.0000
10.4200 246.0000 1.0000
10.4400 279.0000 1.0000
10.4600 197.0000 1.0000
10.4800 173.0000 1.0000
10.5000 240.0000 1.0000
10.5200 204.0000 1.0000
10.5400 241.0000 1.0000
10.5600 216.0000 1.0000
10.5800 226.0000 1.0000
10.6000 247.0000 1.0000
10.6200 211.0000 1.0000
10.6400 211.0000 1.0000
10.6600 274.0000 1.0000
10.6800 249.0000 1.0000
10.7000 220.0000 1.0000
10.7200 237.0000 1.0000
10.7400 238.0000 1.0000
10.7600 236.0000 1.0000
10.7800 234.0000 1.0000
10.8000 230.0000 1.0000
10.8200 199.0000 1.0000
10.8400 238.0000 1.0000
10.8600 207.0000 1.0000
10.8800 213.0000 1.0000
10.9000 184.0000 1.0000
10.9200 238.0000 1.0000
10.9400 215.0000 1.0000
10.9600 212.0000 1.0000
10.9800 216.0000 1.0000
11.0000 192.0000 1.0000
11.0200 197.0000 1.0000
11.0400 191.0000 1.0000
11.0600 223.0000 1.0000
11.0800 199.0000 1.0000
11.1000 200.0000 1.0000
11.1200 200.0000 1.0000
11.1400 211.0000 1.0000
11.1600 246.0000 1.0000
11.1800 209.0000 1.0000
11.2000 235.0000 1.0000
11.2200 203.0000 1.0000
11.2400 211.0000 1.0000
11.2600 184.0000 1.0000
11.2800 197.0000 1.0000
11.3000 245.0000 1.0000
11.3200 211.0000 1.0000
11.3400 224.0000 1.0000
11.3600 188.0000 1.0000
11.3800 242.0000 1.0000
11.4000 220.0000 1.0000
11.4200 218.0000 1.0000
11.4400 204.0000 1.0000
11.4600 232.0000 1.0000
11.4800 213.0000 1.0000
11.5000 260.0000 1.0000
11.5200 222.0000 1.0000
11.5400 256.0000 1.0000
11.5600 228.0000 1.0000
11.5800 200.0000 1.0000
11.6000 206.0000 1.0000
11.6200 217.0000 1.0000
11.6400 222.0000 1.0000
11.6600 228.0000 1.0000
11.6800 187.0000 1.0000
11.7000 233.0000 1.0000
11.7200 222.0000 1.0000
11.7400 210.0000 1.0000
11.7600 227.0000 1.0000
11.7800 222.0000 1.0000
11.8000 233.0000 1.0000
11.8200 201.0000 1.0000
11.8400 210.0000 1.0000
11.8600 232.0000 1.0000
11.8800 244.0000 1.0000
11.9000 237.0000 1.0000
11.9200 248.0000 1.0000
11.9400 227.0000 1.0000
11.9600 278.0000 1.0000
11.9800 281.0000 1.0000
12.0000 251.0000 1.0000
12.0200 277.0000 1.0000
12.0400 284.0000 1.0000
12.0600 251.0000 1.0000
12.0800 266.0000 1.0000
12.1000 280.0000 1.0000
12.1200 306.0000 1.0000
12.1400 328.0000 1.0000
12.1600 329.0000 1.0000
12.1800 346.0000 1.0000
12.2000 339.0000 1.0000
12.2200 337.0000 1.0000
12.2400 387.0000 1.0000
12.2600 392.0000 1.0000
12.2800 366.0000 1.0000
12.3000 388.0000 1.0000
12.3200 373.0000 1.0000
12.3400 402.0000 1.0000
12.3600 371.0000 1.0000
12.3800 347.0000 1.0000
12.4000 341.0000 1.0000
12.4200 310.0000 1.0000
12.4400 290.0000 1.0000
12.4600 279.0000 1.0000
12.4800 270.0000 1.0000
12.5000 251.0000 1.0000
12.5200 248.0000 1.0000
12.5400 236.0000 1.0000
12.5600 231.0000 1.0000
12.5800 187.0000 1.0000
12.6000 232.0000 1.0000
12.6200 231.0000 1.0000
12.6400 231.0000 1.0000
12.6600 210.0000 1.0000
12.6800 224.0000 1.0000
12.7000 218.0000 1.0000
12.7200 193.0000 1.0000
12.7400 197.0000 1.0000
12.7600 202.0000 1.0000
12.7800 196.0000 1.0000
12.8000 187.0000 1.0000
12.8200 196.0000 1.0000
12.8400 201.0000 1.0000
12.8600 173.0000 1.0000
12.8800 182.0000 1.0000
12.9000 184.0000 1.0000
12.9200 180.0000 1.0000
12.9400 192.0000 1.0000
12.9600 183.0000 1.0000
12.9800 177.0000 1.0000
13.0000 184.0000 1.0000
13.0200 165.0000 1.0000
13.0400 168.0000 1.0000
13.0600 176.0000 1.0000
13.0800 192.0000 1.0000
13.1000 186.0000 1.0000
13.1200 193.0000 1.0000
13.1400 174.0000 1.0000
13.1600 176.0000 1.0000
13.1800 172.0000 1.0000
13.2000 179.0000 1.0000
13.2200 161.0000 1.0000
13.2400 174.0000 1.0000
13.2600 178.0000 1.0000
13.2800 178.0000 1.0000
13.3000 183.0000 1.0000
13.3200 199.0000 1.0000
13.3400 219.0000 1.0000
13.3600 228.0000 1.0000
13.3800 232.0000 1.0000
13.4000 189.0000 1.0000
13.4200 201.0000 1.0000
13.4400 214.0000 1.0000
13.4600 227.0000 1.0000
13.4800 228.0000 1.0000
13.5000 226.0000 1.0000
13.5200 233.0000 1.0000
13.5400 228.0000 1.0000
13.5600 207.0000 1.0000
13.5800 208.0000 1.0000
13.6000 213.0000 1.0000
13.6200 223.0000 1.0000
13.6400 255.0000 1.0000
13.6600 247.0000 1.0000
13.6800 242.0000 1.0000
13.7000 231.0000 1.0000
13.7200 239.0000 1.0000
13.7400 240.0000 1.0000
13.7600 208.0000 1.0000
13.7800 185.0000 1.0000
13.8000 160.0000 1.0000
13.8200 164.0000 1.0000
13.8400 164.0000 1.0000
13.8600 154.0000 1.0000
13.8800 150.0000 1.0000
13.9000 145.0000 1.0000
13.9200 132.0000 1.0000
13.9400 142.0000 1.0000
13.9600 143.0000 1.0000
13.9800 133.0000 1.0000
14.0000 152.0000 1.0000
14.0200 148.0000 1.0000
14.0400 135.0000 1.0000
14.0600 137.0000 1.0000
14.0800 132.0000 1.0000
14.1000 134.0000 1.0000
14.1200 155.0000 1.0000
14.1400 151.0000 1.0000
14.1600 140.0000 1.0000
14.1800 153.0000 1.0000
14.2000 138.0000 1.0000
14.2200 136.0000 1.0000
14.2400 142.0000 1.0000
14.2600 140.0000 1.0000
14.2800 140.0000 1.0000
14.3000 132.0000 1.0000
14.3200 132.0000 1.0000
14.3400 146.0000 1.0000
14.3600 151.0000 1.0000
14.3800 141.0000 1.0000
14.4000 134.0000 1.0000
14.4200 134.0000 1.0000
14.4400 148.0000 1.0000
14.4600 144.0000 1.0000
14.4800 145.0000 1.0000
14.5000 139.0000 1.0000
14.5200 138.0000 1.0000
14.5400 142.0000 1.0000
14.5600 129.0000 1.0000
14.5800 122.0000 1.0000
14.6000 142.0000 1.0000
14.6200 147.0000 1.0000
14.6400 148.0000 1.0000
14.6600 160.0000 1.0000
14.6800 157.0000 1.0000
14.7000 168.0000 1.0000
14.7200 170.0000 1.0000
14.7400 164.0000 1.0000
14.7600 165.0000 1.0000
14.7800 162.0000 1.0000
14.8000 157.0000 1.0000
14.8200 171.0000 1.0000
14.8400 170.0000 1.0000
14.8600 174.0000 1.0000
14.8800 189.0000 1.0000
14.9000 170.0000 1.0000
14.9200 159.0000 1.0000
14.9400 170.0000 1.0000
14.9600 170.0000 1.0000
14.9800 151.0000 1.0000
15.0000 146.0000 1.0000
15.0200 155.0000 1.0000
15.0400 158.0000 1.0000
15.0600 147.0000 1.0000
15.0800 133.0000 1.0000
15.1000 128.0000 1.0000
15.1200 131.0000 1.0000
15.1400 120.0000 1.0000
15.1600 114.0000 1.0000
15.1800 120.0000 1.0000
15.2000 124.0000 1.0000
15.2200 133.0000 1.0000
15.2400 128.0000 1.0000
15.2600 136.0000 1.0000
15.2800 138.0000 1.0000
15.3000 124.0000 1.0000
15.3200 123.0000 1.0000
15.3400 138.0000 1.0000
15.3600 132.0000 1.0000
15.3800 129.0000 1.0000
15.4000 140.0000 1.0000
15.4200 142.0000 1.0000
15.4400 153.0000 1.0000
15.4600 160.0000 1.0000
15.4800 142.0000 1.0000
15.5000 137.0000 1.0000
15.5200 144.0000 1.0000
15.5400 157.0000 1.0000
15.5600 171.0000 1.0000
15.5800 161.0000 1.0000
15.6000 144.0000 1.0000
15.6200 135.0000 1.0000
15.6400 145.0000 1.0000
15.6600 148.0000 1.0000
15.6800 140.0000 1.0000
15.7000 140.0000 1.0000
15.7200 139.0000 1.0000
15.7400 136.0000 1.0000
15.7600 137.0000 1.0000
15.7800 138.0000 1.0000
15.8000 130.0000 1.0000
15.8200 124.0000 1.0000
15.8400 136.0000 1.0000
15.8600 120.0000 1.0000
15.8800 117.0000 1.0000
15.9000 135.0000 1.0000
15.9200 144.0000 1.0000
15.9400 142.0000 1.0000
15.9600 134.0000 1.0000
15.9800 138.0000 1.0000
16.0000 131.0000 1.0000
16.0200 131.0000 1.0000
16.0400 134.0000 1.0000
16.0600 134.0000 1.0000
16.0800 130.0000 1.0000
16.1000 124.0000 1.0000
16.1200 124.0000 1.0000
16.1400 121.0000 1.0000
16.1600 124.0000 1.0000
16.1800 130.0000 1.0000
16.2000 135.0000 1.0000
16.2200 118.0000 1.0000
16.2400 137.0000 1.0000
16.2600 142.0000 1.0000
16.2800 131.0000 1.0000
16.3000 129.0000 1.0000
16.3200 119.0000 1.0000
16.3400 123.0000 1.0000
16.3600 128.0000 1.0000
16.3800 136.0000 1.0000
16.4000 129.0000 1.0000
16.4200 125.0000 1.0000
16.4400 121.0000 1.0000
16.4600 125.0000 1.0000
16.4800 118.0000 1.0000
16.5000 126.0000 1.0000
16.5200 122.0000 1.0000
16.5400 129.0000 1.0000
16.5600 126.0000 1.0000
16.5800 122.0000 1.0000
16.6000 129.0000 1.0000
16.6200 122.0000 1.0000
16.6400 125.0000 1.0000
16.6600 133.0000 1.0000
16.6800 134.0000 1.0000
16.7000 137.0000 1.0000
16.7200 134.0000 1.0000
16.7400 137.0000 1.0000
16.7600 140.0000 1.0000
16.7800 141.0000 1.0000
16.8000 142.0000 1.0000
16.8200 127.0000 1.0000
16.8400 140.0000 1.0000
16.8600 144.0000 1.0000
16.8800 130.0000 1.0000
16.9000 125.0000 1.0000
16.9200 130.0000 1.0000
16.9400 140.0000 1.0000
16.9600 152.0000 1.0000
16.9800 145.0000 1.0000
17.0000 140.0000 1.0000
17.0200 127.0000 1.0000
17.0400 124.0000 1.0000
17.0600 132.0000 1.0000
17.0800 140.0000 1.0000
17.1000 151.0000 1.0000
17.1200 148.0000 1.0000
17.1400 147.0000 1.0000
17.1600 151.0000 1.0000
17.1800 146.0000 1.0000
17.2000 142.0000 1.0000
17.2200 153.0000 1.0000
17.2400 155.0000 1.0000
17.2600 160.0000 1.0000
17.2800 166.0000 1.0000
17.3000 177.0000 1.0000
17.3200 171.0000 1.0000
17.3400 171.0000 1.0000
17.3600 167.0000 1.0000
17.3800 174.0000 1.0000
17.4000 181.0000 1.0000
17.4200 202.0000 1.0000
17.4400 202.0000 1.0000
17.4600 210.0000 1.0000
17.4800 204.0000 1.0000
17.5000 208.0000 1.0000
17.5200 196.0000 1.0000
17.5400 213.0000 1.0000
17.5600 201.0000 1.0000
17.5800 196.0000 1.0000
17.6000 205.0000 1.0000
17.6200 207.0000 1.0000
17.6400 180.0000 1.0000
17.6600 185.0000 1.0000
17.6800 171.0000 1.0000
17.7000 175.0000 1.0000
17.7200 182.0000 1.0000
17.7400 180.0000 1.0000
17.7600 191.0000 1.0000
17.7800 188.0000 1.0000
17.8000 192.0000 1.0000
17.8200 185.0000 1.0000
17.8400 170.0000 1.0000
17.8600 176.0000 1.0000
17.8800 181.0000 1.0000
17.9000 159.0000 1.0000
17.9200 167.0000 1.0000
17.9400 141.0000 1.0000
17.9600 151.0000 1.0000
17.9800 168.0000 1.0000
18.0000 147.0000 1.0000
18.0200 158.0000 1.0000
18.0400 161.0000 1.0000
18.0600 153.0000 1.0000
18.0800 166.0000 1.0000
18.1000 147.0000 1.0000
18.1200 152.0000 1.0000
18.1400 162.0000 1.0000
18.1600 145.0000 1.0000
18.1800 137.0000 1.0000
18.2000 144.0000 1.0000
18.2200 121.0000 1.0000
18.2400 148.0000 1.0000
18.2600 134.0000 1.0000
18.2800 122.0000 1.0000
18.3000 140.0000 1.0000
18.3200 143.0000 1.0000
18.3400 132.0000 1.0000
18.3600 158.0000 1.0000
18.3800 162.0000 1.0000
18.4000 148.0000 1.0000
18.4200 160.0000 1.0000
18.4400 151.0000 1.0000
18.4600 159.0000 1.0000
18.4800 146.0000 1.0000
18.5000 145.0000 1.0000
18.5200 143.0000 1.0000
18.5400 176.0000 1.0000
18.5600 195.0000 1.0000
18.5800 170.0000 1.0000
18.6000 160.0000 1.0000
18.6200 173.0000 1.0000
18.6400 184.0000 1.0000
18.6600 174.0000 1.0000
18.6800 188.0000 1.0000
18.7000 181.0000 1.0000
18.7200 168.0000 1.0000
18.7400 179.0000 1.0000
18.7600 170.0000 1.0000
18.7800 180.0000 1.0000
18.8000 183.0000 1.0000
18.8200 160.0000 1.0000
18.8400 171.0000 1.0000
18.8600 155.0000 1.0000
18.8800 159.0000 1.0000
18.9000 143.0000 1.0000
18.9200 144.0000 1.0000
18.9400 164.0000 1.0000
18.9600 165.0000 1.0000
18.9800 179.0000 1.0000
19.0000 173.0000 1.0000
19.0200 184.0000 1.0000
19.0400 167.0000 1.0000
19.0600 177.0000 1.0000
19.0800 186.0000 1.0000
19.1000 191.0000 1.0000
19.1200 180.0000 1.0000
19.1400 198.0000 1.0000
19.1600 202.0000 1.0000
19.1800 199.0000 1.0000
19.2000 189.0000 1.0000
19.2200 193.0000 1.0000
19.2400 202.0000 1.0000
19.2600 216.0000 1.0000
19.2800 215.0000 1.0000
19.3000 209.0000 1.0000
19.3200 207.0000 1.0000
19.3400 217.0000 1.0000
19.3600 207.0000 1.0000
19.3800 262.0000 1.0000
19.4000 256.0000 1.0000
19.4200 268.0000 1.0000
19.4400 271.0000 1.0000
19.4600 312.0000 1.0000
19.4800 331.0000 1.0000
19.5000 340.0000 1.0000
19.5200 369.0000 1.0000
19.5400 413.0000 1.0000
19.5600 421.0000 1.0000
19.5800 424.0000 1.0000
19.6000 475.0000 1.0000
19.6200 460.0000 1.0000
19.6400 476.0000 1.0000
19.6600 457.0000 1.0000
19.6800 478.0000 1.0000
19.7000 442.0000 1.0000
19.7200 470.0000 1.0000
19.7400 413.0000 1.0000
19.7600 369.0000 1.0000
19.7800 435.0000 1.0000
19.8000 376.0000 1.0000
19.8200 359.0000 1.0000
19.8400 352.0000 1.0000
19.8600 330.0000 1.0000
19.8800 317.0000 1.0000
19.9000 291.0000 1.0000
19.9200 313.0000 1.0000
19.9400 311.0000 1.0000
19.9600 317.0000 1.0000
19.9800 294.0000 1.0000
20.0000 285.0000 1.0000
20.0200 286.0000 1.0000
20.0400 292.0000 1.0000
20.0600 275.0000 1.0000
20.0800 269.0000 1.0000
20.1000 258.0000 1.0000
20.1200 271.0000 1.0000
20.1400 290.0000 1.0000
20.1600 275.0000 1.0000
20.1800 296.0000 1.0000
20.2000 286.0000 1.0000
20.2200 288.0000 1.0000
20.2400 299.0000 1.0000
20.2600 281.0000 1.0000
20.2800 340.0000 1.0000
20.3000 323.0000 1.0000
20.3200 316.0000 1.0000
20.3400 376.0000 1.0000
20.3600 340.0000 1.0000
20.3800 358.0000 1.0000
20.4000 351.0000 1.0000
20.4200 397.0000 1.0000
20.4400 407.0000 1.0000
20.4600 457.0000 1.0000
20.4800 470.0000 1.0000
20.5000 587.0000 1.0000
20.5200 625.0000 1.0000
20.5400 677.0000 1.0000
20.5600 865.0000 1.0000
20.5800 999.0000 1.0000
20.6000 1230.0000 1.0000
20.6200 1467.0000 1.0000
20.6400 1609.0000 1.0000
20.6600 1932.0000 1.0000
20.6800 2009.0000 1.0000
20.7000 2129.0000 1.0000
20.7200 1998.0000 1.0000
20.7400 1908.0000 1.0000
20.7600 1658.0000 1.0000
20.7800 1274.0000 1.0000
20.8000 966.0000 1.0000
20.8200 746.0000 1.0000
20.8400 566.0000 1.0000
20.8600 450.0000 1.0000
20.8800 432.0000 1.0000
20.9000 375.0000 1.0000
20.9200 332.0000 1.0000
20.9400 311.0000 1.0000
20.9600 353.0000 1.0000
20.9800 324.0000 1.0000
21.0000 322.0000 1.0000
21.0200 256.0000 1.0000
21.0400 282.0000 1.0000
21.0600 276.0000 1.0000
21.0800 288.0000 1.0000
21.1000 243.0000 1.0000
21.1200 234.0000 1.0000
21.1400 241.0000 1.0000
21.1600 229.0000 1.0000
21.1800 239.0000 1.0000
21.2000 239.0000 1.0000
21.2200 233.0000 1.0000
21.2400 223.0000 1.0000
21.2600 221.0000 1.0000
21.2800 221.0000 1.0000
21.3000 220.0000 1.0000
21.3200 212.0000 1.0000
21.3400 202.0000 1.0000
21.3600 223.0000 1.0000
21.3800 216.0000 1.0000
21.4000 233.0000 1.0000
21.4200 196.0000 1.0000
21.4400 237.0000 1.0000
21.4600 207.0000 1.0000
21.4800 210.0000 1.0000
21.5000 217.0000 1.0000
21.5200 221.0000 1.0000
21.5400 238.0000 1.0000
21.5600 210.0000 1.0000
21.5800 229.0000 1.0000
21.6000 251.0000 1.0000
21.6200 244.0000 1.0000
21.6400 252.0000 1.0000
21.6600 269.0000 1.0000
21.6800 318.0000 1.0000
21.7000 320.0000 1.0000
21.7200 347.0000 1.0000
21.7400 410.0000 1.0000
21.7600 395.0000 1.0000
21.7800 453.0000 1.0000
21.8000 525.0000 1.0000
21.8200 530.0000 1.0000
21.8400 560.0000 1.0000
21.8600 574.0000 1.0000
21.8800 518.0000 1.0000
21.9000 476.0000 1.0000
21.9200 440.0000 1.0000
21.9400 362.0000 1.0000
21.9600 312.0000 1.0000
21.9800 267.0000 1.0000
22.0000 260.0000 1.0000
22.0200 251.0000 1.0000
22.0400 230.0000 1.0000
22.0600 190.0000 1.0000
22.0800 181.0000 1.0000
22.1000 206.0000 1.0000
22.1200 193.0000 1.0000
22.1400 176.0000 1.0000
22.1600 178.0000 1.0000
22.1800 192.0000 1.0000
22.2000 179.0000 1.0000
22.2200 200.0000 1.0000
22.2400 208.0000 1.0000
22.2600 208.0000 1.0000
22.2800 199.0000 1.0000
22.3000 173.0000 1.0000
22.3200 201.0000 1.0000
22.3400 189.0000 1.0000
22.3600 191.0000 1.0000
22.3800 188.0000 1.0000
22.4000 206.0000 1.0000
22.4200 205.0000 1.0000
22.4400 192.0000 1.0000
22.4600 204.0000 1.0000
22.4800 192.0000 1.0000
22.5000 199.0000 1.0000
22.5200 203.0000 1.0000
22.5400 209.0000 1.0000
22.5600 215.0000 1.0000
22.5800 247.0000 1.0000
22.6000 214.0000 1.0000
22.6200 220.0000 1.0000
22.6400 257.0000 1.0000
22.6600 275.0000 1.0000
22.6800 261.0000 1.0000
22.7000 245.0000 1.0000
22.7200 250.0000 1.0000
22.7400 240.0000 1.0000
22.7600 236.0000 1.0000
22.7800 234.0000 1.0000
22.8000 245.0000 1.0000
22.8200 231.0000 1.0000
22.8400 247.0000 1.0000
22.8600 253.0000 1.0000
22.8800 247.0000 1.0000
22.9000 237.0000 1.0000
22.9200 246.0000 1.0000
22.9400 220.0000 1.0000
22.9600 230.0000 1.0000
22.9800 215.0000 1.0000
23.0000 225.0000 1.0000
23.0200 212.0000 1.0000
23.0400 221.0000 1.0000
23.0600 225.0000 1.0000
23.0800 210.0000 1.0000
23.1000 206.0000 1.0000
23.1200 229.0000 1.0000
23.1400 216.0000 1.0000
23.1600 218.0000 1.0000
23.1800 247.0000 1.0000
23.2000 275.0000 1.0000
23.2200 253.0000 1.0000
23.2400 278.0000 1.0000
23.2600 304.0000 1.0000
23.2800 307.0000 1.0000
23.3000 336.0000 1.0000
23.3200 379.0000 1.0000
23.3400 428.0000 1.0000
23.3600 441.0000 1.0000
23.3800 459.0000 1.0000
23.4000 473.0000 1.0000
23.4200 522.0000 1.0000
23.4400 508.0000 1.0000
23.4600 495.0000 1.0000
23.4800 458.0000 1.0000
23.5000 484.0000 1.0000
23.5200 457.0000 1.0000
23.5400 395.0000 1.0000
23.5600 386.0000 1.0000
23.5800 352.0000 1.0000
23.6000 347.0000 1.0000
23.6200 305.0000 1.0000
23.6400 297.0000 1.0000
23.6600 284.0000 1.0000
23.6800 283.0000 1.0000
23.7000 300.0000 1.0000
23.7200 267.0000 1.0000
23.7400 280.0000 1.0000
23.7600 275.0000 1.0000
23.7800 262.0000 1.0000
23.8000 272.0000 1.0000
23.8200 287.0000 1.0000
23.8400 260.0000 1.0000
23.8600 250.0000 1.0000
23.8800 299.0000 1.0000
23.9000 333.0000 1.0000
23.9200 331.0000 1.0000
23.9400 351.0000 1.0000
23.9600 344.0000 1.0000
23.9800 361.0000 1.0000
24.0000 362.0000 1.0000
24.0200 370.0000 1.0000
24.0400 388.0000 1.0000
24.0600 415.0000 1.0000
24.0800 419.0000 1.0000
24.1000 427.0000 1.0000
24.1200 431.0000 1.0000
24.1400 409.0000 1.0000
24.1600 430.0000 1.0000
24.1800 411.0000 1.0000
24.2000 368.0000 1.0000
24.2200 382.0000 1.0000
24.2400 359.0000 1.0000
24.2600 358.0000 1.0000
24.2800 364.0000 1.0000
24.3000 358.0000 1.0000
24.3200 316.0000 1.0000
24.3400 307.0000 1.0000
24.3600 306.0000 1.0000
24.3800 278.0000 1.0000
24.4000 280.0000 1.0000
24.4200 281.0000 1.0000
24.4400 239.0000 1.0000
24.4600 224.0000 1.0000
24.4800 221.0000 1.0000
24.5000 238.0000 1.0000
24.5200 240.0000 1.0000
24.5400 226.0000 1.0000
24.5600 220.0000 1.0000
24.5800 210.0000 1.0000
24.6000 217.0000 1.0000
24.6200 216.0000 1.0000
24.6400 222.0000 1.0000
24.6600 211.0000 1.0000
24.6800 222.0000 1.0000
24.7000 207.0000 1.0000
24.7200 212.0000 1.0000
24.7400 239.0000 1.0000
24.7600 238.0000 1.0000
24.7800 230.0000 1.0000
24.8000 252.0000 1.0000
24.8200 248.0000 1.0000
24.8400 240.0000 1.0000
24.8600 264.0000 1.0000
24.8800 290.0000 1.0000
24.9000 298.0000 1.0000
24.9200 293.0000 1.0000
24.9400 311.0000 1.0000
24.9600 333.0000 1.0000
24.9800 327.0000 1.0000
25.0000 331.0000 1.0000
25.0200 319.0000 1.0000
25.0400 336.0000 1.0000
25.0600 365.0000 1.0000
25.0800 381.0000 1.0000
25.1000 403.0000 1.0000
25.1200 387.0000 1.0000
25.1400 388.0000 1.0000
25.1600 452.0000 1.0000
25.1800 474.0000 1.0000
25.2000 503.0000 1.0000
25.2200 532.0000 1.0000
25.2400 532.0000 1.0000
25.2600 614.0000 1.0000
25.2800 697.0000 1.0000
25.3000 760.0000 1.0000
25.3200 907.0000 1.0000
25.3400 1018.0000 1.0000
25.3600 1118.0000 1.0000
25.3800 1231.0000 1.0000
25.4000 1315.0000 1.0000
25.4200 1347.0000 1.0000
25.4400 1295.0000 1.0000
25.4600 1209.0000 1.0000
25.4800 1054.0000 1.0000
25.5000 897.0000 1.0000
25.5200 771.0000 1.0000
25.5400 651.0000 1.0000
25.5600 550.0000 1.0000
25.5800 482.0000 1.0000
25.6000 447.0000 1.0000
25.6200 430.0000 1.0000
25.6400 387.0000 1.0000
25.6600 366.0000 1.0000
25.6800 343.0000 1.0000
25.7000 320.0000 1.0000
25.7200 329.0000 1.0000
25.7400 334.0000 1.0000
25.7600 324.0000 1.0000
25.7800 323.0000 1.0000
25.8000 324.0000 1.0000
25.8200 321.0000 1.0000
25.8400 321.0000 1.0000
25.8600 313.0000 1.0000
25.8800 342.0000 1.0000
25.9000 361.0000 1.0000
25.9200 358.0000 1.0000
25.9400 372.0000 1.0000
25.9600 385.0000 1.0000
25.9800 416.0000 1.0000
26.0000 439.0000 1.0000
26.0200 459.0000 1.0000
26.0400 507.0000 1.0000
26.0600 541.0000 1.0000
26.0800 588.0000 1.0000
26.1000 640.0000 1.0000
26.1200 731.0000 1.0000
26.1400 794.0000 1.0000
26.1600 827.0000 1.0000
26.1800 907.0000 1.0000
26.2000 1028.0000 1.0000
26.2200 1138.0000 1.0000
26.2400 1331.0000 1.0000
26.2600 1549.0000 1.0000
26.2800 1829.0000 1.0000
26.3000 2216.0000 1.0000
26.3200 2698.0000 1.0000
26.3400 3391.0000 1.0000
26.3600 4302.0000 1.0000
26.3800 5433.0000 1.0000
26.4000 6721.0000 1.0000
26.4200 7962.0000 1.0000
26.4400 9121.0000 1.0000
26.4600 9987.0000 1.0000
26.4800 10303.0000 1.0000
26.5000 10167.0000 1.0000
26.5200 9184.0000 1.0000
26.5400 7756.0000 1.0000
26.5600 6268.0000 1.0000
26.5800 4833.0000 1.0000
26.6000 3535.0000 1.0000
26.6200 2444.0000 1.0000
26.6400 1732.0000 1.0000
26.6600 1370.0000 1.0000
26.6800 1146.0000 1.0000
26.7000 1002.0000 1.0000
26.7200 917.0000 1.0000
26.7400 862.0000 1.0000
26.7600 822.0000 1.0000
26.7800 768.0000 1.0000
26.8000 732.0000 1.0000
26.8200 708.0000 1.0000
26.8400 676.0000 1.0000
26.8600 639.0000 1.0000
26.8800 577.0000 1.0000
26.9000 576.0000 1.0000
26.9200 573.0000 1.0000
26.9400 538.0000 1.0000
26.9600 505.0000 1.0000
26.9800 480.0000 1.0000
27.0000 474.0000 1.0000
27.0200 481.0000 1.0000
27.0400 456.0000 1.0000
27.0600 415.0000 1.0000
27.0800 438.0000 1.0000
27.1000 448.0000 1.0000
27.1200 424.0000 1.0000
27.1400 424.0000 1.0000
27.1600 451.0000 1.0000
27.1800 458.0000 1.0000
27.2000 458.0000 1.0000
27.2200 499.0000 1.0000
27.2400 509.0000 1.0000
27.2600 527.0000 1.0000
27.2800 588.0000 1.0000
27.3000 608.0000 1.0000
27.3200 605.0000 1.0000
27.3400 635.0000 1.0000
27.3600 673.0000 1.0000
27.3800 684.0000 1.0000
27.4000 690.0000 1.0000
27.4200 732.0000 1.0000
27.4400 735.0000 1.0000
27.4600 734.0000 1.0000
27.4800 778.0000 1.0000
27.5000 822.0000 1.0000
27.5200 890.0000 1.0000
27.5400 942.0000 1.0000
27.5600 998.0000 1.0000
27.5800 1067.0000 1.0000
27.6000 1104.0000 1.0000
27.6200 1082.0000 1.0000
27.6400 1125.0000 1.0000
27.6600 1198.0000 1.0000
27.6800 1210.0000 1.0000
27.7000 1223.0000 1.0000
27.7200 1213.0000 1.0000
27.7400 1229.0000 1.0000
27.7600 1301.0000 1.0000
27.7800 1314.0000 1.0000
27.8000 1261.0000 1.0000
27.8200 1282.0000 1.0000
27.8400 1282.0000 1.0000
27.8600 1229.0000 1.0000
27.8800 1124.0000 1.0000
27.9000 1026.0000 1.0000
27.9200 928.0000 1.0000
27.9400 802.0000 1.0000
27.9600 703.0000 1.0000
27.9800 592.0000 1.0000
28.0000 535.0000 1.0000
28.0200 507.0000 1.0000
28.0400 477.0000 1.0000
28.0600 455.0000 1.0000
28.0800 428.0000 1.0000
28.1000 410.0000 1.0000
28.1200 391.0000 1.0000
28.1400 370.0000 1.0000
28.1600 355.0000 1.0000
28.1800 356.0000 1.0000
28.2000 335.0000 1.0000
28.2200 323.0000 1.0000
28.2400 306.0000 1.0000
28.2600 313.0000 1.0000
28.2800 320.0000 1.0000
28.3000 288.0000 1.0000
28.3200 280.0000 1.0000
28.3400 268.0000 1.0000
28.3600 250.0000 1.0000
28.3800 265.0000 1.0000
28.4000 249.0000 1.0000
28.4200 221.0000 1.0000
28.4400 201.0000 1.0000
28.4600 191.0000 1.0000
28.4800 191.0000 1.0000
28.5000 196.0000 1.0000
28.5200 201.0000 1.0000
28.5400 207.0000 1.0000
28.5600 218.0000 1.0000
28.5800 207.0000 1.0000
28.6000 209.0000 1.0000
28.6200 221.0000 1.0000
28.6400 214.0000 1.0000
28.6600 210.0000 1.0000
28.6800 195.0000 1.0000
28.7000 186.0000 1.0000
28.7200 207.0000 1.0000
28.7400 203.0000 1.0000
28.7600 203.0000 1.0000
28.7800 194.0000 1.0000
28.8000 202.0000 1.0000
28.8200 201.0000 1.0000
28.8400 215.0000 1.0000
28.8600 210.0000 1.0000
28.8800 218.0000 1.0000
28.9000 224.0000 1.0000
28.9200 213.0000 1.0000
28.9400 224.0000 1.0000
28.9600 223.0000 1.0000
28.9800 232.0000 1.0000
29.0000 242.0000 1.0000
29.0200 231.0000 1.0000
29.0400 225.0000 1.0000
29.0600 237.0000 1.0000
29.0800 241.0000 1.0000
29.1000 250.0000 1.0000
29.1200 251.0000 1.0000
29.1400 256.0000 1.0000
29.1600 279.0000 1.0000
29.1800 311.0000 1.0000
29.2000 314.0000 1.0000
29.2200 331.0000 1.0000
29.2400 365.0000 1.0000
29.2600 375.0000 1.0000
29.2800 375.0000 1.0000
29.3000 385.0000 1.0000
29.3200 414.0000 1.0000
29.3400 372.0000 1.0000
29.3600 368.0000 1.0000
29.3800 399.0000 1.0000
29.4000 395.0000 1.0000
29.4200 372.0000 1.0000
29.4400 408.0000 1.0000
29.4600 420.0000 1.0000
29.4800 439.0000 1.0000
29.5000 434.0000 1.0000
29.5200 411.0000 1.0000
29.5400 417.0000 1.0000
29.5600 464.0000 1.0000
29.5800 491.0000 1.0000
29.6000 490.0000 1.0000
29.6200 503.0000 1.0000
29.6400 496.0000 1.0000
29.6600 512.0000 1.0000
29.6800 527.0000 1.0000
29.7000 496.0000 1.0000
29.7200 477.0000 1.0000
29.7400 454.0000 1.0000
29.7600 466.0000 1.0000
29.7800 428.0000 1.0000
29.8000 368.0000 1.0000
29.8200 352.0000 1.0000
29.8400 355.0000 1.0000
29.8600 363.0000 1.0000
29.8800 363.0000 1.0000
29.9000 359.0000 1.0000
29.9200 326.0000 1.0000
29.9400 335.0000 1.0000
29.9600 370.0000 1.0000
29.9800 362.0000 1.0000
30.0000 352.0000 1.0000
30.0200 362.0000 1.0000
30.0400 378.0000 1.0000
30.0600 411.0000 1.0000
30.0800 421.0000 1.0000
30.1000 441.0000 1.0000
30.1200 436.0000 1.0000
30.1400 432.0000 1.0000
30.1600 422.0000 1.0000
30.1800 409.0000 1.0000
30.2000 382.0000 1.0000
30.2200 376.0000 1.0000
30.2400 405.0000 1.0000
30.2600 427.0000 1.0000
30.2800 415.0000 1.0000
30.3000 420.0000 1.0000
30.3200 394.0000 1.0000
30.3400 399.0000 1.0000
30.3600 376.0000 1.0000
30.3800 368.0000 1.0000
30.4000 363.0000 1.0000
30.4200 338.0000 1.0000
30.4400 322.0000 1.0000
30.4600 316.0000 1.0000
30.4800 332.0000 1.0000
30.5000 332.0000 1.0000
30.5200 309.0000 1.0000
30.5400 326.0000 1.0000
30.5600 350.0000 1.0000
30.5800 334.0000 1.0000
30.6000 360.0000 1.0000
30.6200 345.0000 1.0000
30.6400 347.0000 1.0000
30.6600 342.0000 1.0000
30.6800 346.0000 1.0000
30.7000 334.0000 1.0000
30.7200 348.0000 1.0000
30.7400 336.0000 1.0000
30.7600 322.0000 1.0000
30.7800 299.0000 1.0000
30.8000 271.0000 1.0000
30.8200 263.0000 1.0000
30.8400 250.0000 1.0000
30.8600 240.0000 1.0000
30.8800 226.0000 1.0000
30.9000 228.0000 1.0000
30.9200 211.0000 1.0000
30.9400 196.0000 1.0000
30.9600 214.0000 1.0000
30.9800 239.0000 1.0000
31.0000 222.0000 1.0000
31.0200 218.0000 1.0000
31.0400 221.0000 1.0000
31.0600 230.0000 1.0000
31.0800 224.0000 1.0000
31.1000 226.0000 1.0000
31.1200 229.0000 1.0000
31.1400 219.0000 1.0000
31.1600 231.0000 1.0000
31.1800 235.0000 1.0000
31.2000 227.0000 1.0000
31.2200 216.0000 1.0000
31.2400 202.0000 1.0000
31.2600 228.0000 1.0000
31.2800 248.0000 1.0000
31.3000 226.0000 1.0000
31.3200 242.0000 1.0000
31.3400 244.0000 1.0000
31.3600 263.0000 1.0000
31.3800 240.0000 1.0000
31.4000 215.0000 1.0000
31.4200 229.0000 1.0000
31.4400 210.0000 1.0000
31.4600 199.0000 1.0000
31.4800 188.0000 1.0000
31.5000 188.0000 1.0000
31.5200 193.0000 1.0000
31.5400 196.0000 1.0000
31.5600 178.0000 1.0000
31.5800 189.0000 1.0000
31.6000 179.0000 1.0000
31.6200 192.0000 1.0000
31.6400 170.0000 1.0000
31.6600 158.0000 1.0000
31.6800 167.0000 1.0000
31.7000 153.0000 1.0000
31.7200 174.0000 1.0000
31.7400 175.0000 1.0000
31.7600 188.0000 1.0000
31.7800 167.0000 1.0000
31.8000 155.0000 1.0000
31.8200 166.0000 1.0000
31.8400 179.0000 1.0000
31.8600 149.0000 1.0000
31.8800 180.0000 1.0000
31.9000 172.0000 1.0000
31.9200 176.0000 1.0000
31.9400 158.0000 1.0000
31.9600 161.0000 1.0000
31.9800 159.0000 1.0000
32.0000 143.0000 1.0000
32.0200 136.0000 1.0000
32.0400 161.0000 1.0000
32.0600 182.0000 1.0000
32.0800 182.0000 1.0000
32.1000 169.0000 1.0000
32.1200 153.0000 1.0000
32.1400 167.0000 1.0000
32.1600 158.0000 1.0000
32.1800 166.0000 1.0000
32.2000 175.0000 1.0000
32.2200 151.0000 1.0000
32.2400 155.0000 1.0000
32.2600 160.0000 1.0000
32.2800 149.0000 1.0000
32.3000 174.0000 1.0000
32.3200 154.0000 1.0000
32.3400 161.0000 1.0000
32.3600 171.0000 1.0000
32.3800 157.0000 1.0000
32.4000 161.0000 1.0000
32.4200 163.0000 1.0000
32.4400 169.0000 1.0000
32.4600 150.0000 1.0000
32.4800 147.0000 1.0000
32.5000 145.0000 1.0000
32.5200 159.0000 1.0000
32.5400 129.0000 1.0000
32.5600 135.0000 1.0000
32.5800 139.0000 1.0000
32.6000 134.0000 1.0000
32.6200 148.0000 1.0000
32.6400 131.0000 1.0000
32.6600 148.0000 1.0000
32.6800 128.0000 1.0000
32.7000 122.0000 1.0000
32.7200 139.0000 1.0000
32.7400 125.0000 1.0000
32.7600 124.0000 1.0000
32.7800 131.0000 1.0000
32.8000 136.0000 1.0000
32.8200 132.0000 1.0000
32.8400 119.0000 1.0000
32.8600 124.0000 1.0000
32.8800 160.0000 1.0000
32.9000 137.0000 1.0000
32.9200 125.0000 1.0000
32.9400 117.0000 1.0000
32.9600 124.0000 1.0000
32.9800 120.0000 1.0000
33.0000 124.0000 1.0000
33.0200 132.0000 1.0000
33.0400 140.0000 1.0000
33.0600 147.0000 1.0000
33.0800 141.0000 1.0000
33.1000 145.0000 1.0000
33.1200 143.0000 1.0000
33.1400 144.0000 1.0000
33.1600 125.0000 1.0000
33.1800 144.0000 1.0000
33.2000 130.0000 1.0000
33.2200 144.0000 1.0000
33.2400 154.0000 1.0000
33.2600 160.0000 1.0000
33.2800 141.0000 1.0000
33.3000 136.0000 1.0000
33.3200 145.0000 1.0000
33.3400 136.0000 1.0000
33.3600 144.0000 1.0000
33.3800 152.0000 1.0000
33.4000 145.0000 1.0000
33.4200 159.0000 1.0000
33.4400 140.0000 1.0000
33.4600 162.0000 1.0000
33.4800 159.0000 1.0000
33.5000 172.0000 1.0000
33.5200 165.0000 1.0000
33.5400 161.0000 1.0000
33.5600 165.0000 1.0000
33.5800 187.0000 1.0000
33.6000 165.0000 1.0000
33.6200 186.0000 1.0000
33.6400 204.0000 1.0000
33.6600 176.0000 1.0000
33.6800 195.0000 1.0000
33.7000 196.0000 1.0000
33.7200 191.0000 1.0000
33.7400 182.0000 1.0000
33.7600 172.0000 1.0000
33.7800 183.0000 1.0000
33.8000 174.0000 1.0000
33.8200 167.0000 1.0000
33.8400 144.0000 1.0000
33.8600 151.0000 1.0000
33.8800 157.0000 1.0000
33.9000 159.0000 1.0000
33.9200 162.0000 1.0000
33.9400 168.0000 1.0000
33.9600 196.0000 1.0000
33.9800 171.0000 1.0000
34.0000 172.0000 1.0000
34.0200 193.0000 1.0000
34.0400 168.0000 1.0000
34.0600 178.0000 1.0000
34.0800 175.0000 1.0000
34.1000 189.0000 1.0000
34.1200 203.0000 1.0000
34.1400 198.0000 1.0000
34.1600 199.0000 1.0000
34.1800 207.0000 1.0000
34.2000 209.0000 1.0000
34.2200 226.0000 1.0000
34.2400 261.0000 1.0000
34.2600 216.0000 1.0000
34.2800 243.0000 1.0000
34.3000 249.0000 1.0000
34.3200 290.0000 1.0000
34.3400 300.0000 1.0000
34.3600 291.0000 1.0000
34.3800 319.0000 1.0000
34.4000 357.0000 1.0000
34.4200 339.0000 1.0000
34.4400 338.0000 1.0000
34.4600 336.0000 1.0000
34.4800 361.0000 1.0000
34.5000 376.0000 1.0000
34.5200 419.0000 1.0000
34.5400 360.0000 1.0000
34.5600 446.0000 1.0000
34.5800 443.0000 1.0000
34.6000 482.0000 1.0000
34.6200 494.0000 1.0000
34.6400 504.0000 1.0000
34.6600 510.0000 1.0000
34.6800 544.0000 1.0000
34.7000 565.0000 1.0000
34.7200 600.0000 1.0000
34.7400 601.0000 1.0000
34.7600 644.0000 1.0000
34.7800 649.0000 1.0000
34.8000 689.0000 1.0000
34.8200 744.0000 1.0000
34.8400 778.0000 1.0000
34.8600 914.0000 1.0000
34.8800 999.0000 1.0000
34.9000 1133.0000 1.0000
34.9200 1334.0000 1.0000
34.9400 1588.0000 1.0000
34.9600 1728.0000 1.0000
34.9800 1818.0000 1.0000
35.0000 1796.0000 1.0000
35.0200 1851.0000 1.0000
35.0400 1751.0000 1.0000
35.0600 1485.0000 1.0000
35.0800 1298.0000 1.0000
35.1000 1123.0000 1.0000
35.1200 990.0000 1.0000
35.1400 824.0000 1.0000
35.1600 696.0000 1.0000
35.1800 549.0000 1.0000
35.2000 525.0000 1.0000
35.2200 463.0000 1.0000
35.2400 454.0000 1.0000
35.2600 498.0000 1.0000
35.2800 491.0000 1.0000
35.3000 417.0000 1.0000
35.3200 473.0000 1.0000
35.3400 462.0000 1.0000
35.3600 424.0000 1.0000
35.3800 468.0000 1.0000
35.4000 463.0000 1.0000
35.4200 438.0000 1.0000
35.4400 435.0000 1.0000
35.4600 468.0000 1.0000
35.4800 452.0000 1.0000
35.5000 428.0000 1.0000
35.5200 432.0000 1.0000
35.5400 379.0000 1.0000
35.5600 394.0000 1.0000
35.5800 390.0000 1.0000
35.6000 363.0000 1.0000
35.6200 326.0000 1.0000
35.6400 326.0000 1.0000
35.6600 297.0000 1.0000
35.6800 326.0000 1.0000
35.7000 280.0000 1.0000
35.7200 285.0000 1.0000
35.7400 293.0000 1.0000
35.7600 268.0000 1.0000
35.7800 242.0000 1.0000
35.8000 272.0000 1.0000
35.8200 260.0000 1.0000
35.8400 258.0000 1.0000
35.8600 253.0000 1.0000
35.8800 223.0000 1.0000
35.9000 243.0000 1.0000
35.9200 236.0000 1.0000
35.9400 232.0000 1.0000
35.9600 256.0000 1.0000
35.9800 262.0000 1.0000
36.0000 254.0000 1.0000
36.0200 244.0000 1.0000
36.0400 253.0000 1.0000
36.0600 265.0000 1.0000
36.0800 255.0000 1.0000
36.1000 283.0000 1.0000
36.1200 265.0000 1.0000
36.1400 272.0000 1.0000
36.1600 274.0000 1.0000
36.1800 305.0000 1.0000
36.2000 341.0000 1.0000
36.2200 382.0000 1.0000
36.2400 390.0000 1.0000
36.2600 444.0000 1.0000
36.2800 533.0000 1.0000
36.3000 561.0000 1.0000
36.3200 699.0000 1.0000
36.3400 813.0000 1.0000
36.3600 867.0000 1.0000
36.3800 884.0000 1.0000
36.4000 882.0000 1.0000
36.4200 872.0000 1.0000
36.4400 874.0000 1.0000
36.4600 788.0000 1.0000
36.4800 671.0000 1.0000
36.5000 574.0000 1.0000
36.5200 545.0000 1.0000
36.5400 447.0000 1.0000
36.5600 419.0000 1.0000
36.5800 362.0000 1.0000
36.6000 297.0000 1.0000
36.6200 296.0000 1.0000
36.6400 290.0000 1.0000
36.6600 294.0000 1.0000
36.6800 280.0000 1.0000
36.7000 268.0000 1.0000
36.7200 259.0000 1.0000
36.7400 241.0000 1.0000
36.7600 248.0000 1.0000
36.7800 232.0000 1.0000
36.8000 234.0000 1.0000
36.8200 229.0000 1.0000
36.8400 209.0000 1.0000
36.8600 243.0000 1.0000
36.8800 199.0000 1.0000
36.9000 207.0000 1.0000
36.9200 251.0000 1.0000
36.9400 238.0000 1.0000
36.9600 241.0000 1.0000
36.9800 239.0000 1.0000
37.0000 238.0000 1.0000
37.0200 235.0000 1.0000
37.0400 222.0000 1.0000
37.0600 236.0000 1.0000
37.0800 225.0000 1.0000
37.1000 239.0000 1.0000
37.1200 217.0000 1.0000
37.1400 237.0000 1.0000
37.1600 238.0000 1.0000
37.1800 219.0000 1.0000
37.2000 254.0000 1.0000
37.2200 232.0000 1.0000
37.2400 230.0000 1.0000
37.2600 245.0000 1.0000
37.2800 265.0000 1.0000
37.3000 247.0000 1.0000
37.3200 263.0000 1.0000
37.3400 266.0000 1.0000
37.3600 249.0000 1.0000
37.3800 254.0000 1.0000
37.4000 296.0000 1.0000
37.4200 297.0000 1.0000
37.4400 320.0000 1.0000
37.4600 337.0000 1.0000
37.4800 396.0000 1.0000
37.5000 434.0000 1.0000
37.5200 484.0000 1.0000
37.5400 576.0000 1.0000
37.5600 666.0000 1.0000
37.5800 738.0000 1.0000
37.6000 789.0000 1.0000
37.6200 860.0000 1.0000
37.6400 809.0000 1.0000
37.6600 787.0000 1.0000
37.6800 740.0000 1.0000
37.7000 622.0000 1.0000
37.7200 542.0000 1.0000
37.7400 490.0000 1.0000
37.7600 412.0000 1.0000
37.7800 336.0000 1.0000
37.8000 294.0000 1.0000
37.8200 248.0000 1.0000
37.8400 211.0000 1.0000
37.8600 175.0000 1.0000
37.8800 169.0000 1.0000
37.9000 186.0000 1.0000
37.9200 181.0000 1.0000
37.9400 176.0000 1.0000
37.9600 181.0000 1.0000
37.9800 169.0000 1.0000
38.0000 166.0000 1.0000
38.0200 155.0000 1.0000
38.0400 152.0000 1.0000
38.0600 164.0000 1.0000
38.0800 156.0000 1.0000
38.1000 152.0000 1.0000
38.1200 154.0000 1.0000
38.1400 141.0000 1.0000
38.1600 145.0000 1.0000
38.1800 145.0000 1.0000
38.2000 137.0000 1.0000
38.2200 141.0000 1.0000
38.2400 147.0000 1.0000
38.2600 131.0000 1.0000
38.2800 116.0000 1.0000
38.3000 130.0000 1.0000
38.3200 130.0000 1.0000
38.3400 148.0000 1.0000
38.3600 143.0000 1.0000
38.3800 137.0000 1.0000
38.4000 141.0000 1.0000
38.4200 129.0000 1.0000
38.4400 120.0000 1.0000
38.4600 128.0000 1.0000
38.4800 123.0000 1.0000
38.5000 123.0000 1.0000
38.5200 130.0000 1.0000
38.5400 133.0000 1.0000
38.5600 130.0000 1.0000
38.5800 147.0000 1.0000
38.6000 153.0000 1.0000
38.6200 145.0000 1.0000
38.6400 149.0000 1.0000
38.6600 147.0000 1.0000
38.6800 133.0000 1.0000
38.7000 152.0000 1.0000
38.7200 158.0000 1.0000
38.7400 155.0000 1.0000
38.7600 162.0000 1.0000
38.7800 168.0000 1.0000
38.8000 166.0000 1.0000
38.8200 162.0000 1.0000
38.8400 157.0000 1.0000
38.8600 154.0000 1.0000
38.8800 162.0000 1.0000
38.9000 174.0000 1.0000
38.9200 181.0000 1.0000
38.9400 177.0000 1.0000
38.9600 170.0000 1.0000
38.9800 169.0000 1.0000
39.0000 178.0000 1.0000
39.0200 185.0000 1.0000
39.0400 193.0000 1.0000
39.0600 203.0000 1.0000
39.0800 205.0000 1.0000
39.1000 218.0000 1.0000
39.1200 221.0000 1.0000
39.1400 239.0000 1.0000
39.1600 270.0000 1.0000
39.1800 319.0000 1.0000
39.2000 373.0000 1.0000
39.2200 464.0000 1.0000
39.2400 553.0000 1.0000
39.2600 622.0000 1.0000
39.2800 694.0000 1.0000
39.3000 768.0000 1.0000
39.3200 767.0000 1.0000
39.3400 752.0000 1.0000
39.3600 735.0000 1.0000
39.3800 643.0000 1.0000
39.4000 559.0000 1.0000
39.4200 502.0000 1.0000
39.4400 433.0000 1.0000
39.4600 380.0000 1.0000
39.4800 315.0000 1.0000
39.5000 275.0000 1.0000
39.5200 240.0000 1.0000
39.5400 199.0000 1.0000
39.5600 186.0000 1.0000
39.5800 177.0000 1.0000
39.6000 180.0000 1.0000
39.6200 179.0000 1.0000
39.6400 178.0000 1.0000
39.6600 179.0000 1.0000
39.6800 167.0000 1.0000
39.7000 150.0000 1.0000
39.7200 143.0000 1.0000
39.7400 173.0000 1.0000
39.7600 178.0000 1.0000
39.7800 184.0000 1.0000
39.8000 181.0000 1.0000
39.8200 172.0000 1.0000
39.8400 169.0000 1.0000
39.8600 172.0000 1.0000
39.8800 188.0000 1.0000
39.9000 190.0000 1.0000
39.9200 189.0000 1.0000
39.9400 197.0000 1.0000
39.9600 216.0000 1.0000
39.9800 219.0000 1.0000
40.0000 240.0000 1.0000
40.0200 262.0000 1.0000
40.0400 275.0000 1.0000
40.0600 326.0000 1.0000
40.0800 383.0000 1.0000
40.1000 411.0000 1.0000
40.1200 426.0000 1.0000
40.1400 444.0000 1.0000
40.1600 451.0000 1.0000
40.1800 443.0000 1.0000
40.2000 415.0000 1.0000
40.2200 366.0000 1.0000
40.2400 326.0000 1.0000
40.2600 313.0000 1.0000
40.2800 297.0000 1.0000
40.3000 258.0000 1.0000
40.3200 230.0000 1.0000
40.3400 211.0000 1.0000
40.3600 201.0000 1.0000
40.3800 198.0000 1.0000
40.4000 180.0000 1.0000
40.4200 179.0000 1.0000
40.4400 172.0000 1.0000
40.4600 166.0000 1.0000
40.4800 169.0000 1.0000
40.5000 168.0000 1.0000
40.5200 171.0000 1.0000
40.5400 171.0000 1.0000
40.5600 186.0000 1.0000
40.5800 200.0000 1.0000
40.6000 183.0000 1.0000
40.6200 172.0000 1.0000
40.6400 189.0000 1.0000
40.6600 178.0000 1.0000
40.6800 172.0000 1.0000
40.7000 174.0000 1.0000
40.7200 167.0000 1.0000
40.7400 181.0000 1.0000
40.7600 178.0000 1.0000
40.7800 168.0000 1.0000
40.8000 182.0000 1.0000
40.8200 183.0000 1.0000
40.8400 179.0000 1.0000
40.8600 182.0000 1.0000
40.8800 173.0000 1.0000
40.9000 162.0000 1.0000
40.9200 171.0000 1.0000
40.9400 179.0000 1.0000
40.9600 166.0000 1.0000
40.9800 152.0000 1.0000
41.0000 152.0000 1.0000
41.0200 159.0000 1.0000
41.0400 174.0000 1.0000
41.0600 167.0000 1.0000
41.0800 157.0000 1.0000
41.1000 165.0000 1.0000
41.1200 172.0000 1.0000
41.1400 174.0000 1.0000
41.1600 167.0000 1.0000
41.1800 164.0000 1.0000
41.2000 163.0000 1.0000
41.2200 165.0000 1.0000
41.2400 163.0000 1.0000
41.2600 171.0000 1.0000
41.2800 167.0000 1.0000
41.3000 161.0000 1.0000
41.3200 163.0000 1.0000
41.3400 158.0000 1.0000
41.3600 160.0000 1.0000
41.3800 161.0000 1.0000
41.4000 162.0000 1.0000
41.4200 175.0000 1.0000
41.4400 189.0000 1.0000
41.4600 189.0000 1.0000
41.4800 192.0000 1.0000
41.5000 206.0000 1.0000
41.5200 214.0000 1.0000
41.5400 217.0000 1.0000
41.5600 207.0000 1.0000
41.5800 205.0000 1.0000
41.6000 204.0000 1.0000
41.6200 209.0000 1.0000
41.6400 224.0000 1.0000
41.6600 221.0000 1.0000
41.6800 228.0000 1.0000
41.7000 227.0000 1.0000
41.7200 219.0000 1.0000
41.7400 212.0000 1.0000
41.7600 210.0000 1.0000
41.7800 209.0000 1.0000
41.8000 227.0000 1.0000
41.8200 226.0000 1.0000
41.8400 200.0000 1.0000
41.8600 228.0000 1.0000
41.8800 231.0000 1.0000
41.9000 224.0000 1.0000
41.9200 227.0000 1.0000
41.9400 227.0000 1.0000
41.9600 259.0000 1.0000
41.9800 262.0000 1.0000
42.0000 256.0000 1.0000
42.0200 272.0000 1.0000
42.0400 278.0000 1.0000
42.0600 278.0000 1.0000
42.0800 306.0000 1.0000
42.1000 323.0000 1.0000
42.1200 326.0000 1.0000
42.1400 344.0000 1.0000
42.1600 384.0000 1.0000
42.1800 383.0000 1.0000
42.2000 446.0000 1.0000
42.2200 510.0000 1.0000
42.2400 588.0000 1.0000
42.2600 636.0000 1.0000
42.2800 671.0000 1.0000
42.3000 660.0000 1.0000
42.3200 676.0000 1.0000
42.3400 672.0000 1.0000
42.3600 601.0000 1.0000
42.3800 553.0000 1.0000
42.4000 491.0000 1.0000
42.4200 458.0000 1.0000
42.4400 394.0000 1.0000
42.4600 339.0000 1.0000
42.4800 325.0000 1.0000
42.5000 288.0000 1.0000
42.5200 285.0000 1.0000
42.5400 269.0000 1.0000
42.5600 234.0000 1.0000
42.5800 234.0000 1.0000
42.6000 219.0000 1.0000
42.6200 238.0000 1.0000
42.6400 238.0000 1.0000
42.6600 221.0000 1.0000
42.6800 234.0000 1.0000
42.7000 215.0000 1.0000
42.7200 227.0000 1.0000
42.7400 219.0000 1.0000
42.7600 226.0000 1.0000
42.7800 219.0000 1.0000
42.8000 223.0000 1.0000
42.8200 222.0000 1.0000
42.8400 251.0000 1.0000
42.8600 242.0000 1.0000
42.8800 240.0000 1.0000
42.9000 237.0000 1.0000
42.9200 246.0000 1.0000
42.9400 253.0000 1.0000
42.9600 273.0000 1.0000
42.9800 292.0000 1.0000
43.0000 311.0000 1.0000
43.0200 388.0000 1.0000
43.0400 421.0000 1.0000
43.0600 516.0000 1.0000
43.0800 658.0000 1.0000
43.1000 796.0000 1.0000
43.1200 996.0000 1.0000
43.1400 1215.0000 1.0000
43.1600 1392.0000 1.0000
43.1800 1594.0000 1.0000
43.2000 1680.0000 1.0000
43.2200 1701.0000 1.0000
43.2400 1632.0000 1.0000
43.2600 1495.0000 1.0000
43.2800 1309.0000 1.0000
43.3000 1150.0000 1.0000
43.3200 993.0000 1.0000
43.3400 838.0000 1.0000
43.3600 731.0000 1.0000
43.3800 601.0000 1.0000
43.4000 441.0000 1.0000
43.4200 355.0000 1.0000
43.4400 286.0000 1.0000
43.4600 242.0000 1.0000
43.4800 221.0000 1.0000
43.5000 228.0000 1.0000
43.5200 206.0000 1.0000
43.5400 187.0000 1.0000
43.5600 151.0000 1.0000
43.5800 174.0000 1.0000
43.6000 176.0000 1.0000
43.6200 161.0000 1.0000
43.6400 174.0000 1.0000
43.6600 176.0000 1.0000
43.6800 153.0000 1.0000
43.7000 154.0000 1.0000
43.7200 153.0000 1.0000
43.7400 164.0000 1.0000
43.7600 154.0000 1.0000
43.7800 138.0000 1.0000
43.8000 140.0000 1.0000
43.8200 153.0000 1.0000
43.8400 162.0000 1.0000
43.8600 176.0000 1.0000
43.8800 165.0000 1.0000
43.9000 155.0000 1.0000
43.9200 155.0000 1.0000
43.9400 151.0000 1.0000
43.9600 141.0000 1.0000
43.9800 151.0000 1.0000
44.0000 154.0000 1.0000
44.0200 152.0000 1.0000
44.0400 162.0000 1.0000
44.0600 182.0000 1.0000
44.0800 178.0000 1.0000
44.1000 173.0000 1.0000
44.1200 168.0000 1.0000
44.1400 171.0000 1.0000
44.1600 161.0000 1.0000
44.1800 164.0000 1.0000
44.2000 161.0000 1.0000
44.2200 167.0000 1.0000
44.2400 168.0000 1.0000
44.2600 158.0000 1.0000
44.2800 147.0000 1.0000
44.3000 148.0000 1.0000
44.3200 168.0000 1.0000
44.3400 145.0000 1.0000
44.3600 142.0000 1.0000
44.3800 146.0000 1.0000
44.4000 153.0000 1.0000
44.4200 138.0000 1.0000
44.4400 143.0000 1.0000
44.4600 135.0000 1.0000
44.4800 122.0000 1.0000
44.5000 145.0000 1.0000
44.5200 135.0000 1.0000
44.5400 126.0000 1.0000
44.5600 168.0000 1.0000
44.5800 143.0000 1.0000
44.6000 169.0000 1.0000
44.6200 159.0000 1.0000
44.6400 163.0000 1.0000
44.6600 179.0000 1.0000
44.6800 176.0000 1.0000
44.7000 173.0000 1.0000
44.7200 179.0000 1.0000
44.7400 174.0000 1.0000
44.7600 175.0000 1.0000
44.7800 210.0000 1.0000
44.8000 182.0000 1.0000
44.8200 174.0000 1.0000
44.8400 179.0000 1.0000
44.8600 184.0000 1.0000
44.8800 161.0000 1.0000
44.9000 165.0000 1.0000
44.9200 196.0000 1.0000
44.9400 186.0000 1.0000
44.9600 197.0000 1.0000
44.9800 173.0000 1.0000
45.0000 206.0000 1.0000
45.0200 186.0000 1.0000
45.0400 201.0000 1.0000
45.0600 215.0000 1.0000
45.0800 167.0000 1.0000
45.1000 204.0000 1.0000
45.1200 172.0000 1.0000
45.1400 203.0000 1.0000
45.1600 187.0000 1.0000
45.1800 212.0000 1.0000
45.2000 200.0000 1.0000
45.2200 195.0000 1.0000
45.2400 197.0000 1.0000
45.2600 188.0000 1.0000
45.2800 170.0000 1.0000
45.3000 232.0000 1.0000
45.3200 235.0000 1.0000
45.3400 219.0000 1.0000
45.3600 209.0000 1.0000
45.3800 200.0000 1.0000
45.4000 191.0000 1.0000
45.4200 221.0000 1.0000
45.4400 219.0000 1.0000
45.4600 221.0000 1.0000
45.4800 229.0000 1.0000
45.5000 215.0000 1.0000
45.5200 273.0000 1.0000
45.5400 293.0000 1.0000
45.5600 362.0000 1.0000
45.5800 390.0000 1.0000
45.6000 433.0000 1.0000
45.6200 459.0000 1.0000
45.6400 426.0000 1.0000
45.6600 451.0000 1.0000
45.6800 421.0000 1.0000
45.7000 413.0000 1.0000
45.7200 373.0000 1.0000
45.7400 361.0000 1.0000
45.7600 310.0000 1.0000
45.7800 303.0000 1.0000
45.8000 284.0000 1.0000
45.8200 247.0000 1.0000
45.8400 242.0000 1.0000
45.8600 218.0000 1.0000
45.8800 202.0000 1.0000
45.9000 192.0000 1.0000
45.9200 158.0000 1.0000
45.9400 191.0000 1.0000
45.9600 188.0000 1.0000
45.9800 165.0000 1.0000
46.0000 149.0000 1.0000
46.0200 166.0000 1.0000
46.0400 173.0000 1.0000
46.0600 170.0000 1.0000
46.0800 161.0000 1.0000
46.1000 145.0000 1.0000
46.1200 158.0000 1.0000
46.1400 148.0000 1.0000
46.1600 155.0000 1.0000
46.1800 126.0000 1.0000
46.2000 136.0000 1.0000
46.2200 141.0000 1.0000
46.2400 145.0000 1.0000
46.2600 134.0000 1.0000
46.2800 154.0000 1.0000
46.3000 134.0000 1.0000
46.3200 129.0000 1.0000
46.3400 124.0000 1.0000
46.3600 110.0000 1.0000
46.3800 121.0000 1.0000
46.4000 128.0000 1.0000
46.4200 119.0000 1.0000
46.4400 127.0000 1.0000
46.4600 120.0000 1.0000
46.4800 142.0000 1.0000
46.5000 127.0000 1.0000
46.5200 128.0000 1.0000
46.5400 122.0000 1.0000
46.5600 114.0000 1.0000
46.5800 123.0000 1.0000
46.6000 132.0000 1.0000
46.6200 127.0000 1.0000
46.6400 104.0000 1.0000
46.6600 125.0000 1.0000
46.6800 132.0000 1.0000
46.7000 110.0000 1.0000
46.7200 130.0000 1.0000
46.7400 135.0000 1.0000
46.7600 122.0000 1.0000
46.7800 132.0000 1.0000
46.8000 139.0000 1.0000
46.8200 131.0000 1.0000
46.8400 134.0000 1.0000
46.8600 144.0000 1.0000
46.8800 141.0000 1.0000
46.9000 121.0000 1.0000
46.9200 150.0000 1.0000
46.9400 138.0000 1.0000
46.9600 142.0000 1.0000
46.9800 132.0000 1.0000
47.0000 135.0000 1.0000
47.0200 129.0000 1.0000
47.0400 129.0000 1.0000
47.0600 117.0000 1.0000
47.0800 100.0000 1.0000
47.1000 117.0000 1.0000
47.1200 135.0000 1.0000
47.1400 129.0000 1.0000
47.1600 112.0000 1.0000
47.1800 112.0000 1.0000
47.2000 107.0000 1.0000
47.2200 108.0000 1.0000
47.2400 129.0000 1.0000
47.2600 121.0000 1.0000
47.2800 109.0000 1.0000
47.3000 113.0000 1.0000
47.3200 125.0000 1.0000
47.3400 124.0000 1.0000
47.3600 131.0000 1.0000
47.3800 122.0000 1.0000
47.4000 116.0000 1.0000
47.4200 113.0000 1.0000
47.4400 109.0000 1.0000
47.4600 114.0000 1.0000
47.4800 119.0000 1.0000
47.5000 116.0000 1.0000
47.5200 122.0000 1.0000
47.5400 122.0000 1.0000
47.5600 106.0000 1.0000
47.5800 122.0000 1.0000
47.6000 120.0000 1.0000
47.6200 123.0000 1.0000
47.6400 132.0000 1.0000
47.6600 131.0000 1.0000
47.6800 134.0000 1.0000
47.7000 128.0000 1.0000
47.7200 143.0000 1.0000
47.7400 124.0000 1.0000
47.7600 113.0000 1.0000
47.7800 111.0000 1.0000
47.8000 119.0000 1.0000
47.8200 137.0000 1.0000
47.8400 128.0000 1.0000
47.8600 121.0000 1.0000
47.8800 121.0000 1.0000
47.9000 131.0000 1.0000
47.9200 128.0000 1.0000
47.9400 119.0000 1.0000
47.9600 121.0000 1.0000
47.9800 122.0000 1.0000
48.0000 126.0000 1.0000
48.0200 142.0000 1.0000
48.0400 130.0000 1.0000
48.0600 119.0000 1.0000
48.0800 138.0000 1.0000
48.1000 135.0000 1.0000
48.1200 136.0000 1.0000
48.1400 142.0000 1.0000
48.1600 132.0000 1.0000
48.1800 121.0000 1.0000
48.2000 145.0000 1.0000
48.2200 154.0000 1.0000
48.2400 142.0000 1.0000
48.2600 147.0000 1.0000
48.2800 140.0000 1.0000
48.3000 139.0000 1.0000
48.3200 133.0000 1.0000
48.3400 131.0000 1.0000
48.3600 127.0000 1.0000
48.3800 123.0000 1.0000
48.4000 123.0000 1.0000
48.4200 118.0000 1.0000
48.4400 127.0000 1.0000
48.4600 126.0000 1.0000
48.4800 132.0000 1.0000
48.5000 133.0000 1.0000
48.5200 116.0000 1.0000
48.5400 112.0000 1.0000
48.5600 116.0000 1.0000
48.5800 115.0000 1.0000
48.6000 110.0000 1.0000
48.6200 120.0000 1.0000
48.6400 131.0000 1.0000
48.6600 123.0000 1.0000
48.6800 113.0000 1.0000
48.7000 121.0000 1.0000
48.7200 123.0000 1.0000
48.7400 120.0000 1.0000
48.7600 127.0000 1.0000
48.7800 119.0000 1.0000
48.8000 112.0000 1.0000
48.8200 120.0000 1.0000
48.8400 130.0000 1.0000
48.8600 134.0000 1.0000
48.8800 135.0000 1.0000
48.9000 135.0000 1.0000
48.9200 137.0000 1.0000
48.9400 135.0000 1.0000
48.9600 139.0000 1.0000
48.9800 139.0000 1.0000
49.0000 134.0000 1.0000
49.0200 155.0000 1.0000
49.0400 171.0000 1.0000
49.0600 168.0000 1.0000
49.0800 175.0000 1.0000
49.1000 178.0000 1.0000
49.1200 172.0000 1.0000
49.1400 169.0000 1.0000
49.1600 161.0000 1.0000
49.1800 159.0000 1.0000
49.2000 171.0000 1.0000
49.2200 165.0000 1.0000
49.2400 153.0000 1.0000
49.2600 158.0000 1.0000
49.2800 173.0000 1.0000
49.3000 156.0000 1.0000
49.3200 144.0000 1.0000
49.3400 148.0000 1.0000
49.3600 153.0000 1.0000
49.3800 163.0000 1.0000
49.4000 162.0000 1.0000
49.4200 175.0000 1.0000
49.4400 197.0000 1.0000
49.4600 211.0000 1.0000
49.4800 197.0000 1.0000
49.5000 184.0000 1.0000
49.5200 215.0000 1.0000
49.5400 213.0000 1.0000
49.5600 187.0000 1.0000
49.5800 208.0000 1.0000
49.6000 236.0000 1.0000
49.6200 226.0000 1.0000
49.6400 224.0000 1.0000
49.6600 249.0000 1.0000
49.6800 258.0000 1.0000
49.7000 242.0000 1.0000
49.7200 271.0000 1.0000
49.7400 270.0000 1.0000
49.7600 286.0000 1.0000
49.7800 317.0000 1.0000
49.8000 305.0000 1.0000
49.8200 374.0000 1.0000
49.8400 453.0000 1.0000
49.8600 499.0000 1.0000
49.8800 593.0000 1.0000
49.9000 660.0000 1.0000
49.9200 799.0000 1.0000
49.9400 989.0000 1.0000
49.9600 1096.0000 1.0000
49.9800 1159.0000 1.0000
50.0000 1207.0000 1.0000
50.0200 1182.0000 1.0000
50.0400 1128.0000 1.0000
50.0600 986.0000 1.0000
50.0800 894.0000 1.0000
50.1000 793.0000 1.0000
50.1200 698.0000 1.0000
50.1400 665.0000 1.0000
50.1600 592.0000 1.0000
50.1800 492.0000 1.0000
50.2000 413.0000 1.0000
50.2200 347.0000 1.0000
50.2400 278.0000 1.0000
50.2600 235.0000 1.0000
50.2800 219.0000 1.0000
50.3000 191.0000 1.0000
50.3200 169.0000 1.0000
50.3400 186.0000 1.0000
50.3600 180.0000 1.0000
50.3800 185.0000 1.0000
50.4000 197.0000 1.0000
50.4200 204.0000 1.0000
50.4400 201.0000 1.0000
50.4600 199.0000 1.0000
50.4800 193.0000 1.0000
50.5000 219.0000 1.0000
50.5200 205.0000 1.0000
50.5400 206.0000 1.0000
50.5600 219.0000 1.0000
50.5800 209.0000 1.0000
50.6000 211.0000 1.0000
50.6200 236.0000 1.0000
50.6400 209.0000 1.0000
50.6600 191.0000 1.0000
50.6800 185.0000 1.0000
50.7000 176.0000 1.0000
50.7200 166.0000 1.0000
50.7400 176.0000 1.0000
50.7600 190.0000 1.0000
50.7800 162.0000 1.0000
50.8000 162.0000 1.0000
50.8200 152.0000 1.0000
50.8400 160.0000 1.0000
50.8600 140.0000 1.0000
50.8800 130.0000 1.0000
50.9000 123.0000 1.0000
50.9200 146.0000 1.0000
50.9400 143.0000 1.0000
50.9600 140.0000 1.0000
50.9800 141.0000 1.0000
51.0000 154.0000 1.0000
51.0200 150.0000 1.0000
51.0400 160.0000 1.0000
51.0600 157.0000 1.0000
51.0800 172.0000 1.0000
51.1000 168.0000 1.0000
51.1200 164.0000 1.0000
51.1400 167.0000 1.0000
51.1600 154.0000 1.0000
51.1800 157.0000 1.0000
51.2000 156.0000 1.0000
51.2200 166.0000 1.0000
51.2400 156.0000 1.0000
51.2600 148.0000 1.0000
51.2800 138.0000 1.0000
51.3000 177.0000 1.0000
51.3200 194.0000 1.0000
51.3400 150.0000 1.0000
51.3600 164.0000 1.0000
51.3800 163.0000 1.0000
51.4000 157.0000 1.0000
51.4200 140.0000 1.0000
51.4400 147.0000 1.0000
51.4600 136.0000 1.0000
51.4800 139.0000 1.0000
51.5000 125.0000 1.0000
51.5200 140.0000 1.0000
51.5400 135.0000 1.0000
51.5600 140.0000 1.0000
51.5800 112.0000 1.0000
51.6000 112.0000 1.0000
51.6200 120.0000 1.0000
51.6400 121.0000 1.0000
51.6600 119.0000 1.0000
51.6800 119.0000 1.0000
51.7000 138.0000 1.0000
51.7200 144.0000 1.0000
51.7400 130.0000 1.0000
51.7600 123.0000 1.0000
51.7800 124.0000 1.0000
51.8000 141.0000 1.0000
51.8200 132.0000 1.0000
51.8400 143.0000 1.0000
51.8600 138.0000 1.0000
51.8800 142.0000 1.0000
51.9000 144.0000 1.0000
51.9200 134.0000 1.0000
51.9400 159.0000 1.0000
51.9600 147.0000 1.0000
51.9800 145.0000 1.0000
52.0000 162.0000 1.0000
52.0200 150.0000 1.0000
52.0400 168.0000 1.0000
52.0600 162.0000 1.0000
52.0800 159.0000 1.0000
52.1000 169.0000 1.0000
52.1200 178.0000 1.0000
52.1400 200.0000 1.0000
52.1600 203.0000 1.0000
52.1800 191.0000 1.0000
52.2000 216.0000 1.0000
52.2200 239.0000 1.0000
52.2400 252.0000 1.0000
52.2600 248.0000 1.0000
52.2800 283.0000 1.0000
52.3000 387.0000 1.0000
52.3200 468.0000 1.0000
52.3400 535.0000 1.0000
52.3600 653.0000 1.0000
52.3800 704.0000 1.0000
52.4000 727.0000 1.0000
52.4200 764.0000 1.0000
52.4400 757.0000 1.0000
52.4600 715.0000 1.0000
52.4800 680.0000 1.0000
52.5000 605.0000 1.0000
52.5200 516.0000 1.0000
52.5400 524.0000 1.0000
52.5600 482.0000 1.0000
52.5800 507.0000 1.0000
52.6000 376.0000 1.0000
52.6200 336.0000 1.0000
52.6400 295.0000 1.0000
52.6600 251.0000 1.0000
52.6800 231.0000 1.0000
52.7000 196.0000 1.0000
52.7200 177.0000 1.0000
52.7400 176.0000 1.0000
52.7600 159.0000 1.0000
52.7800 182.0000 1.0000
52.8000 175.0000 1.0000
52.8200 160.0000 1.0000
52.8400 141.0000 1.0000
52.8600 124.0000 1.0000
52.8800 136.0000 1.0000
52.9000 155.0000 1.0000
52.9200 152.0000 1.0000
52.9400 175.0000 1.0000
52.9600 149.0000 1.0000
52.9800 173.0000 1.0000
53.0000 160.0000 1.0000
53.0200 167.0000 1.0000
53.0400 166.0000 1.0000
53.0600 149.0000 1.0000
53.0800 161.0000 1.0000
53.1000 155.0000 1.0000
53.1200 160.0000 1.0000
53.1400 183.0000 1.0000
53.1600 153.0000 1.0000
53.1800 148.0000 1.0000
53.2000 143.0000 1.0000
53.2200 177.0000 1.0000
53.2400 156.0000 1.0000
53.2600 158.0000 1.0000
53.2800 165.0000 1.0000
53.3000 157.0000 1.0000
53.3200 158.0000 1.0000
53.3400 158.0000 1.0000
53.3600 135.0000 1.0000
53.3800 142.0000 1.0000
53.4000 156.0000 1.0000
53.4200 151.0000 1.0000
53.4400 150.0000 1.0000
53.4600 137.0000 1.0000
53.4800 141.0000 1.0000
53.5000 141.0000 1.0000
53.5200 145.0000 1.0000
53.5400 138.0000 1.0000
53.5600 137.0000 1.0000
53.5800 143.0000 1.0000
53.6000 146.0000 1.0000
53.6200 148.0000 1.0000
53.6400 128.0000 1.0000
53.6600 145.0000 1.0000
53.6800 147.0000 1.0000
53.7000 152.0000 1.0000
53.7200 138.0000 1.0000
53.7400 149.0000 1.0000
53.7600 158.0000 1.0000
53.7800 171.0000 1.0000
53.8000 145.0000 1.0000
53.8200 148.0000 1.0000
53.8400 143.0000 1.0000
53.8600 133.0000 1.0000
53.8800 138.0000 1.0000
53.9000 136.0000 1.0000
53.9200 164.0000 1.0000
53.9400 154.0000 1.0000
53.9600 141.0000 1.0000
53.9800 133.0000 1.0000
54.0000 147.0000 1.0000
54.0200 139.0000 1.0000
54.0400 134.0000 1.0000
54.0600 130.0000 1.0000
54.0800 135.0000 1.0000
54.1000 155.0000 1.0000
54.1200 161.0000 1.0000
54.1400 144.0000 1.0000
54.1600 137.0000 1.0000
54.1800 151.0000 1.0000
54.2000 156.0000 1.0000
54.2200 154.0000 1.0000
54.2400 154.0000 1.0000
54.2600 170.0000 1.0000
54.2800 153.0000 1.0000
54.3000 161.0000 1.0000
54.3200 170.0000 1.0000
54.3400 163.0000 1.0000
54.3600 159.0000 1.0000
54.3800 155.0000 1.0000
54.4000 171.0000 1.0000
54.4200 175.0000 1.0000
54.4400 181.0000 1.0000
54.4600 186.0000 1.0000
54.4800 184.0000 1.0000
54.5000 182.0000 1.0000
54.5200 181.0000 1.0000
54.5400 185.0000 1.0000
54.5600 210.0000 1.0000
54.5800 225.0000 1.0000
54.6000 230.0000 1.0000
54.6200 266.0000 1.0000
54.6400 304.0000 1.0000
54.6600 329.0000 1.0000
54.6800 389.0000 1.0000
54.7000 438.0000 1.0000
54.7200 441.0000 1.0000
54.7400 447.0000 1.0000
54.7600 441.0000 1.0000
54.7800 418.0000 1.0000
54.8000 419.0000 1.0000
54.8200 387.0000 1.0000
54.8400 343.0000 1.0000
54.8600 350.0000 1.0000
54.8800 337.0000 1.0000
54.9000 314.0000 1.0000
54.9200 299.0000 1.0000
54.9400 271.0000 1.0000
54.9600 248.0000 1.0000
54.9800 217.0000 1.0000
55.0000 200.0000 1.0000
55.0200 214.0000 1.0000
55.0400 222.0000 1.0000
55.0600 220.0000 1.0000
55.0800 222.0000 1.0000
55.1000 247.0000 1.0000
55.1200 249.0000 1.0000
55.1400 264.0000 1.0000
55.1600 272.0000 1.0000
55.1800 276.0000 1.0000
55.2000 272.0000 1.0000
55.2200 280.0000 1.0000
55.2400 256.0000 1.0000
55.2600 226.0000 1.0000
55.2800 219.0000 1.0000
55.3000 223.0000 1.0000
55.3200 219.0000 1.0000
55.3400 218.0000 1.0000
55.3600 216.0000 1.0000
55.3800 214.0000 1.0000
55.4000 198.0000 1.0000
55.4200 191.0000 1.0000
55.4400 180.0000 1.0000
55.4600 166.0000 1.0000
55.4800 174.0000 1.0000
55.5000 173.0000 1.0000
55.5200 170.0000 1.0000
55.5400 176.0000 1.0000
55.5600 183.0000 1.0000
55.5800 181.0000 1.0000
55.6000 161.0000 1.0000
55.6200 149.0000 1.0000
55.6400 161.0000 1.0000
55.6600 157.0000 1.0000
55.6800 150.0000 1.0000
55.7000 149.0000 1.0000
55.7200 150.0000 1.0000
55.7400 155.0000 1.0000
55.7600 151.0000 1.0000
55.7800 152.0000 1.0000
55.8000 165.0000 1.0000
55.8200 160.0000 1.0000
55.8400 149.0000 1.0000
55.8600 155.0000 1.0000
55.8800 153.0000 1.0000
55.9000 162.0000 1.0000
55.9200 171.0000 1.0000
55.9400 161.0000 1.0000
55.9600 149.0000 1.0000
55.9800 149.0000 1.0000
56.0000 166.0000 1.0000
56.0200 168.0000 1.0000
56.0400 153.0000 1.0000
56.0600 164.0000 1.0000
56.0800 164.0000 1.0000
56.1000 146.0000 1.0000
56.1200 158.0000 1.0000
56.1400 158.0000 1.0000
56.1600 146.0000 1.0000
56.1800 171.0000 1.0000
56.2000 190.0000 1.0000
56.2200 186.0000 1.0000
56.2400 197.0000 1.0000
56.2600 192.0000 1.0000
56.2800 185.0000 1.0000
56.3000 184.0000 1.0000
56.3200 185.0000 1.0000
56.3400 201.0000 1.0000
56.3600 191.0000 1.0000
56.3800 183.0000 1.0000
56.4000 193.0000 1.0000
56.4200 203.0000 1.0000
56.4400 198.0000 1.0000
56.4600 197.0000 1.0000
56.4800 215.0000 1.0000
56.5000 209.0000 1.0000
56.5200 186.0000 1.0000
56.5400 205.0000 1.0000
56.5600 201.0000 1.0000
56.5800 181.0000 1.0000
56.6000 172.0000 1.0000
56.6200 175.0000 1.0000
56.6400 184.0000 1.0000
56.6600 174.0000 1.0000
56.6800 178.0000 1.0000
56.7000 178.0000 1.0000
56.7200 161.0000 1.0000
56.7400 162.0000 1.0000
56.7600 161.0000 1.0000
56.7800 160.0000 1.0000
56.8000 157.0000 1.0000
56.8200 154.0000 1.0000
56.8400 170.0000 1.0000
56.8600 184.0000 1.0000
56.8800 168.0000 1.0000
56.9000 179.0000 1.0000
56.9200 181.0000 1.0000
56.9400 183.0000 1.0000
56.9600 193.0000 1.0000
56.9800 193.0000 1.0000
57.0000 196.0000 1.0000
57.0200 186.0000 1.0000
57.0400 188.0000 1.0000
57.0600 239.0000 1.0000
57.0800 242.0000 1.0000
57.1000 227.0000 1.0000
57.1200 257.0000 1.0000
57.1400 258.0000 1.0000
57.1600 299.0000 1.0000
57.1800 333.0000 1.0000
57.2000 352.0000 1.0000
57.2200 441.0000 1.0000
57.2400 550.0000 1.0000
57.2600 675.0000 1.0000
57.2800 842.0000 1.0000
57.3000 980.0000 1.0000
57.3200 1124.0000 1.0000
57.3400 1259.0000 1.0000
57.3600 1337.0000 1.0000
57.3800 1378.0000 1.0000
57.4000 1306.0000 1.0000
57.4200 1176.0000 1.0000
57.4400 1041.0000 1.0000
57.4600 983.0000 1.0000
57.4800 920.0000 1.0000
57.5000 886.0000 1.0000
57.5200 839.0000 1.0000
57.5400 773.0000 1.0000
57.5600 666.0000 1.0000
57.5800 571.0000 1.0000
57.6000 452.0000 1.0000
57.6200 373.0000 1.0000
57.6400 300.0000 1.0000
57.6600 268.0000 1.0000
57.6800 220.0000 1.0000
57.7000 194.0000 1.0000
57.7200 182.0000 1.0000
57.7400 198.0000 1.0000
57.7600 181.0000 1.0000
57.7800 168.0000 1.0000
57.8000 158.0000 1.0000
57.8200 166.0000 1.0000
57.8400 169.0000 1.0000
57.8600 140.0000 1.0000
57.8800 128.0000 1.0000
57.9000 146.0000 1.0000
57.9200 142.0000 1.0000
57.9400 148.0000 1.0000
57.9600 147.0000 1.0000
57.9800 135.0000 1.0000
58.0000 127.0000 1.0000
58.0200 124.0000 1.0000
58.0400 138.0000 1.0000
58.0600 128.0000 1.0000
58.0800 127.0000 1.0000
58.1000 124.0000 1.0000
58.1200 142.0000 1.0000
58.1400 150.0000 1.0000
58.1600 125.0000 1.0000
58.1800 134.0000 1.0000
58.2000 122.0000 1.0000
58.2200 120.0000 1.0000
58.2400 124.0000 1.0000
58.2600 119.0000 1.0000
58.2800 120.0000 1.0000
58.3000 125.0000 1.0000
58.3200 102.0000 1.0000
58.3400 104.0000 1.0000
58.3600 133.0000 1.0000
58.3800 124.0000 1.0000
58.4000 135.0000 1.0000
58.4200 138.0000 1.0000
58.4400 115.0000 1.0000
58.4600 118.0000 1.0000
58.4800 121.0000 1.0000
58.5000 165.0000 1.0000
58.5200 141.0000 1.0000
58.5400 141.0000 1.0000
58.5600 154.0000 1.0000
58.5800 163.0000 1.0000
58.6000 138.0000 1.0000
58.6200 133.0000 1.0000
58.6400 138.0000 1.0000
58.6600 135.0000 1.0000
58.6800 125.0000 1.0000
58.7000 143.0000 1.0000
58.7200 131.0000 1.0000
58.7400 127.0000 1.0000
58.7600 146.0000 1.0000
58.7800 143.0000 1.0000
58.8000 140.0000 1.0000
58.8200 142.0000 1.0000
58.8400 135.0000 1.0000
58.8600 132.0000 1.0000
58.8800 132.0000 1.0000
58.9000 135.0000 1.0000
58.9200 140.0000 1.0000
58.9400 148.0000 1.0000
58.9600 132.0000 1.0000
58.9800 123.0000 1.0000
59.0000 128.0000 1.0000
59.0200 121.0000 1.0000
59.0400 147.0000 1.0000
59.0600 146.0000 1.0000
59.0800 148.0000 1.0000
59.1000 160.0000 1.0000
59.1200 138.0000 1.0000
59.1400 124.0000 1.0000
59.1600 143.0000 1.0000
59.1800 158.0000 1.0000
59.2000 160.0000 1.0000
59.2200 157.0000 1.0000
59.2400 153.0000 1.0000
59.2600 161.0000 1.0000
59.2800 159.0000 1.0000
59.3000 169.0000 1.0000
59.3200 187.0000 1.0000
59.3400 174.0000 1.0000
59.3600 177.0000 1.0000
59.3800 154.0000 1.0000
59.4000 175.0000 1.0000
59.4200 175.0000 1.0000
59.4400 214.0000 1.0000
59.4600 181.0000 1.0000
59.4800 193.0000 1.0000
59.5000 196.0000 1.0000
59.5200 206.0000 1.0000
59.5400 227.0000 1.0000
59.5600 238.0000 1.0000
59.5800 247.0000 1.0000
59.6000 262.0000 1.0000
59.6200 314.0000 1.0000
59.6400 336.0000 1.0000
59.6600 302.0000 1.0000
59.6800 411.0000 1.0000
59.7000 417.0000 1.0000
59.7200 489.0000 1.0000
59.7400 577.0000 1.0000
59.7600 684.0000 1.0000
59.7800 757.0000 1.0000
59.8000 804.0000 1.0000
59.8200 780.0000 1.0000
59.8400 840.0000 1.0000
59.8600 746.0000 1.0000
59.8800 690.0000 1.0000
59.9000 678.0000 1.0000
59.9200 605.0000 1.0000
59.9400 567.0000 1.0000
59.9600 566.0000 1.0000
59.9800 511.0000 1.0000
60.0000 488.0000 1.0000
60.0200 490.0000 1.0000
60.0400 435.0000 1.0000
60.0600 349.0000 1.0000
60.0800 314.0000 1.0000
60.1000 271.0000 1.0000
60.1200 252.0000 1.0000
60.1400 228.0000 1.0000
60.1600 221.0000 1.0000
60.1800 222.0000 1.0000
60.2000 197.0000 1.0000
60.2200 179.0000 1.0000
60.2400 178.0000 1.0000
60.2600 174.0000 1.0000
60.2800 186.0000 1.0000
60.3000 184.0000 1.0000
60.3200 191.0000 1.0000
60.3400 161.0000 1.0000
60.3600 184.0000 1.0000
60.3800 200.0000 1.0000
60.4000 178.0000 1.0000
60.4200 183.0000 1.0000
60.4400 179.0000 1.0000
60.4600 163.0000 1.0000
60.4800 158.0000 1.0000
60.5000 171.0000 1.0000
60.5200 163.0000 1.0000
60.5400 186.0000 1.0000
60.5600 185.0000 1.0000
60.5800 179.0000 1.0000
60.6000 156.0000 1.0000
60.6200 178.0000 1.0000
60.6400 160.0000 1.0000
60.6600 179.0000 1.0000
60.6800 144.0000 1.0000
60.7000 155.0000 1.0000
60.7200 159.0000 1.0000
60.7400 149.0000 1.0000
60.7600 142.0000 1.0000
60.7800 129.0000 1.0000
60.8000 173.0000 1.0000
60.8200 159.0000 1.0000
60.8400 173.0000 1.0000
60.8600 162.0000 1.0000
60.8800 166.0000 1.0000
60.9000 162.0000 1.0000
60.9200 170.0000 1.0000
60.9400 212.0000 1.0000
60.9600 203.0000 1.0000
60.9800 187.0000 1.0000
61.0000 223.0000 1.0000
61.0200 222.0000 1.0000
61.0400 229.0000 1.0000
61.0600 184.0000 1.0000
61.0800 201.0000 1.0000
61.1000 243.0000 1.0000
61.1200 257.0000 1.0000
61.1400 279.0000 1.0000
61.1600 281.0000 1.0000
61.1800 264.0000 1.0000
61.2000 271.0000 1.0000
61.2200 261.0000 1.0000
61.2400 260.0000 1.0000
61.2600 229.0000 1.0000
61.2800 230.0000 1.0000
61.3000 220.0000 1.0000
61.3200 257.0000 1.0000
61.3400 236.0000 1.0000
61.3600 262.0000 1.0000
61.3800 256.0000 1.0000
61.4000 244.0000 1.0000
61.4200 255.0000 1.0000
61.4400 220.0000 1.0000
61.4600 227.0000 1.0000
61.4800 241.0000 1.0000
61.5000 221.0000 1.0000
61.5200 218.0000 1.0000
61.5400 239.0000 1.0000
61.5600 218.0000 1.0000
61.5800 252.0000 1.0000
61.6000 256.0000 1.0000
61.6200 272.0000 1.0000
61.6400 262.0000 1.0000
61.6600 255.0000 1.0000
61.6800 260.0000 1.0000
61.7000 265.0000 1.0000
61.7200 271.0000 1.0000
61.7400 274.0000 1.0000
61.7600 232.0000 1.0000
61.7800 233.0000 1.0000
61.8000 270.0000 1.0000
61.8200 276.0000 1.0000
61.8400 290.0000 1.0000
61.8600 261.0000 1.0000
61.8800 261.0000 1.0000
61.9000 247.0000 1.0000
61.9200 247.0000 1.0000
61.9400 247.0000 1.0000
61.9600 254.0000 1.0000
61.9800 237.0000 1.0000
62.0000 216.0000 1.0000
62.0200 212.0000 1.0000
62.0400 198.0000 1.0000
62.0600 199.0000 1.0000
62.0800 214.0000 1.0000
62.1000 219.0000 1.0000
62.1200 196.0000 1.0000
62.1400 222.0000 1.0000
62.1600 162.0000 1.0000
62.1800 176.0000 1.0000
62.2000 190.0000 1.0000
62.2200 183.0000 1.0000
62.2400 180.0000 1.0000
62.2600 187.0000 1.0000
62.2800 176.0000 1.0000
62.3000 190.0000 1.0000
62.3200 190.0000 1.0000
62.3400 190.0000 1.0000
62.3600 186.0000 1.0000
62.3800 160.0000 1.0000
62.4000 166.0000 1.0000
62.4200 164.0000 1.0000
62.4400 162.0000 1.0000
62.4600 185.0000 1.0000
62.4800 174.0000 1.0000
62.5000 179.0000 1.0000
62.5200 173.0000 1.0000
62.5400 193.0000 1.0000
62.5600 152.0000 1.0000
62.5800 144.0000 1.0000
62.6000 147.0000 1.0000
62.6200 157.0000 1.0000
62.6400 160.0000 1.0000
62.6600 166.0000 1.0000
62.6800 149.0000 1.0000
62.7000 158.0000 1.0000
62.7200 153.0000 1.0000
62.7400 132.0000 1.0000
62.7600 127.0000 1.0000
62.7800 163.0000 1.0000
62.8000 154.0000 1.0000
62.8200 145.0000 1.0000
62.8400 147.0000 1.0000
62.8600 120.0000 1.0000
62.8800 130.0000 1.0000
62.9000 148.0000 1.0000
62.9200 135.0000 1.0000
62.9400 141.0000 1.0000
62.9600 140.0000 1.0000
62.9800 134.0000 1.0000
63.0000 132.0000 1.0000
63.0200 131.0000 1.0000
63.0400 135.0000 1.0000
63.0600 124.0000 1.0000
63.0800 137.0000 1.0000
63.1000 143.0000 1.0000
63.1200 126.0000 1.0000
63.1400 136.0000 1.0000
63.1600 140.0000 1.0000
63.1800 131.0000 1.0000
63.2000 149.0000 1.0000
63.2200 150.0000 1.0000
63.2400 140.0000 1.0000
63.2600 121.0000 1.0000
63.2800 118.0000 1.0000
63.3000 142.0000 1.0000
63.3200 141.0000 1.0000
63.3400 148.0000 1.0000
63.3600 138.0000 1.0000
63.3800 138.0000 1.0000
63.4000 141.0000 1.0000
63.4200 141.0000 1.0000
63.4400 143.0000 1.0000
63.4600 145.0000 1.0000
63.4800 153.0000 1.0000
63.5000 139.0000 1.0000
63.5200 135.0000 1.0000
63.5400 129.0000 1.0000
63.5600 138.0000 1.0000
63.5800 136.0000 1.0000
63.6000 132.0000 1.0000
63.6200 142.0000 1.0000
63.6400 145.0000 1.0000
63.6600 144.0000 1.0000
63.6800 147.0000 1.0000
63.7000 158.0000 1.0000
63.7200 168.0000 1.0000
63.7400 186.0000 1.0000
63.7600 199.0000 1.0000
63.7800 209.0000 1.0000
63.8000 207.0000 1.0000
63.8200 213.0000 1.0000
63.8400 212.0000 1.0000
63.8600 225.0000 1.0000
63.8800 257.0000 1.0000
63.9000 227.0000 1.0000
63.9200 215.0000 1.0000
63.9400 223.0000 1.0000
63.9600 210.0000 1.0000
63.9800 194.0000 1.0000
64.0000 207.0000 1.0000
64.0200 190.0000 1.0000
64.0400 194.0000 1.0000
64.0600 185.0000 1.0000
64.0800 168.0000 1.0000
64.1000 186.0000 1.0000
64.1200 175.0000 1.0000
64.1400 153.0000 1.0000
64.1600 160.0000 1.0000
64.1800 155.0000 1.0000
64.2000 134.0000 1.0000
64.2200 130.0000 1.0000
64.2400 141.0000 1.0000
64.2600 132.0000 1.0000
64.2800 127.0000 1.0000
64.3000 129.0000 1.0000
64.3200 125.0000 1.0000
64.3400 118.0000 1.0000
64.3600 133.0000 1.0000
64.3800 126.0000 1.0000
64.4000 123.0000 1.0000
64.4200 121.0000 1.0000
64.4400 120.0000 1.0000
64.4600 122.0000 1.0000
64.4800 122.0000 1.0000
64.5000 124.0000 1.0000
64.5200 120.0000 1.0000
64.5400 109.0000 1.0000
64.5600 114.0000 1.0000
64.5800 126.0000 1.0000
64.6000 140.0000 1.0000
64.6200 132.0000 1.0000
64.6400 115.0000 1.0000
64.6600 124.0000 1.0000
64.6800 126.0000 1.0000
64.7000 135.0000 1.0000
64.7200 137.0000 1.0000
64.7400 120.0000 1.0000
64.7600 124.0000 1.0000
64.7800 128.0000 1.0000
64.8000 130.0000 1.0000
64.8200 120.0000 1.0000
64.8400 122.0000 1.0000
64.8600 125.0000 1.0000
64.8800 118.0000 1.0000
64.9000 129.0000 1.0000
64.9200 121.0000 1.0000
64.9400 127.0000 1.0000
64.9600 131.0000 1.0000
64.9800 131.0000 1.0000
65.0000 131.0000 1.0000
*RAS_INT_END
*RAS_DATA_END
