*RAS_DATA_START
*RAS_HEADER_START
*CORR_POS_DB_NAME "Angle Correction ASC6 SC WITH Mono_04082019"
*CORR_POS_GONIO_RADIUS ""
*CORR_POS_NODE_INDEX01 ""
*CORR_POS_NODE_INDEX02 ""
*CORR_POS_NODE_INDEX03 ""
*CORR_POS_NODE_INDEX04 ""
*CORR_POS_NODE_INDEX05 ""
*CORR_POS_NODE_INDEX06 ""
*CORR_POS_NODE_INDEX07 ""
*CORR_POS_NODE_INDEX08 ""
*CORR_POS_NODE_INDEX09 ""
*CORR_POS_NODE_INDEX10 ""
*CORR_POS_NODE_INDEX11 ""
*CORR_POS_NODE_LABEL01 "Si(111)"
*CORR_POS_NODE_LABEL02 "Si(220)"
*CORR_POS_NODE_LABEL03 "Si(311)"
*CORR_POS_NODE_LABEL04 "Si(400)"
*CORR_POS_NODE_LABEL05 "Si(331)"
*CORR_POS_NODE_LABEL06 "Si(422)"
*CORR_POS_NODE_LABEL07 "Si(511)"
*CORR_POS_NODE_LABEL08 "Si(440)"
*CORR_POS_NODE_LABEL09 "Si(531)"
*CORR_POS_NODE_LABEL10 "Si(620)"
*CORR_POS_NODE_LABEL11 "Si(533)"
*CORR_POS_NODE_POS_CALC01 "28.377"
*CORR_POS_NODE_POS_CALC02 "47.2506"
*CORR_POS_NODE_POS_CALC03 "56.0725"
*CORR_POS_NODE_POS_CALC04 "69.0822"
*CORR_POS_NODE_POS_CALC05 "76.3294"
*CORR_POS_NODE_POS_CALC06 "87.9853"
*CORR_POS_NODE_POS_CALC07 "94.9091"
*CORR_POS_NODE_POS_CALC08 "106.668"
*CORR_POS_NODE_POS_CALC09 "114.054"
*CORR_POS_NODE_POS_CALC10 "127.511"
*CORR_POS_NODE_POS_CALC11 "136.864"
*CORR_POS_NODE_POS_MEAS01 "28.5058"
*CORR_POS_NODE_POS_MEAS02 "47.345"
*CORR_POS_NODE_POS_MEAS03 "56.1421"
*CORR_POS_NODE_POS_MEAS04 "69.1304"
*CORR_POS_NODE_POS_MEAS05 "76.366"
*CORR_POS_NODE_POS_MEAS06 "88.0213"
*CORR_POS_NODE_POS_MEAS07 "94.9406"
*CORR_POS_NODE_POS_MEAS08 "106.689"
*CORR_POS_NODE_POS_MEAS09 "114.065"
*CORR_POS_NODE_POS_MEAS10 "127.518"
*CORR_POS_NODE_POS_MEAS11 "136.869"
*CORR_POS_OPT_ATTR "集中法"
*CORR_POS_PARAM_MU ""
*CORR_POS_PARAM_PL ""
*CORR_POS_SEMODEL_TYPE "0"
*CORR_POS_STANDARD_TYPE ""
*CORR_POS_VALUE_ANALYZER "None"
*CORR_POS_VALUE_CMONO "None"
*CORR_POS_VALUE_IMONO "None"
*CORR_POS_VALUE_IS "1.250deg"
*CORR_POS_VALUE_ISL "10.0mm"
*CORR_POS_VALUE_ISOLLER "5.0deg"
*CORR_POS_VALUE_RS1 "1.250deg"
*CORR_POS_VALUE_RS2 "0.3mm"
*CORR_POS_VALUE_RSOLLER "5.0deg"
*CORR_POS_XG_FOCUS_L ""
*CORR_POS_XG_WAVE_TYPE ""
*CORR_POS_XG_WAVE_VALUE ""
*DISP_FMT_X "%.2f"
*DISP_FMT_Y "%.0f"
*DISP_FULLSCALE "6183.0000000000"
*DISP_LINE_COLOR "255.0000000000"
*DISP_LINE_STYLE "0.0000000000"
*DISP_LINE_WIDTH "0.2500000000"
*DISP_NOTE "Collected Data-6"
*DISP_OFFSET_Y "0.0000000000"
*DISP_PEAKSEARCH_UNIT_Y "CPS"
*DISP_RANGE_BOTTOM "0.0000000000"
*DISP_RANGE_LEFT "5.0000000000"
*DISP_RANGE_LOGCUTOFF "0.0100000000"
*DISP_RANGE_RIGHT "65.0000000000"
*DISP_RANGE_TOP "6183.0000000000"
*DISP_SCALE_MODE_Y "0.0000000000"
*DISP_TAB_NAME "Theta/2-Theta"
*DISP_TITLE_Y "Intensity"
*DISP_UNIT_Y "CPS"
*DISP_WINDOW_NAME "MSG_MACROENGINE"
*FILE_COMMENT " "
*FILE_MD5 ""
*FILE_MEMO " "
*FILE_OPERATOR "Administrator"
*FILE_PART_ID "MEAS_PBEA_00223"
*FILE_SAMPLE " "
*FILE_TYPE "RAS_RAW"
*FILE_USERGROUP "System Manager"
*FILE_VERSION "1.0000000000"
*HW_ATTACHMENT_ID "ATT1031"
*HW_ATTACHMENT_NAME "6サンプルチェンジャ|ASC-6"
*HW_COUNTER_ID-0 "CUT0021"
*HW_COUNTER_ID-1 "CUT0020"
*HW_COUNTER_ID-2 "CUT0020"
*HW_COUNTER_ID-3 "CMC0021"
*HW_COUNTER_NAME-0 "SC-70|SC-70"
*HW_COUNTER_NAME-1 "None|None"
*HW_COUNTER_NAME-2 "None|None"
*HW_COUNTER_NAME-3 "検出器モノクロメータ|Detector monochromator"
*HW_COUNTER_SELECT_NAME "SC-70|SC-70"
*HW_ECP_HV "671.5000000000"
*HW_ECP_HV_UNIT "V"
*HW_GONIOMETER_ID "GON0070"
*HW_GONIOMETER_NAME "MiniFlex 300/600|MiniFlex 300/600"
*HW_GONIOMETER_RADIUS-0 "79.0"
*HW_GONIOMETER_RADIUS-1 "91.5"
*HW_GONIOMETER_RADIUS-2 "150.0"
*HW_GONIOMETER_RADIUS-3 "0"
*HW_GONIOMETER_RADIUS-4 "103.4"
*HW_GONIOMETER_RADIUS-5 "150.0"
*HW_GONIOMETER_RADIUS-6 "46.6"
*HW_GONIOMETER_RADIUS-7 "160.0"
*HW_I_OPT_ID-0 "ISL0021"
*HW_I_OPT_ID-1 "ISO0021"
*HW_I_OPT_NAME-0 "発散スリット|Divergence slit"
*HW_I_OPT_NAME-1 "入射平行スリット|Incident parallel slit"
*HW_R_ATTENUATER_AUTOMODE "0"
*HW_R_OPT_ID-0 "RSS0021"
*HW_R_OPT_ID-1 "RSO0021"
*HW_R_OPT_ID-2 "RRS0021"
*HW_R_OPT_NAME-0 "散乱スリット|Scattering slit"
*HW_R_OPT_NAME-1 "受光平行スリット|Receiving soller slit"
*HW_R_OPT_NAME-2 "受光スリット|Receiving slit"
*HW_SAMPLE_HOLDER_ID "SMP0000"
*HW_SAMPLE_HOLDER_NAME "無し|None"
*HW_XG_CURRENT_MAX "15"
*HW_XG_CURRENT_MIN "2"
*HW_XG_CURRENT_RESOLUTION "1"
*HW_XG_CURRENT_UNIT "mA"
*HW_XG_FOCUS "1mm x 10mm"
*HW_XG_FOCUS_TYPE "Normal"
*HW_XG_ID "1060"
*HW_XG_NAME "300W/600W 封入管-B|300W/600W Sealed tube-B"
*HW_XG_TARGET_ATOMIC_NUMBER "29.0000000000"
*HW_XG_TARGET_NAME "Cu"
*HW_XG_TYPE "Hermetic"
*HW_XG_VOLTAGE_MAX "40"
*HW_XG_VOLTAGE_MIN "20"
*HW_XG_VOLTAGE_RESOLUTION "1"
*HW_XG_VOLTAGE_UNIT "kV"
*HW_XG_WATT_MAX "0.600"
*HW_XG_WATT_UNIT "kW"
*HW_XG_WAVE_LENGTH_ALPHA1 "1.540593"
*HW_XG_WAVE_LENGTH_ALPHA2 "1.544414"
*HW_XG_WAVE_LENGTH_BETA "1.392250"
*MEAS_COND_AXIS_NAME-0 "Theta/2-Theta"
*MEAS_COND_AXIS_NAME-1 "Spin"
*MEAS_COND_AXIS_NAME-2 "Change"
*MEAS_COND_AXIS_NAME-3 "Soller(inc.)"
*MEAS_COND_AXIS_NAME-4 "IHS"
*MEAS_COND_AXIS_NAME-5 "DS"
*MEAS_COND_AXIS_NAME-6 "SS"
*MEAS_COND_AXIS_NAME-7 "Soller(rec.)"
*MEAS_COND_AXIS_NAME-8 "RS"
*MEAS_COND_AXIS_NAME-9 "Filter"
*MEAS_COND_AXIS_NAME-10 "Monochromator"
*MEAS_COND_AXIS_NAME-11 "HV"
*MEAS_COND_AXIS_NAME-12 "PHA"
*MEAS_COND_AXIS_NAME_INTERNAL-0 "TwoThetaTheta"
*MEAS_COND_AXIS_NAME_INTERNAL-1 "Spin"
*MEAS_COND_AXIS_NAME_INTERNAL-2 "Change"
*MEAS_COND_AXIS_NAME_INTERNAL-3 "IncidentSollerSlit"
*MEAS_COND_AXIS_NAME_INTERNAL-4 "IncidentAxdSlit"
*MEAS_COND_AXIS_NAME_INTERNAL-5 "IncidentSlitBox"
*MEAS_COND_AXIS_NAME_INTERNAL-6 "ReceivingSlitBox1"
*MEAS_COND_AXIS_NAME_INTERNAL-7 "ReceivingSollerSlit"
*MEAS_COND_AXIS_NAME_INTERNAL-8 "ReceivingSlitBox2"
*MEAS_COND_AXIS_NAME_INTERNAL-9 "Filter"
*MEAS_COND_AXIS_NAME_INTERNAL-10 "CounterMonochromator"
*MEAS_COND_AXIS_NAME_INTERNAL-11 "HV"
*MEAS_COND_AXIS_NAME_INTERNAL-12 "PHA"
*MEAS_COND_AXIS_NAME_MAGICNO-0 "268632064.0000000000"
*MEAS_COND_AXIS_NAME_MAGICNO-1 "16842752.0000000000"
*MEAS_COND_AXIS_NAME_MAGICNO-2 "16842752.0000000000"
*MEAS_COND_AXIS_NAME_MAGICNO-3 "20971521.0000000000"
*MEAS_COND_AXIS_NAME_MAGICNO-4 "22020097.0000000000"
*MEAS_COND_AXIS_NAME_MAGICNO-5 "22020097.0000000000"
*MEAS_COND_AXIS_NAME_MAGICNO-6 "23068673.0000000000"
*MEAS_COND_AXIS_NAME_MAGICNO-7 "20971521.0000000000"
*MEAS_COND_AXIS_NAME_MAGICNO-8 "23068673.0000000000"
*MEAS_COND_AXIS_NAME_MAGICNO-9 "20971521.0000000000"
*MEAS_COND_AXIS_NAME_MAGICNO-10 "20971521.0000000000"
*MEAS_COND_AXIS_NAME_MAGICNO-11 "0.0000000000"
*MEAS_COND_AXIS_NAME_MAGICNO-12 "0.0000000000"
*MEAS_COND_AXIS_OFFSET-0 "0.0000000000"
*MEAS_COND_AXIS_OFFSET-1 "-"
*MEAS_COND_AXIS_OFFSET-2 "-"
*MEAS_COND_AXIS_OFFSET-3 "-"
*MEAS_COND_AXIS_OFFSET-4 "-"
*MEAS_COND_AXIS_OFFSET-5 "-"
*MEAS_COND_AXIS_OFFSET-6 "-"
*MEAS_COND_AXIS_OFFSET-7 "-"
*MEAS_COND_AXIS_OFFSET-8 "-"
*MEAS_COND_AXIS_OFFSET-9 "-"
*MEAS_COND_AXIS_OFFSET-10 "-"
*MEAS_COND_AXIS_OFFSET-11 "-"
*MEAS_COND_AXIS_OFFSET-12 "-"
*MEAS_COND_AXIS_POSITION-0 "65.0000000000"
*MEAS_COND_AXIS_POSITION-1 "0.0000000000"
*MEAS_COND_AXIS_POSITION-2 "1.0000000000"
*MEAS_COND_AXIS_POSITION-3 "5.0deg"
*MEAS_COND_AXIS_POSITION-4 "10.0mm"
*MEAS_COND_AXIS_POSITION-5 "1.250deg"
*MEAS_COND_AXIS_POSITION-6 "1.250deg"
*MEAS_COND_AXIS_POSITION-7 "5.0deg"
*MEAS_COND_AXIS_POSITION-8 "0.3mm"
*MEAS_COND_AXIS_POSITION-9 "None"
*MEAS_COND_AXIS_POSITION-10 "Bent"
*MEAS_COND_AXIS_POSITION-11 "671.5000000000"
*MEAS_COND_AXIS_POSITION-12 "551.2500000000"
*MEAS_COND_AXIS_UNIT-0 "deg"
*MEAS_COND_AXIS_UNIT-1 ""
*MEAS_COND_AXIS_UNIT-2 ""
*MEAS_COND_AXIS_UNIT-3 ""
*MEAS_COND_AXIS_UNIT-4 ""
*MEAS_COND_AXIS_UNIT-5 ""
*MEAS_COND_AXIS_UNIT-6 ""
*MEAS_COND_AXIS_UNIT-7 ""
*MEAS_COND_AXIS_UNIT-8 ""
*MEAS_COND_AXIS_UNIT-9 ""
*MEAS_COND_AXIS_UNIT-10 ""
*MEAS_COND_AXIS_UNIT-11 "V"
*MEAS_COND_AXIS_UNIT-12 "mV"
*MEAS_COND_CORRECTION_SLIT_COUNTERMONO "None"
*MEAS_COND_CORRECTION_SLIT_DS "1.250deg"
*MEAS_COND_CORRECTION_SLIT_FILTER "None"
*MEAS_COND_CORRECTION_SLIT_IHS "10.0mm"
*MEAS_COND_CORRECTION_SLIT_RS "0.3mm"
*MEAS_COND_CORRECTION_SLIT_SOLLER_INC "5.0deg"
*MEAS_COND_CORRECTION_SLIT_SOLLER_REC "5.0deg"
*MEAS_COND_CORRECTION_SLIT_SS "1.250deg"
*MEAS_COND_COUNTER_CNTLOSS_CORR "0.0000000000"
*MEAS_COND_COUNTER_PHABASE "551.2500000000"
*MEAS_COND_COUNTER_PHAWINDOW "926.2500000000"
*MEAS_COND_COUNTER_PHA_UNIT "mV"
*MEAS_COND_COUNTER_TAUDIFF "0.2500000000"
*MEAS_COND_COUNTER_TAUINT "0.7500000000"
*MEAS_COND_IRRADIATION_MODE "OFF"
*MEAS_COND_IRRADIATION_WIDTH ""
*MEAS_COND_OPT_ATTR " "
*MEAS_COND_OPT_NAME ""
*MEAS_COND_UNSYMMETRIC_MODE "OFF"
*MEAS_COND_XG_CURRENT "15.0000000000"
*MEAS_COND_XG_VOLTAGE "40.0000000000"
*MEAS_COND_XG_WAVE_TYPE "Ka"
*MEAS_DATA_COUNT "3001.0000000000"
*MEAS_SCAN_AXIS_X "Theta/2-Theta"
*MEAS_SCAN_AXIS_X_INTERNAL "TwoThetaTheta"
*MEAS_SCAN_END_TIME "07/11/25 03:53:51"
*MEAS_SCAN_MODE "STEP"
*MEAS_SCAN_MONITOR "0"
*MEAS_SCAN_RESOLUTION_X "0.0025"
*MEAS_SCAN_SPEED "2.00"
*MEAS_SCAN_SPEED_UNIT "sec."
*MEAS_SCAN_SPEED_USER "2.00"
*MEAS_SCAN_START "5.0000000000"
*MEAS_SCAN_START_TIME "07/11/25 02:08:35"
*MEAS_SCAN_STEP "0.0200000000"
*MEAS_SCAN_STOP "65.0000000000"
*MEAS_SCAN_UNIT_X "deg"
*MEAS_SCAN_UNIT_Y "counts"
*SLIT_SYSTEM "0"
*RAS_HEADER_END
*RAS_INT_START
5.0000 1169.0000 1.0000
5.0200 1090.0000 1.0000
5.0400 1212.0000 1.0000
5.0600 1066.0000 1.0000
5.0800 978.0000 1.0000
5.1000 1065.0000 1.0000
5.1200 1007.0000 1.0000
5.1400 1057.0000 1.0000
5.1600 1010.0000 1.0000
5.1800 1042.0000 1.0000
5.2000 1009.0000 1.0000
5.2200 1062.0000 1.0000
5.2400 994.0000 1.0000
5.2600 1069.0000 1.0000
5.2800 1026.0000 1.0000
5.3000 983.0000 1.0000
5.3200 1028.0000 1.0000
5.3400 1018.0000 1.0000
5.3600 941.0000 1.0000
5.3800 986.0000 1.0000
5.4000 1017.0000 1.0000
5.4200 947.0000 1.0000
5.4400 927.0000 1.0000
5.4600 941.0000 1.0000
5.4800 995.0000 1.0000
5.5000 951.0000 1.0000
5.5200 900.0000 1.0000
5.5400 954.0000 1.0000
5.5600 930.0000 1.0000
5.5800 960.0000 1.0000
5.6000 990.0000 1.0000
5.6200 960.0000 1.0000
5.6400 967.0000 1.0000
5.6600 864.0000 1.0000
5.6800 904.0000 1.0000
5.7000 852.0000 1.0000
5.7200 953.0000 1.0000
5.7400 914.0000 1.0000
5.7600 866.0000 1.0000
5.7800 827.0000 1.0000
5.8000 879.0000 1.0000
5.8200 866.0000 1.0000
5.8400 886.0000 1.0000
5.8600 921.0000 1.0000
5.8800 854.0000 1.0000
5.9000 931.0000 1.0000
5.9200 994.0000 1.0000
5.9400 921.0000 1.0000
5.9600 953.0000 1.0000
5.9800 1002.0000 1.0000
6.0000 1005.0000 1.0000
6.0200 1030.0000 1.0000
6.0400 931.0000 1.0000
6.0600 965.0000 1.0000
6.0800 897.0000 1.0000
6.1000 857.0000 1.0000
6.1200 864.0000 1.0000
6.1400 830.0000 1.0000
6.1600 831.0000 1.0000
6.1800 861.0000 1.0000
6.2000 886.0000 1.0000
6.2200 841.0000 1.0000
6.2400 838.0000 1.0000
6.2600 838.0000 1.0000
6.2800 785.0000 1.0000
6.3000 744.0000 1.0000
6.3200 730.0000 1.0000
6.3400 798.0000 1.0000
6.3600 813.0000 1.0000
6.3800 793.0000 1.0000
6.4000 756.0000 1.0000
6.4200 783.0000 1.0000
6.4400 777.0000 1.0000
6.4600 755.0000 1.0000
6.4800 738.0000 1.0000
6.5000 764.0000 1.0000
6.5200 762.0000 1.0000
6.5400 757.0000 1.0000
6.5600 732.0000 1.0000
6.5800 704.0000 1.0000
6.6000 665.0000 1.0000
6.6200 703.0000 1.0000
6.6400 695.0000 1.0000
6.6600 696.0000 1.0000
6.6800 699.0000 1.0000
6.7000 666.0000 1.0000
6.7200 678.0000 1.0000
6.7400 676.0000 1.0000
6.7600 699.0000 1.0000
6.7800 736.0000 1.0000
6.8000 692.0000 1.0000
6.8200 657.0000 1.0000
6.8400 680.0000 1.0000
6.8600 708.0000 1.0000
6.8800 679.0000 1.0000
6.9000 696.0000 1.0000
6.9200 742.0000 1.0000
6.9400 732.0000 1.0000
6.9600 671.0000 1.0000
6.9800 637.0000 1.0000
7.0000 659.0000 1.0000
7.0200 697.0000 1.0000
7.0400 671.0000 1.0000
7.0600 640.0000 1.0000
7.0800 646.0000 1.0000
7.1000 671.0000 1.0000
7.1200 708.0000 1.0000
7.1400 691.0000 1.0000
7.1600 655.0000 1.0000
7.1800 598.0000 1.0000
7.2000 592.0000 1.0000
7.2200 649.0000 1.0000
7.2400 655.0000 1.0000
7.2600 651.0000 1.0000
7.2800 685.0000 1.0000
7.3000 686.0000 1.0000
7.3200 663.0000 1.0000
7.3400 702.0000 1.0000
7.3600 708.0000 1.0000
7.3800 663.0000 1.0000
7.4000 636.0000 1.0000
7.4200 644.0000 1.0000
7.4400 635.0000 1.0000
7.4600 674.0000 1.0000
7.4800 742.0000 1.0000
7.5000 707.0000 1.0000
7.5200 693.0000 1.0000
7.5400 659.0000 1.0000
7.5600 650.0000 1.0000
7.5800 596.0000 1.0000
7.6000 595.0000 1.0000
7.6200 657.0000 1.0000
7.6400 631.0000 1.0000
7.6600 671.0000 1.0000
7.6800 735.0000 1.0000
7.7000 679.0000 1.0000
7.7200 634.0000 1.0000
7.7400 671.0000 1.0000
7.7600 715.0000 1.0000
7.7800 694.0000 1.0000
7.8000 711.0000 1.0000
7.8200 659.0000 1.0000
7.8400 665.0000 1.0000
7.8600 713.0000 1.0000
7.8800 763.0000 1.0000
7.9000 745.0000 1.0000
7.9200 691.0000 1.0000
7.9400 718.0000 1.0000
7.9600 725.0000 1.0000
7.9800 721.0000 1.0000
8.0000 731.0000 1.0000
8.0200 736.0000 1.0000
8.0400 716.0000 1.0000
8.0600 726.0000 1.0000
8.0800 705.0000 1.0000
8.1000 708.0000 1.0000
8.1200 699.0000 1.0000
8.1400 732.0000 1.0000
8.1600 717.0000 1.0000
8.1800 701.0000 1.0000
8.2000 736.0000 1.0000
8.2200 764.0000 1.0000
8.2400 728.0000 1.0000
8.2600 762.0000 1.0000
8.2800 754.0000 1.0000
8.3000 779.0000 1.0000
8.3200 862.0000 1.0000
8.3400 827.0000 1.0000
8.3600 746.0000 1.0000
8.3800 740.0000 1.0000
8.4000 803.0000 1.0000
8.4200 817.0000 1.0000
8.4400 832.0000 1.0000
8.4600 864.0000 1.0000
8.4800 817.0000 1.0000
8.5000 805.0000 1.0000
8.5200 888.0000 1.0000
8.5400 915.0000 1.0000
8.5600 869.0000 1.0000
8.5800 871.0000 1.0000
8.6000 891.0000 1.0000
8.6200 915.0000 1.0000
8.6400 932.0000 1.0000
8.6600 939.0000 1.0000
8.6800 861.0000 1.0000
8.7000 840.0000 1.0000
8.7200 821.0000 1.0000
8.7400 770.0000 1.0000
8.7600 666.0000 1.0000
8.7800 628.0000 1.0000
8.8000 580.0000 1.0000
8.8200 517.0000 1.0000
8.8400 503.0000 1.0000
8.8600 468.0000 1.0000
8.8800 408.0000 1.0000
8.9000 433.0000 1.0000
8.9200 438.0000 1.0000
8.9400 416.0000 1.0000
8.9600 405.0000 1.0000
8.9800 368.0000 1.0000
9.0000 417.0000 1.0000
9.0200 408.0000 1.0000
9.0400 411.0000 1.0000
9.0600 394.0000 1.0000
9.0800 344.0000 1.0000
9.1000 353.0000 1.0000
9.1200 363.0000 1.0000
9.1400 401.0000 1.0000
9.1600 357.0000 1.0000
9.1800 334.0000 1.0000
9.2000 333.0000 1.0000
9.2200 343.0000 1.0000
9.2400 320.0000 1.0000
9.2600 315.0000 1.0000
9.2800 336.0000 1.0000
9.3000 317.0000 1.0000
9.3200 343.0000 1.0000
9.3400 298.0000 1.0000
9.3600 335.0000 1.0000
9.3800 285.0000 1.0000
9.4000 286.0000 1.0000
9.4200 302.0000 1.0000
9.4400 311.0000 1.0000
9.4600 271.0000 1.0000
9.4800 284.0000 1.0000
9.5000 289.0000 1.0000
9.5200 316.0000 1.0000
9.5400 300.0000 1.0000
9.5600 268.0000 1.0000
9.5800 287.0000 1.0000
9.6000 310.0000 1.0000
9.6200 282.0000 1.0000
9.6400 285.0000 1.0000
9.6600 267.0000 1.0000
9.6800 263.0000 1.0000
9.7000 276.0000 1.0000
9.7200 306.0000 1.0000
9.7400 297.0000 1.0000
9.7600 285.0000 1.0000
9.7800 292.0000 1.0000
9.8000 273.0000 1.0000
9.8200 247.0000 1.0000
9.8400 247.0000 1.0000
9.8600 271.0000 1.0000
9.8800 253.0000 1.0000
9.9000 244.0000 1.0000
9.9200 237.0000 1.0000
9.9400 267.0000 1.0000
9.9600 244.0000 1.0000
9.9800 260.0000 1.0000
10.0000 271.0000 1.0000
10.0200 254.0000 1.0000
10.0400 238.0000 1.0000
10.0600 234.0000 1.0000
10.0800 237.0000 1.0000
10.1000 283.0000 1.0000
10.1200 253.0000 1.0000
10.1400 251.0000 1.0000
10.1600 217.0000 1.0000
10.1800 217.0000 1.0000
10.2000 242.0000 1.0000
10.2200 254.0000 1.0000
10.2400 228.0000 1.0000
10.2600 235.0000 1.0000
10.2800 227.0000 1.0000
10.3000 243.0000 1.0000
10.3200 248.0000 1.0000
10.3400 206.0000 1.0000
10.3600 227.0000 1.0000
10.3800 240.0000 1.0000
10.4000 275.0000 1.0000
10.4200 233.0000 1.0000
10.4400 201.0000 1.0000
10.4600 266.0000 1.0000
10.4800 230.0000 1.0000
10.5000 203.0000 1.0000
10.5200 254.0000 1.0000
10.5400 248.0000 1.0000
10.5600 218.0000 1.0000
10.5800 219.0000 1.0000
10.6000 215.0000 1.0000
10.6200 206.0000 1.0000
10.6400 223.0000 1.0000
10.6600 214.0000 1.0000
10.6800 215.0000 1.0000
10.7000 231.0000 1.0000
10.7200 194.0000 1.0000
10.7400 244.0000 1.0000
10.7600 229.0000 1.0000
10.7800 239.0000 1.0000
10.8000 239.0000 1.0000
10.8200 228.0000 1.0000
10.8400 231.0000 1.0000
10.8600 243.0000 1.0000
10.8800 206.0000 1.0000
10.9000 259.0000 1.0000
10.9200 217.0000 1.0000
10.9400 222.0000 1.0000
10.9600 210.0000 1.0000
10.9800 208.0000 1.0000
11.0000 224.0000 1.0000
11.0200 187.0000 1.0000
11.0400 246.0000 1.0000
11.0600 213.0000 1.0000
11.0800 204.0000 1.0000
11.1000 221.0000 1.0000
11.1200 207.0000 1.0000
11.1400 213.0000 1.0000
11.1600 183.0000 1.0000
11.1800 189.0000 1.0000
11.2000 197.0000 1.0000
11.2200 230.0000 1.0000
11.2400 246.0000 1.0000
11.2600 209.0000 1.0000
11.2800 222.0000 1.0000
11.3000 189.0000 1.0000
11.3200 256.0000 1.0000
11.3400 191.0000 1.0000
11.3600 253.0000 1.0000
11.3800 207.0000 1.0000
11.4000 210.0000 1.0000
11.4200 201.0000 1.0000
11.4400 193.0000 1.0000
11.4600 204.0000 1.0000
11.4800 210.0000 1.0000
11.5000 198.0000 1.0000
11.5200 201.0000 1.0000
11.5400 201.0000 1.0000
11.5600 181.0000 1.0000
11.5800 182.0000 1.0000
11.6000 227.0000 1.0000
11.6200 185.0000 1.0000
11.6400 220.0000 1.0000
11.6600 207.0000 1.0000
11.6800 191.0000 1.0000
11.7000 227.0000 1.0000
11.7200 196.0000 1.0000
11.7400 231.0000 1.0000
11.7600 197.0000 1.0000
11.7800 221.0000 1.0000
11.8000 241.0000 1.0000
11.8200 255.0000 1.0000
11.8400 235.0000 1.0000
11.8600 244.0000 1.0000
11.8800 217.0000 1.0000
11.9000 253.0000 1.0000
11.9200 256.0000 1.0000
11.9400 252.0000 1.0000
11.9600 272.0000 1.0000
11.9800 239.0000 1.0000
12.0000 270.0000 1.0000
12.0200 280.0000 1.0000
12.0400 259.0000 1.0000
12.0600 270.0000 1.0000
12.0800 279.0000 1.0000
12.1000 325.0000 1.0000
12.1200 332.0000 1.0000
12.1400 305.0000 1.0000
12.1600 317.0000 1.0000
12.1800 336.0000 1.0000
12.2000 346.0000 1.0000
12.2200 367.0000 1.0000
12.2400 388.0000 1.0000
12.2600 346.0000 1.0000
12.2800 358.0000 1.0000
12.3000 404.0000 1.0000
12.3200 392.0000 1.0000
12.3400 383.0000 1.0000
12.3600 398.0000 1.0000
12.3800 360.0000 1.0000
12.4000 341.0000 1.0000
12.4200 321.0000 1.0000
12.4400 340.0000 1.0000
12.4600 294.0000 1.0000
12.4800 268.0000 1.0000
12.5000 232.0000 1.0000
12.5200 223.0000 1.0000
12.5400 236.0000 1.0000
12.5600 237.0000 1.0000
12.5800 226.0000 1.0000
12.6000 217.0000 1.0000
12.6200 224.0000 1.0000
12.6400 209.0000 1.0000
12.6600 199.0000 1.0000
12.6800 226.0000 1.0000
12.7000 227.0000 1.0000
12.7200 222.0000 1.0000
12.7400 228.0000 1.0000
12.7600 191.0000 1.0000
12.7800 160.0000 1.0000
12.8000 208.0000 1.0000
12.8200 212.0000 1.0000
12.8400 192.0000 1.0000
12.8600 192.0000 1.0000
12.8800 179.0000 1.0000
12.9000 178.0000 1.0000
12.9200 184.0000 1.0000
12.9400 179.0000 1.0000
12.9600 173.0000 1.0000
12.9800 170.0000 1.0000
13.0000 187.0000 1.0000
13.0200 175.0000 1.0000
13.0400 176.0000 1.0000
13.0600 152.0000 1.0000
13.0800 196.0000 1.0000
13.1000 184.0000 1.0000
13.1200 180.0000 1.0000
13.1400 174.0000 1.0000
13.1600 155.0000 1.0000
13.1800 185.0000 1.0000
13.2000 200.0000 1.0000
13.2200 170.0000 1.0000
13.2400 172.0000 1.0000
13.2600 200.0000 1.0000
13.2800 197.0000 1.0000
13.3000 196.0000 1.0000
13.3200 174.0000 1.0000
13.3400 170.0000 1.0000
13.3600 172.0000 1.0000
13.3800 215.0000 1.0000
13.4000 222.0000 1.0000
13.4200 238.0000 1.0000
13.4400 230.0000 1.0000
13.4600 240.0000 1.0000
13.4800 254.0000 1.0000
13.5000 259.0000 1.0000
13.5200 233.0000 1.0000
13.5400 225.0000 1.0000
13.5600 228.0000 1.0000
13.5800 231.0000 1.0000
13.6000 223.0000 1.0000
13.6200 224.0000 1.0000
13.6400 236.0000 1.0000
13.6600 245.0000 1.0000
13.6800 256.0000 1.0000
13.7000 243.0000 1.0000
13.7200 250.0000 1.0000
13.7400 234.0000 1.0000
13.7600 222.0000 1.0000
13.7800 186.0000 1.0000
13.8000 194.0000 1.0000
13.8200 181.0000 1.0000
13.8400 164.0000 1.0000
13.8600 157.0000 1.0000
13.8800 170.0000 1.0000
13.9000 178.0000 1.0000
13.9200 161.0000 1.0000
13.9400 130.0000 1.0000
13.9600 126.0000 1.0000
13.9800 143.0000 1.0000
14.0000 156.0000 1.0000
14.0200 135.0000 1.0000
14.0400 133.0000 1.0000
14.0600 137.0000 1.0000
14.0800 141.0000 1.0000
14.1000 141.0000 1.0000
14.1200 131.0000 1.0000
14.1400 136.0000 1.0000
14.1600 145.0000 1.0000
14.1800 145.0000 1.0000
14.2000 127.0000 1.0000
14.2200 117.0000 1.0000
14.2400 138.0000 1.0000
14.2600 146.0000 1.0000
14.2800 130.0000 1.0000
14.3000 131.0000 1.0000
14.3200 140.0000 1.0000
14.3400 144.0000 1.0000
14.3600 138.0000 1.0000
14.3800 125.0000 1.0000
14.4000 121.0000 1.0000
14.4200 141.0000 1.0000
14.4400 148.0000 1.0000
14.4600 144.0000 1.0000
14.4800 146.0000 1.0000
14.5000 141.0000 1.0000
14.5200 150.0000 1.0000
14.5400 149.0000 1.0000
14.5600 134.0000 1.0000
14.5800 137.0000 1.0000
14.6000 149.0000 1.0000
14.6200 165.0000 1.0000
14.6400 170.0000 1.0000
14.6600 161.0000 1.0000
14.6800 144.0000 1.0000
14.7000 145.0000 1.0000
14.7200 160.0000 1.0000
14.7400 160.0000 1.0000
14.7600 165.0000 1.0000
14.7800 175.0000 1.0000
14.8000 183.0000 1.0000
14.8200 171.0000 1.0000
14.8400 150.0000 1.0000
14.8600 156.0000 1.0000
14.8800 170.0000 1.0000
14.9000 173.0000 1.0000
14.9200 168.0000 1.0000
14.9400 169.0000 1.0000
14.9600 166.0000 1.0000
14.9800 162.0000 1.0000
15.0000 155.0000 1.0000
15.0200 150.0000 1.0000
15.0400 153.0000 1.0000
15.0600 145.0000 1.0000
15.0800 137.0000 1.0000
15.1000 130.0000 1.0000
15.1200 139.0000 1.0000
15.1400 137.0000 1.0000
15.1600 125.0000 1.0000
15.1800 131.0000 1.0000
15.2000 129.0000 1.0000
15.2200 124.0000 1.0000
15.2400 123.0000 1.0000
15.2600 131.0000 1.0000
15.2800 136.0000 1.0000
15.3000 124.0000 1.0000
15.3200 117.0000 1.0000
15.3400 126.0000 1.0000
15.3600 140.0000 1.0000
15.3800 138.0000 1.0000
15.4000 133.0000 1.0000
15.4200 137.0000 1.0000
15.4400 141.0000 1.0000
15.4600 139.0000 1.0000
15.4800 145.0000 1.0000
15.5000 155.0000 1.0000
15.5200 154.0000 1.0000
15.5400 149.0000 1.0000
15.5600 149.0000 1.0000
15.5800 144.0000 1.0000
15.6000 134.0000 1.0000
15.6200 143.0000 1.0000
15.6400 152.0000 1.0000
15.6600 152.0000 1.0000
15.6800 146.0000 1.0000
15.7000 143.0000 1.0000
15.7200 149.0000 1.0000
15.7400 134.0000 1.0000
15.7600 115.0000 1.0000
15.7800 119.0000 1.0000
15.8000 128.0000 1.0000
15.8200 139.0000 1.0000
15.8400 136.0000 1.0000
15.8600 131.0000 1.0000
15.8800 127.0000 1.0000
15.9000 133.0000 1.0000
15.9200 151.0000 1.0000
15.9400 142.0000 1.0000
15.9600 123.0000 1.0000
15.9800 125.0000 1.0000
16.0000 125.0000 1.0000
16.0200 129.0000 1.0000
16.0400 131.0000 1.0000
16.0600 132.0000 1.0000
16.0800 120.0000 1.0000
16.1000 111.0000 1.0000
16.1200 116.0000 1.0000
16.1400 131.0000 1.0000
16.1600 132.0000 1.0000
16.1800 131.0000 1.0000
16.2000 123.0000 1.0000
16.2200 130.0000 1.0000
16.2400 128.0000 1.0000
16.2600 121.0000 1.0000
16.2800 110.0000 1.0000
16.3000 136.0000 1.0000
16.3200 139.0000 1.0000
16.3400 118.0000 1.0000
16.3600 115.0000 1.0000
16.3800 119.0000 1.0000
16.4000 120.0000 1.0000
16.4200 118.0000 1.0000
16.4400 141.0000 1.0000
16.4600 137.0000 1.0000
16.4800 120.0000 1.0000
16.5000 133.0000 1.0000
16.5200 126.0000 1.0000
16.5400 126.0000 1.0000
16.5600 129.0000 1.0000
16.5800 134.0000 1.0000
16.6000 128.0000 1.0000
16.6200 124.0000 1.0000
16.6400 145.0000 1.0000
16.6600 152.0000 1.0000
16.6800 120.0000 1.0000
16.7000 125.0000 1.0000
16.7200 129.0000 1.0000
16.7400 128.0000 1.0000
16.7600 126.0000 1.0000
16.7800 125.0000 1.0000
16.8000 130.0000 1.0000
16.8200 130.0000 1.0000
16.8400 136.0000 1.0000
16.8600 131.0000 1.0000
16.8800 131.0000 1.0000
16.9000 140.0000 1.0000
16.9200 146.0000 1.0000
16.9400 134.0000 1.0000
16.9600 135.0000 1.0000
16.9800 145.0000 1.0000
17.0000 131.0000 1.0000
17.0200 142.0000 1.0000
17.0400 156.0000 1.0000
17.0600 133.0000 1.0000
17.0800 126.0000 1.0000
17.1000 124.0000 1.0000
17.1200 128.0000 1.0000
17.1400 154.0000 1.0000
17.1600 145.0000 1.0000
17.1800 134.0000 1.0000
17.2000 153.0000 1.0000
17.2200 153.0000 1.0000
17.2400 150.0000 1.0000
17.2600 164.0000 1.0000
17.2800 150.0000 1.0000
17.3000 159.0000 1.0000
17.3200 160.0000 1.0000
17.3400 170.0000 1.0000
17.3600 167.0000 1.0000
17.3800 174.0000 1.0000
17.4000 179.0000 1.0000
17.4200 179.0000 1.0000
17.4400 188.0000 1.0000
17.4600 203.0000 1.0000
17.4800 189.0000 1.0000
17.5000 179.0000 1.0000
17.5200 189.0000 1.0000
17.5400 198.0000 1.0000
17.5600 202.0000 1.0000
17.5800 210.0000 1.0000
17.6000 228.0000 1.0000
17.6200 204.0000 1.0000
17.6400 209.0000 1.0000
17.6600 191.0000 1.0000
17.6800 194.0000 1.0000
17.7000 193.0000 1.0000
17.7200 195.0000 1.0000
17.7400 173.0000 1.0000
17.7600 189.0000 1.0000
17.7800 174.0000 1.0000
17.8000 147.0000 1.0000
17.8200 149.0000 1.0000
17.8400 167.0000 1.0000
17.8600 168.0000 1.0000
17.8800 164.0000 1.0000
17.9000 154.0000 1.0000
17.9200 146.0000 1.0000
17.9400 138.0000 1.0000
17.9600 150.0000 1.0000
17.9800 166.0000 1.0000
18.0000 151.0000 1.0000
18.0200 155.0000 1.0000
18.0400 157.0000 1.0000
18.0600 151.0000 1.0000
18.0800 129.0000 1.0000
18.1000 130.0000 1.0000
18.1200 122.0000 1.0000
18.1400 143.0000 1.0000
18.1600 150.0000 1.0000
18.1800 132.0000 1.0000
18.2000 137.0000 1.0000
18.2200 149.0000 1.0000
18.2400 135.0000 1.0000
18.2600 139.0000 1.0000
18.2800 143.0000 1.0000
18.3000 148.0000 1.0000
18.3200 138.0000 1.0000
18.3400 145.0000 1.0000
18.3600 149.0000 1.0000
18.3800 144.0000 1.0000
18.4000 161.0000 1.0000
18.4200 148.0000 1.0000
18.4400 157.0000 1.0000
18.4600 166.0000 1.0000
18.4800 162.0000 1.0000
18.5000 155.0000 1.0000
18.5200 153.0000 1.0000
18.5400 155.0000 1.0000
18.5600 161.0000 1.0000
18.5800 183.0000 1.0000
18.6000 158.0000 1.0000
18.6200 156.0000 1.0000
18.6400 188.0000 1.0000
18.6600 178.0000 1.0000
18.6800 183.0000 1.0000
18.7000 177.0000 1.0000
18.7200 175.0000 1.0000
18.7400 176.0000 1.0000
18.7600 170.0000 1.0000
18.7800 180.0000 1.0000
18.8000 175.0000 1.0000
18.8200 162.0000 1.0000
18.8400 155.0000 1.0000
18.8600 172.0000 1.0000
18.8800 150.0000 1.0000
18.9000 167.0000 1.0000
18.9200 157.0000 1.0000
18.9400 157.0000 1.0000
18.9600 187.0000 1.0000
18.9800 186.0000 1.0000
19.0000 190.0000 1.0000
19.0200 195.0000 1.0000
19.0400 186.0000 1.0000
19.0600 186.0000 1.0000
19.0800 188.0000 1.0000
19.1000 174.0000 1.0000
19.1200 203.0000 1.0000
19.1400 198.0000 1.0000
19.1600 198.0000 1.0000
19.1800 207.0000 1.0000
19.2000 217.0000 1.0000
19.2200 207.0000 1.0000
19.2400 182.0000 1.0000
19.2600 177.0000 1.0000
19.2800 181.0000 1.0000
19.3000 198.0000 1.0000
19.3200 203.0000 1.0000
19.3400 218.0000 1.0000
19.3600 227.0000 1.0000
19.3800 243.0000 1.0000
19.4000 238.0000 1.0000
19.4200 239.0000 1.0000
19.4400 274.0000 1.0000
19.4600 295.0000 1.0000
19.4800 289.0000 1.0000
19.5000 355.0000 1.0000
19.5200 365.0000 1.0000
19.5400 383.0000 1.0000
19.5600 421.0000 1.0000
19.5800 420.0000 1.0000
19.6000 453.0000 1.0000
19.6200 478.0000 1.0000
19.6400 466.0000 1.0000
19.6600 454.0000 1.0000
19.6800 448.0000 1.0000
19.7000 468.0000 1.0000
19.7200 434.0000 1.0000
19.7400 417.0000 1.0000
19.7600 419.0000 1.0000
19.7800 382.0000 1.0000
19.8000 364.0000 1.0000
19.8200 363.0000 1.0000
19.8400 306.0000 1.0000
19.8600 317.0000 1.0000
19.8800 342.0000 1.0000
19.9000 279.0000 1.0000
19.9200 289.0000 1.0000
19.9400 293.0000 1.0000
19.9600 290.0000 1.0000
19.9800 281.0000 1.0000
20.0000 287.0000 1.0000
20.0200 285.0000 1.0000
20.0400 272.0000 1.0000
20.0600 273.0000 1.0000
20.0800 300.0000 1.0000
20.1000 277.0000 1.0000
20.1200 256.0000 1.0000
20.1400 270.0000 1.0000
20.1600 287.0000 1.0000
20.1800 265.0000 1.0000
20.2000 282.0000 1.0000
20.2200 273.0000 1.0000
20.2400 294.0000 1.0000
20.2600 263.0000 1.0000
20.2800 310.0000 1.0000
20.3000 296.0000 1.0000
20.3200 326.0000 1.0000
20.3400 309.0000 1.0000
20.3600 335.0000 1.0000
20.3800 360.0000 1.0000
20.4000 363.0000 1.0000
20.4200 399.0000 1.0000
20.4400 414.0000 1.0000
20.4600 428.0000 1.0000
20.4800 476.0000 1.0000
20.5000 532.0000 1.0000
20.5200 686.0000 1.0000
20.5400 740.0000 1.0000
20.5600 810.0000 1.0000
20.5800 1074.0000 1.0000
20.6000 1184.0000 1.0000
20.6200 1456.0000 1.0000
20.6400 1709.0000 1.0000
20.6600 1900.0000 1.0000
20.6800 2018.0000 1.0000
20.7000 2110.0000 1.0000
20.7200 2054.0000 1.0000
20.7400 1937.0000 1.0000
20.7600 1634.0000 1.0000
20.7800 1279.0000 1.0000
20.8000 946.0000 1.0000
20.8200 684.0000 1.0000
20.8400 575.0000 1.0000
20.8600 444.0000 1.0000
20.8800 361.0000 1.0000
20.9000 347.0000 1.0000
20.9200 350.0000 1.0000
20.9400 321.0000 1.0000
20.9600 304.0000 1.0000
20.9800 324.0000 1.0000
21.0000 298.0000 1.0000
21.0200 308.0000 1.0000
21.0400 286.0000 1.0000
21.0600 273.0000 1.0000
21.0800 259.0000 1.0000
21.1000 263.0000 1.0000
21.1200 250.0000 1.0000
21.1400 255.0000 1.0000
21.1600 248.0000 1.0000
21.1800 222.0000 1.0000
21.2000 211.0000 1.0000
21.2200 220.0000 1.0000
21.2400 221.0000 1.0000
21.2600 195.0000 1.0000
21.2800 207.0000 1.0000
21.3000 205.0000 1.0000
21.3200 197.0000 1.0000
21.3400 200.0000 1.0000
21.3600 202.0000 1.0000
21.3800 221.0000 1.0000
21.4000 208.0000 1.0000
21.4200 220.0000 1.0000
21.4400 226.0000 1.0000
21.4600 227.0000 1.0000
21.4800 224.0000 1.0000
21.5000 224.0000 1.0000
21.5200 225.0000 1.0000
21.5400 218.0000 1.0000
21.5600 225.0000 1.0000
21.5800 222.0000 1.0000
21.6000 228.0000 1.0000
21.6200 244.0000 1.0000
21.6400 268.0000 1.0000
21.6600 284.0000 1.0000
21.6800 303.0000 1.0000
21.7000 334.0000 1.0000
21.7200 345.0000 1.0000
21.7400 370.0000 1.0000
21.7600 432.0000 1.0000
21.7800 517.0000 1.0000
21.8000 507.0000 1.0000
21.8200 544.0000 1.0000
21.8400 523.0000 1.0000
21.8600 489.0000 1.0000
21.8800 525.0000 1.0000
21.9000 460.0000 1.0000
21.9200 415.0000 1.0000
21.9400 385.0000 1.0000
21.9600 328.0000 1.0000
21.9800 274.0000 1.0000
22.0000 269.0000 1.0000
22.0200 225.0000 1.0000
22.0400 217.0000 1.0000
22.0600 242.0000 1.0000
22.0800 195.0000 1.0000
22.1000 194.0000 1.0000
22.1200 191.0000 1.0000
22.1400 198.0000 1.0000
22.1600 188.0000 1.0000
22.1800 194.0000 1.0000
22.2000 208.0000 1.0000
22.2200 197.0000 1.0000
22.2400 206.0000 1.0000
22.2600 195.0000 1.0000
22.2800 181.0000 1.0000
22.3000 181.0000 1.0000
22.3200 203.0000 1.0000
22.3400 204.0000 1.0000
22.3600 200.0000 1.0000
22.3800 203.0000 1.0000
22.4000 204.0000 1.0000
22.4200 207.0000 1.0000
22.4400 193.0000 1.0000
22.4600 194.0000 1.0000
22.4800 220.0000 1.0000
22.5000 212.0000 1.0000
22.5200 193.0000 1.0000
22.5400 199.0000 1.0000
22.5600 201.0000 1.0000
22.5800 205.0000 1.0000
22.6000 235.0000 1.0000
22.6200 237.0000 1.0000
22.6400 232.0000 1.0000
22.6600 244.0000 1.0000
22.6800 233.0000 1.0000
22.7000 260.0000 1.0000
22.7200 240.0000 1.0000
22.7400 247.0000 1.0000
22.7600 271.0000 1.0000
22.7800 248.0000 1.0000
22.8000 262.0000 1.0000
22.8200 240.0000 1.0000
22.8400 238.0000 1.0000
22.8600 278.0000 1.0000
22.8800 263.0000 1.0000
22.9000 240.0000 1.0000
22.9200 230.0000 1.0000
22.9400 237.0000 1.0000
22.9600 223.0000 1.0000
22.9800 217.0000 1.0000
23.0000 216.0000 1.0000
23.0200 226.0000 1.0000
23.0400 195.0000 1.0000
23.0600 206.0000 1.0000
23.0800 211.0000 1.0000
23.1000 196.0000 1.0000
23.1200 208.0000 1.0000
23.1400 214.0000 1.0000
23.1600 221.0000 1.0000
23.1800 251.0000 1.0000
23.2000 253.0000 1.0000
23.2200 246.0000 1.0000
23.2400 257.0000 1.0000
23.2600 318.0000 1.0000
23.2800 346.0000 1.0000
23.3000 356.0000 1.0000
23.3200 399.0000 1.0000
23.3400 384.0000 1.0000
23.3600 413.0000 1.0000
23.3800 459.0000 1.0000
23.4000 492.0000 1.0000
23.4200 515.0000 1.0000
23.4400 513.0000 1.0000
23.4600 496.0000 1.0000
23.4800 480.0000 1.0000
23.5000 438.0000 1.0000
23.5200 422.0000 1.0000
23.5400 405.0000 1.0000
23.5600 368.0000 1.0000
23.5800 331.0000 1.0000
23.6000 328.0000 1.0000
23.6200 314.0000 1.0000
23.6400 300.0000 1.0000
23.6600 299.0000 1.0000
23.6800 268.0000 1.0000
23.7000 277.0000 1.0000
23.7200 277.0000 1.0000
23.7400 294.0000 1.0000
23.7600 250.0000 1.0000
23.7800 247.0000 1.0000
23.8000 256.0000 1.0000
23.8200 291.0000 1.0000
23.8400 292.0000 1.0000
23.8600 296.0000 1.0000
23.8800 323.0000 1.0000
23.9000 304.0000 1.0000
23.9200 293.0000 1.0000
23.9400 334.0000 1.0000
23.9600 365.0000 1.0000
23.9800 383.0000 1.0000
24.0000 357.0000 1.0000
24.0200 424.0000 1.0000
24.0400 434.0000 1.0000
24.0600 424.0000 1.0000
24.0800 414.0000 1.0000
24.1000 412.0000 1.0000
24.1200 443.0000 1.0000
24.1400 428.0000 1.0000
24.1600 400.0000 1.0000
24.1800 411.0000 1.0000
24.2000 383.0000 1.0000
24.2200 352.0000 1.0000
24.2400 376.0000 1.0000
24.2600 383.0000 1.0000
24.2800 332.0000 1.0000
24.3000 314.0000 1.0000
24.3200 325.0000 1.0000
24.3400 332.0000 1.0000
24.3600 320.0000 1.0000
24.3800 306.0000 1.0000
24.4000 299.0000 1.0000
24.4200 305.0000 1.0000
24.4400 269.0000 1.0000
24.4600 252.0000 1.0000
24.4800 241.0000 1.0000
24.5000 226.0000 1.0000
24.5200 222.0000 1.0000
24.5400 221.0000 1.0000
24.5600 228.0000 1.0000
24.5800 227.0000 1.0000
24.6000 210.0000 1.0000
24.6200 212.0000 1.0000
24.6400 223.0000 1.0000
24.6600 207.0000 1.0000
24.6800 222.0000 1.0000
24.7000 225.0000 1.0000
24.7200 203.0000 1.0000
24.7400 219.0000 1.0000
24.7600 251.0000 1.0000
24.7800 257.0000 1.0000
24.8000 236.0000 1.0000
24.8200 246.0000 1.0000
24.8400 255.0000 1.0000
24.8600 266.0000 1.0000
24.8800 269.0000 1.0000
24.9000 249.0000 1.0000
24.9200 277.0000 1.0000
24.9400 313.0000 1.0000
24.9600 314.0000 1.0000
24.9800 324.0000 1.0000
25.0000 348.0000 1.0000
25.0200 356.0000 1.0000
25.0400 375.0000 1.0000
25.0600 378.0000 1.0000
25.0800 368.0000 1.0000
25.1000 372.0000 1.0000
25.1200 405.0000 1.0000
25.1400 422.0000 1.0000
25.1600 442.0000 1.0000
25.1800 452.0000 1.0000
25.2000 470.0000 1.0000
25.2200 473.0000 1.0000
25.2400 545.0000 1.0000
25.2600 615.0000 1.0000
25.2800 698.0000 1.0000
25.3000 718.0000 1.0000
25.3200 842.0000 1.0000
25.3400 1017.0000 1.0000
25.3600 1161.0000 1.0000
25.3800 1253.0000 1.0000
25.4000 1357.0000 1.0000
25.4200 1394.0000 1.0000
25.4400 1306.0000 1.0000
25.4600 1223.0000 1.0000
25.4800 1062.0000 1.0000
25.5000 916.0000 1.0000
25.5200 776.0000 1.0000
25.5400 656.0000 1.0000
25.5600 539.0000 1.0000
25.5800 477.0000 1.0000
25.6000 448.0000 1.0000
25.6200 403.0000 1.0000
25.6400 370.0000 1.0000
25.6600 360.0000 1.0000
25.6800 370.0000 1.0000
25.7000 351.0000 1.0000
25.7200 319.0000 1.0000
25.7400 329.0000 1.0000
25.7600 334.0000 1.0000
25.7800 320.0000 1.0000
25.8000 324.0000 1.0000
25.8200 351.0000 1.0000
25.8400 336.0000 1.0000
25.8600 335.0000 1.0000
25.8800 339.0000 1.0000
25.9000 353.0000 1.0000
25.9200 363.0000 1.0000
25.9400 371.0000 1.0000
25.9600 408.0000 1.0000
25.9800 404.0000 1.0000
26.0000 427.0000 1.0000
26.0200 478.0000 1.0000
26.0400 517.0000 1.0000
26.0600 547.0000 1.0000
26.0800 553.0000 1.0000
26.1000 631.0000 1.0000
26.1200 688.0000 1.0000
26.1400 732.0000 1.0000
26.1600 795.0000 1.0000
26.1800 894.0000 1.0000
26.2000 1007.0000 1.0000
26.2200 1194.0000 1.0000
26.2400 1401.0000 1.0000
26.2600 1618.0000 1.0000
26.2800 1881.0000 1.0000
26.3000 2286.0000 1.0000
26.3200 2804.0000 1.0000
26.3400 3506.0000 1.0000
26.3600 4378.0000 1.0000
26.3800 5460.0000 1.0000
26.4000 6667.0000 1.0000
26.4200 8000.0000 1.0000
26.4400 9156.0000 1.0000
26.4600 9940.0000 1.0000
26.4800 10305.0000 1.0000
26.5000 10103.0000 1.0000
26.5200 9225.0000 1.0000
26.5400 7811.0000 1.0000
26.5600 6191.0000 1.0000
26.5800 4701.0000 1.0000
26.6000 3495.0000 1.0000
26.6200 2495.0000 1.0000
26.6400 1719.0000 1.0000
26.6600 1302.0000 1.0000
26.6800 1103.0000 1.0000
26.7000 982.0000 1.0000
26.7200 938.0000 1.0000
26.7400 852.0000 1.0000
26.7600 774.0000 1.0000
26.7800 753.0000 1.0000
26.8000 730.0000 1.0000
26.8200 696.0000 1.0000
26.8400 659.0000 1.0000
26.8600 645.0000 1.0000
26.8800 606.0000 1.0000
26.9000 572.0000 1.0000
26.9200 546.0000 1.0000
26.9400 535.0000 1.0000
26.9600 526.0000 1.0000
26.9800 508.0000 1.0000
27.0000 475.0000 1.0000
27.0200 462.0000 1.0000
27.0400 460.0000 1.0000
27.0600 437.0000 1.0000
27.0800 433.0000 1.0000
27.1000 425.0000 1.0000
27.1200 426.0000 1.0000
27.1400 417.0000 1.0000
27.1600 427.0000 1.0000
27.1800 460.0000 1.0000
27.2000 460.0000 1.0000
27.2200 473.0000 1.0000
27.2400 501.0000 1.0000
27.2600 516.0000 1.0000
27.2800 525.0000 1.0000
27.3000 555.0000 1.0000
27.3200 586.0000 1.0000
27.3400 626.0000 1.0000
27.3600 684.0000 1.0000
27.3800 705.0000 1.0000
27.4000 704.0000 1.0000
27.4200 727.0000 1.0000
27.4400 751.0000 1.0000
27.4600 767.0000 1.0000
27.4800 807.0000 1.0000
27.5000 858.0000 1.0000
27.5200 875.0000 1.0000
27.5400 912.0000 1.0000
27.5600 997.0000 1.0000
27.5800 1036.0000 1.0000
27.6000 1104.0000 1.0000
27.6200 1155.0000 1.0000
27.6400 1125.0000 1.0000
27.6600 1129.0000 1.0000
27.6800 1170.0000 1.0000
27.7000 1190.0000 1.0000
27.7200 1188.0000 1.0000
27.7400 1219.0000 1.0000
27.7600 1258.0000 1.0000
27.7800 1283.0000 1.0000
27.8000 1273.0000 1.0000
27.8200 1236.0000 1.0000
27.8400 1238.0000 1.0000
27.8600 1183.0000 1.0000
27.8800 1080.0000 1.0000
27.9000 1020.0000 1.0000
27.9200 914.0000 1.0000
27.9400 797.0000 1.0000
27.9600 684.0000 1.0000
27.9800 590.0000 1.0000
28.0000 552.0000 1.0000
28.0200 510.0000 1.0000
28.0400 481.0000 1.0000
28.0600 465.0000 1.0000
28.0800 440.0000 1.0000
28.1000 427.0000 1.0000
28.1200 431.0000 1.0000
28.1400 395.0000 1.0000
28.1600 366.0000 1.0000
28.1800 341.0000 1.0000
28.2000 335.0000 1.0000
28.2200 342.0000 1.0000
28.2400 327.0000 1.0000
28.2600 337.0000 1.0000
28.2800 336.0000 1.0000
28.3000 328.0000 1.0000
28.3200 295.0000 1.0000
28.3400 272.0000 1.0000
28.3600 268.0000 1.0000
28.3800 254.0000 1.0000
28.4000 244.0000 1.0000
28.4200 224.0000 1.0000
28.4400 195.0000 1.0000
28.4600 209.0000 1.0000
28.4800 217.0000 1.0000
28.5000 212.0000 1.0000
28.5200 221.0000 1.0000
28.5400 210.0000 1.0000
28.5600 193.0000 1.0000
28.5800 181.0000 1.0000
28.6000 191.0000 1.0000
28.6200 213.0000 1.0000
28.6400 226.0000 1.0000
28.6600 207.0000 1.0000
28.6800 196.0000 1.0000
28.7000 201.0000 1.0000
28.7200 186.0000 1.0000
28.7400 198.0000 1.0000
28.7600 214.0000 1.0000
28.7800 221.0000 1.0000
28.8000 207.0000 1.0000
28.8200 202.0000 1.0000
28.8400 222.0000 1.0000
28.8600 223.0000 1.0000
28.8800 214.0000 1.0000
28.9000 212.0000 1.0000
28.9200 225.0000 1.0000
28.9400 212.0000 1.0000
28.9600 214.0000 1.0000
28.9800 237.0000 1.0000
29.0000 232.0000 1.0000
29.0200 220.0000 1.0000
29.0400 222.0000 1.0000
29.0600 240.0000 1.0000
29.0800 258.0000 1.0000
29.1000 273.0000 1.0000
29.1200 255.0000 1.0000
29.1400 244.0000 1.0000
29.1600 278.0000 1.0000
29.1800 284.0000 1.0000
29.2000 307.0000 1.0000
29.2200 348.0000 1.0000
29.2400 370.0000 1.0000
29.2600 368.0000 1.0000
29.2800 381.0000 1.0000
29.3000 400.0000 1.0000
29.3200 408.0000 1.0000
29.3400 384.0000 1.0000
29.3600 383.0000 1.0000
29.3800 412.0000 1.0000
29.4000 396.0000 1.0000
29.4200 393.0000 1.0000
29.4400 389.0000 1.0000
29.4600 393.0000 1.0000
29.4800 409.0000 1.0000
29.5000 386.0000 1.0000
29.5200 420.0000 1.0000
29.5400 443.0000 1.0000
29.5600 440.0000 1.0000
29.5800 459.0000 1.0000
29.6000 467.0000 1.0000
29.6200 480.0000 1.0000
29.6400 516.0000 1.0000
29.6600 489.0000 1.0000
29.6800 455.0000 1.0000
29.7000 461.0000 1.0000
29.7200 457.0000 1.0000
29.7400 454.0000 1.0000
29.7600 432.0000 1.0000
29.7800 407.0000 1.0000
29.8000 386.0000 1.0000
29.8200 356.0000 1.0000
29.8400 361.0000 1.0000
29.8600 356.0000 1.0000
29.8800 373.0000 1.0000
29.9000 354.0000 1.0000
29.9200 340.0000 1.0000
29.9400 341.0000 1.0000
29.9600 367.0000 1.0000
29.9800 376.0000 1.0000
30.0000 368.0000 1.0000
30.0200 377.0000 1.0000
30.0400 395.0000 1.0000
30.0600 395.0000 1.0000
30.0800 396.0000 1.0000
30.1000 400.0000 1.0000
30.1200 429.0000 1.0000
30.1400 408.0000 1.0000
30.1600 385.0000 1.0000
30.1800 382.0000 1.0000
30.2000 407.0000 1.0000
30.2200 422.0000 1.0000
30.2400 386.0000 1.0000
30.2600 400.0000 1.0000
30.2800 394.0000 1.0000
30.3000 406.0000 1.0000
30.3200 417.0000 1.0000
30.3400 385.0000 1.0000
30.3600 382.0000 1.0000
30.3800 350.0000 1.0000
30.4000 368.0000 1.0000
30.4200 325.0000 1.0000
30.4400 307.0000 1.0000
30.4600 308.0000 1.0000
30.4800 325.0000 1.0000
30.5000 343.0000 1.0000
30.5200 321.0000 1.0000
30.5400 342.0000 1.0000
30.5600 340.0000 1.0000
30.5800 337.0000 1.0000
30.6000 336.0000 1.0000
30.6200 331.0000 1.0000
30.6400 356.0000 1.0000
30.6600 353.0000 1.0000
30.6800 347.0000 1.0000
30.7000 362.0000 1.0000
30.7200 340.0000 1.0000
30.7400 321.0000 1.0000
30.7600 327.0000 1.0000
30.7800 294.0000 1.0000
30.8000 267.0000 1.0000
30.8200 259.0000 1.0000
30.8400 246.0000 1.0000
30.8600 223.0000 1.0000
30.8800 226.0000 1.0000
30.9000 203.0000 1.0000
30.9200 211.0000 1.0000
30.9400 211.0000 1.0000
30.9600 211.0000 1.0000
30.9800 221.0000 1.0000
31.0000 207.0000 1.0000
31.0200 217.0000 1.0000
31.0400 210.0000 1.0000
31.0600 205.0000 1.0000
31.0800 219.0000 1.0000
31.1000 221.0000 1.0000
31.1200 226.0000 1.0000
31.1400 232.0000 1.0000
31.1600 223.0000 1.0000
31.1800 230.0000 1.0000
31.2000 250.0000 1.0000
31.2200 218.0000 1.0000
31.2400 236.0000 1.0000
31.2600 228.0000 1.0000
31.2800 225.0000 1.0000
31.3000 224.0000 1.0000
31.3200 229.0000 1.0000
31.3400 235.0000 1.0000
31.3600 251.0000 1.0000
31.3800 225.0000 1.0000
31.4000 231.0000 1.0000
31.4200 208.0000 1.0000
31.4400 223.0000 1.0000
31.4600 211.0000 1.0000
31.4800 200.0000 1.0000
31.5000 188.0000 1.0000
31.5200 191.0000 1.0000
31.5400 172.0000 1.0000
31.5600 193.0000 1.0000
31.5800 205.0000 1.0000
31.6000 171.0000 1.0000
31.6200 174.0000 1.0000
31.6400 189.0000 1.0000
31.6600 184.0000 1.0000
31.6800 165.0000 1.0000
31.7000 167.0000 1.0000
31.7200 179.0000 1.0000
31.7400 174.0000 1.0000
31.7600 174.0000 1.0000
31.7800 172.0000 1.0000
31.8000 157.0000 1.0000
31.8200 167.0000 1.0000
31.8400 164.0000 1.0000
31.8600 162.0000 1.0000
31.8800 150.0000 1.0000
31.9000 157.0000 1.0000
31.9200 162.0000 1.0000
31.9400 163.0000 1.0000
31.9600 173.0000 1.0000
31.9800 169.0000 1.0000
32.0000 164.0000 1.0000
32.0200 168.0000 1.0000
32.0400 155.0000 1.0000
32.0600 165.0000 1.0000
32.0800 160.0000 1.0000
32.1000 161.0000 1.0000
32.1200 149.0000 1.0000
32.1400 147.0000 1.0000
32.1600 152.0000 1.0000
32.1800 169.0000 1.0000
32.2000 186.0000 1.0000
32.2200 173.0000 1.0000
32.2400 168.0000 1.0000
32.2600 153.0000 1.0000
32.2800 147.0000 1.0000
32.3000 157.0000 1.0000
32.3200 153.0000 1.0000
32.3400 168.0000 1.0000
32.3600 170.0000 1.0000
32.3800 158.0000 1.0000
32.4000 155.0000 1.0000
32.4200 149.0000 1.0000
32.4400 138.0000 1.0000
32.4600 149.0000 1.0000
32.4800 175.0000 1.0000
32.5000 159.0000 1.0000
32.5200 171.0000 1.0000
32.5400 152.0000 1.0000
32.5600 144.0000 1.0000
32.5800 147.0000 1.0000
32.6000 130.0000 1.0000
32.6200 136.0000 1.0000
32.6400 153.0000 1.0000
32.6600 159.0000 1.0000
32.6800 140.0000 1.0000
32.7000 118.0000 1.0000
32.7200 136.0000 1.0000
32.7400 142.0000 1.0000
32.7600 123.0000 1.0000
32.7800 140.0000 1.0000
32.8000 141.0000 1.0000
32.8200 126.0000 1.0000
32.8400 132.0000 1.0000
32.8600 124.0000 1.0000
32.8800 139.0000 1.0000
32.9000 123.0000 1.0000
32.9200 130.0000 1.0000
32.9400 126.0000 1.0000
32.9600 127.0000 1.0000
32.9800 154.0000 1.0000
33.0000 128.0000 1.0000
33.0200 144.0000 1.0000
33.0400 151.0000 1.0000
33.0600 134.0000 1.0000
33.0800 131.0000 1.0000
33.1000 137.0000 1.0000
33.1200 136.0000 1.0000
33.1400 134.0000 1.0000
33.1600 131.0000 1.0000
33.1800 134.0000 1.0000
33.2000 127.0000 1.0000
33.2200 142.0000 1.0000
33.2400 134.0000 1.0000
33.2600 153.0000 1.0000
33.2800 127.0000 1.0000
33.3000 140.0000 1.0000
33.3200 136.0000 1.0000
33.3400 139.0000 1.0000
33.3600 148.0000 1.0000
33.3800 152.0000 1.0000
33.4000 173.0000 1.0000
33.4200 166.0000 1.0000
33.4400 145.0000 1.0000
33.4600 159.0000 1.0000
33.4800 157.0000 1.0000
33.5000 174.0000 1.0000
33.5200 171.0000 1.0000
33.5400 183.0000 1.0000
33.5600 164.0000 1.0000
33.5800 179.0000 1.0000
33.6000 167.0000 1.0000
33.6200 164.0000 1.0000
33.6400 177.0000 1.0000
33.6600 183.0000 1.0000
33.6800 178.0000 1.0000
33.7000 167.0000 1.0000
33.7200 191.0000 1.0000
33.7400 181.0000 1.0000
33.7600 183.0000 1.0000
33.7800 174.0000 1.0000
33.8000 154.0000 1.0000
33.8200 180.0000 1.0000
33.8400 183.0000 1.0000
33.8600 141.0000 1.0000
33.8800 168.0000 1.0000
33.9000 159.0000 1.0000
33.9200 134.0000 1.0000
33.9400 167.0000 1.0000
33.9600 161.0000 1.0000
33.9800 155.0000 1.0000
34.0000 187.0000 1.0000
34.0200 186.0000 1.0000
34.0400 182.0000 1.0000
34.0600 171.0000 1.0000
34.0800 191.0000 1.0000
34.1000 183.0000 1.0000
34.1200 162.0000 1.0000
34.1400 197.0000 1.0000
34.1600 185.0000 1.0000
34.1800 230.0000 1.0000
34.2000 219.0000 1.0000
34.2200 254.0000 1.0000
34.2400 229.0000 1.0000
34.2600 252.0000 1.0000
34.2800 265.0000 1.0000
34.3000 257.0000 1.0000
34.3200 270.0000 1.0000
34.3400 284.0000 1.0000
34.3600 333.0000 1.0000
34.3800 309.0000 1.0000
34.4000 345.0000 1.0000
34.4200 310.0000 1.0000
34.4400 347.0000 1.0000
34.4600 317.0000 1.0000
34.4800 369.0000 1.0000
34.5000 363.0000 1.0000
34.5200 418.0000 1.0000
34.5400 397.0000 1.0000
34.5600 422.0000 1.0000
34.5800 404.0000 1.0000
34.6000 498.0000 1.0000
34.6200 435.0000 1.0000
34.6400 519.0000 1.0000
34.6600 553.0000 1.0000
34.6800 569.0000 1.0000
34.7000 547.0000 1.0000
34.7200 578.0000 1.0000
34.7400 585.0000 1.0000
34.7600 604.0000 1.0000
34.7800 591.0000 1.0000
34.8000 648.0000 1.0000
34.8200 738.0000 1.0000
34.8400 815.0000 1.0000
34.8600 925.0000 1.0000
34.8800 1000.0000 1.0000
34.9000 1237.0000 1.0000
34.9200 1400.0000 1.0000
34.9400 1546.0000 1.0000
34.9600 1673.0000 1.0000
34.9800 1787.0000 1.0000
35.0000 1824.0000 1.0000
35.0200 1831.0000 1.0000
35.0400 1705.0000 1.0000
35.0600 1628.0000 1.0000
35.0800 1317.0000 1.0000
35.1000 1109.0000 1.0000
35.1200 974.0000 1.0000
35.1400 830.0000 1.0000
35.1600 686.0000 1.0000
35.1800 589.0000 1.0000
35.2000 469.0000 1.0000
35.2200 451.0000 1.0000
35.2400 482.0000 1.0000
35.2600 466.0000 1.0000
35.2800 428.0000 1.0000
35.3000 436.0000 1.0000
35.3200 459.0000 1.0000
35.3400 469.0000 1.0000
35.3600 465.0000 1.0000
35.3800 468.0000 1.0000
35.4000 433.0000 1.0000
35.4200 419.0000 1.0000
35.4400 436.0000 1.0000
35.4600 458.0000 1.0000
35.4800 432.0000 1.0000
35.5000 409.0000 1.0000
35.5200 406.0000 1.0000
35.5400 395.0000 1.0000
35.5600 404.0000 1.0000
35.5800 349.0000 1.0000
35.6000 338.0000 1.0000
35.6200 333.0000 1.0000
35.6400 331.0000 1.0000
35.6600 297.0000 1.0000
35.6800 321.0000 1.0000
35.7000 307.0000 1.0000
35.7200 293.0000 1.0000
35.7400 295.0000 1.0000
35.7600 258.0000 1.0000
35.7800 259.0000 1.0000
35.8000 250.0000 1.0000
35.8200 244.0000 1.0000
35.8400 247.0000 1.0000
35.8600 264.0000 1.0000
35.8800 232.0000 1.0000
35.9000 275.0000 1.0000
35.9200 278.0000 1.0000
35.9400 247.0000 1.0000
35.9600 239.0000 1.0000
35.9800 243.0000 1.0000
36.0000 256.0000 1.0000
36.0200 266.0000 1.0000
36.0400 253.0000 1.0000
36.0600 245.0000 1.0000
36.0800 267.0000 1.0000
36.1000 287.0000 1.0000
36.1200 287.0000 1.0000
36.1400 273.0000 1.0000
36.1600 293.0000 1.0000
36.1800 299.0000 1.0000
36.2000 339.0000 1.0000
36.2200 362.0000 1.0000
36.2400 377.0000 1.0000
36.2600 461.0000 1.0000
36.2800 515.0000 1.0000
36.3000 617.0000 1.0000
36.3200 701.0000 1.0000
36.3400 765.0000 1.0000
36.3600 889.0000 1.0000
36.3800 907.0000 1.0000
36.4000 874.0000 1.0000
36.4200 868.0000 1.0000
36.4400 801.0000 1.0000
36.4600 754.0000 1.0000
36.4800 671.0000 1.0000
36.5000 601.0000 1.0000
36.5200 524.0000 1.0000
36.5400 438.0000 1.0000
36.5600 410.0000 1.0000
36.5800 378.0000 1.0000
36.6000 327.0000 1.0000
36.6200 309.0000 1.0000
36.6400 289.0000 1.0000
36.6600 267.0000 1.0000
36.6800 246.0000 1.0000
36.7000 275.0000 1.0000
36.7200 241.0000 1.0000
36.7400 235.0000 1.0000
36.7600 247.0000 1.0000
36.7800 232.0000 1.0000
36.8000 236.0000 1.0000
36.8200 227.0000 1.0000
36.8400 234.0000 1.0000
36.8600 216.0000 1.0000
36.8800 238.0000 1.0000
36.9000 229.0000 1.0000
36.9200 242.0000 1.0000
36.9400 239.0000 1.0000
36.9600 248.0000 1.0000
36.9800 217.0000 1.0000
37.0000 239.0000 1.0000
37.0200 241.0000 1.0000
37.0400 230.0000 1.0000
37.0600 222.0000 1.0000
37.0800 196.0000 1.0000
37.1000 219.0000 1.0000
37.1200 224.0000 1.0000
37.1400 229.0000 1.0000
37.1600 210.0000 1.0000
37.1800 237.0000 1.0000
37.2000 232.0000 1.0000
37.2200 232.0000 1.0000
37.2400 227.0000 1.0000
37.2600 242.0000 1.0000
37.2800 255.0000 1.0000
37.3000 267.0000 1.0000
37.3200 254.0000 1.0000
37.3400 275.0000 1.0000
37.3600 300.0000 1.0000
37.3800 286.0000 1.0000
37.4000 301.0000 1.0000
37.4200 278.0000 1.0000
37.4400 337.0000 1.0000
37.4600 342.0000 1.0000
37.4800 360.0000 1.0000
37.5000 432.0000 1.0000
37.5200 513.0000 1.0000
37.5400 592.0000 1.0000
37.5600 692.0000 1.0000
37.5800 763.0000 1.0000
37.6000 797.0000 1.0000
37.6200 847.0000 1.0000
37.6400 807.0000 1.0000
37.6600 788.0000 1.0000
37.6800 723.0000 1.0000
37.7000 630.0000 1.0000
37.7200 530.0000 1.0000
37.7400 457.0000 1.0000
37.7600 416.0000 1.0000
37.7800 348.0000 1.0000
37.8000 301.0000 1.0000
37.8200 246.0000 1.0000
37.8400 212.0000 1.0000
37.8600 196.0000 1.0000
37.8800 193.0000 1.0000
37.9000 186.0000 1.0000
37.9200 185.0000 1.0000
37.9400 182.0000 1.0000
37.9600 168.0000 1.0000
37.9800 157.0000 1.0000
38.0000 165.0000 1.0000
38.0200 172.0000 1.0000
38.0400 161.0000 1.0000
38.0600 150.0000 1.0000
38.0800 142.0000 1.0000
38.1000 151.0000 1.0000
38.1200 147.0000 1.0000
38.1400 155.0000 1.0000
38.1600 152.0000 1.0000
38.1800 148.0000 1.0000
38.2000 144.0000 1.0000
38.2200 132.0000 1.0000
38.2400 119.0000 1.0000
38.2600 123.0000 1.0000
38.2800 134.0000 1.0000
38.3000 144.0000 1.0000
38.3200 129.0000 1.0000
38.3400 135.0000 1.0000
38.3600 138.0000 1.0000
38.3800 148.0000 1.0000
38.4000 134.0000 1.0000
38.4200 145.0000 1.0000
38.4400 128.0000 1.0000
38.4600 127.0000 1.0000
38.4800 112.0000 1.0000
38.5000 121.0000 1.0000
38.5200 130.0000 1.0000
38.5400 135.0000 1.0000
38.5600 152.0000 1.0000
38.5800 144.0000 1.0000
38.6000 139.0000 1.0000
38.6200 142.0000 1.0000
38.6400 133.0000 1.0000
38.6600 137.0000 1.0000
38.6800 153.0000 1.0000
38.7000 157.0000 1.0000
38.7200 148.0000 1.0000
38.7400 157.0000 1.0000
38.7600 151.0000 1.0000
38.7800 154.0000 1.0000
38.8000 162.0000 1.0000
38.8200 159.0000 1.0000
38.8400 166.0000 1.0000
38.8600 170.0000 1.0000
38.8800 180.0000 1.0000
38.9000 177.0000 1.0000
38.9200 163.0000 1.0000
38.9400 162.0000 1.0000
38.9600 178.0000 1.0000
38.9800 167.0000 1.0000
39.0000 173.0000 1.0000
39.0200 181.0000 1.0000
39.0400 188.0000 1.0000
39.0600 178.0000 1.0000
39.0800 175.0000 1.0000
39.1000 189.0000 1.0000
39.1200 225.0000 1.0000
39.1400 248.0000 1.0000
39.1600 300.0000 1.0000
39.1800 331.0000 1.0000
39.2000 382.0000 1.0000
39.2200 449.0000 1.0000
39.2400 529.0000 1.0000
39.2600 624.0000 1.0000
39.2800 710.0000 1.0000
39.3000 755.0000 1.0000
39.3200 776.0000 1.0000
39.3400 737.0000 1.0000
39.3600 720.0000 1.0000
39.3800 638.0000 1.0000
39.4000 545.0000 1.0000
39.4200 467.0000 1.0000
39.4400 420.0000 1.0000
39.4600 393.0000 1.0000
39.4800 322.0000 1.0000
39.5000 273.0000 1.0000
39.5200 242.0000 1.0000
39.5400 217.0000 1.0000
39.5600 204.0000 1.0000
39.5800 204.0000 1.0000
39.6000 187.0000 1.0000
39.6200 167.0000 1.0000
39.6400 163.0000 1.0000
39.6600 169.0000 1.0000
39.6800 177.0000 1.0000
39.7000 178.0000 1.0000
39.7200 164.0000 1.0000
39.7400 155.0000 1.0000
39.7600 155.0000 1.0000
39.7800 158.0000 1.0000
39.8000 159.0000 1.0000
39.8200 165.0000 1.0000
39.8400 170.0000 1.0000
39.8600 176.0000 1.0000
39.8800 165.0000 1.0000
39.9000 159.0000 1.0000
39.9200 193.0000 1.0000
39.9400 205.0000 1.0000
39.9600 210.0000 1.0000
39.9800 225.0000 1.0000
40.0000 236.0000 1.0000
40.0200 262.0000 1.0000
40.0400 296.0000 1.0000
40.0600 321.0000 1.0000
40.0800 363.0000 1.0000
40.1000 395.0000 1.0000
40.1200 436.0000 1.0000
40.1400 467.0000 1.0000
40.1600 451.0000 1.0000
40.1800 416.0000 1.0000
40.2000 381.0000 1.0000
40.2200 345.0000 1.0000
40.2400 309.0000 1.0000
40.2600 303.0000 1.0000
40.2800 306.0000 1.0000
40.3000 275.0000 1.0000
40.3200 232.0000 1.0000
40.3400 211.0000 1.0000
40.3600 203.0000 1.0000
40.3800 203.0000 1.0000
40.4000 191.0000 1.0000
40.4200 171.0000 1.0000
40.4400 180.0000 1.0000
40.4600 194.0000 1.0000
40.4800 174.0000 1.0000
40.5000 174.0000 1.0000
40.5200 195.0000 1.0000
40.5400 192.0000 1.0000
40.5600 175.0000 1.0000
40.5800 163.0000 1.0000
40.6000 161.0000 1.0000
40.6200 167.0000 1.0000
40.6400 170.0000 1.0000
40.6600 167.0000 1.0000
40.6800 172.0000 1.0000
40.7000 185.0000 1.0000
40.7200 188.0000 1.0000
40.7400 176.0000 1.0000
40.7600 158.0000 1.0000
40.7800 160.0000 1.0000
40.8000 174.0000 1.0000
40.8200 175.0000 1.0000
40.8400 174.0000 1.0000
40.8600 178.0000 1.0000
40.8800 179.0000 1.0000
40.9000 174.0000 1.0000
40.9200 175.0000 1.0000
40.9400 170.0000 1.0000
40.9600 166.0000 1.0000
40.9800 160.0000 1.0000
41.0000 156.0000 1.0000
41.0200 143.0000 1.0000
41.0400 158.0000 1.0000
41.0600 173.0000 1.0000
41.0800 166.0000 1.0000
41.1000 146.0000 1.0000
41.1200 156.0000 1.0000
41.1400 171.0000 1.0000
41.1600 166.0000 1.0000
41.1800 169.0000 1.0000
41.2000 162.0000 1.0000
41.2200 148.0000 1.0000
41.2400 151.0000 1.0000
41.2600 170.0000 1.0000
41.2800 175.0000 1.0000
41.3000 153.0000 1.0000
41.3200 152.0000 1.0000
41.3400 154.0000 1.0000
41.3600 165.0000 1.0000
41.3800 178.0000 1.0000
41.4000 171.0000 1.0000
41.4200 170.0000 1.0000
41.4400 184.0000 1.0000
41.4600 195.0000 1.0000
41.4800 187.0000 1.0000
41.5000 191.0000 1.0000
41.5200 212.0000 1.0000
41.5400 218.0000 1.0000
41.5600 205.0000 1.0000
41.5800 223.0000 1.0000
41.6000 226.0000 1.0000
41.6200 236.0000 1.0000
41.6400 226.0000 1.0000
41.6600 214.0000 1.0000
41.6800 227.0000 1.0000
41.7000 208.0000 1.0000
41.7200 205.0000 1.0000
41.7400 211.0000 1.0000
41.7600 209.0000 1.0000
41.7800 221.0000 1.0000
41.8000 220.0000 1.0000
41.8200 232.0000 1.0000
41.8400 232.0000 1.0000
41.8600 226.0000 1.0000
41.8800 209.0000 1.0000
41.9000 230.0000 1.0000
41.9200 253.0000 1.0000
41.9400 254.0000 1.0000
41.9600 260.0000 1.0000
41.9800 273.0000 1.0000
42.0000 272.0000 1.0000
42.0200 276.0000 1.0000
42.0400 291.0000 1.0000
42.0600 311.0000 1.0000
42.0800 323.0000 1.0000
42.1000 325.0000 1.0000
42.1200 360.0000 1.0000
42.1400 367.0000 1.0000
42.1600 402.0000 1.0000
42.1800 431.0000 1.0000
42.2000 496.0000 1.0000
42.2200 536.0000 1.0000
42.2400 578.0000 1.0000
42.2600 636.0000 1.0000
42.2800 679.0000 1.0000
42.3000 675.0000 1.0000
42.3200 661.0000 1.0000
42.3400 616.0000 1.0000
42.3600 583.0000 1.0000
42.3800 555.0000 1.0000
42.4000 508.0000 1.0000
42.4200 436.0000 1.0000
42.4400 414.0000 1.0000
42.4600 371.0000 1.0000
42.4800 315.0000 1.0000
42.5000 268.0000 1.0000
42.5200 262.0000 1.0000
42.5400 244.0000 1.0000
42.5600 241.0000 1.0000
42.5800 239.0000 1.0000
42.6000 222.0000 1.0000
42.6200 244.0000 1.0000
42.6400 213.0000 1.0000
42.6600 214.0000 1.0000
42.6800 211.0000 1.0000
42.7000 226.0000 1.0000
42.7200 244.0000 1.0000
42.7400 233.0000 1.0000
42.7600 235.0000 1.0000
42.7800 233.0000 1.0000
42.8000 229.0000 1.0000
42.8200 235.0000 1.0000
42.8400 214.0000 1.0000
42.8600 225.0000 1.0000
42.8800 227.0000 1.0000
42.9000 239.0000 1.0000
42.9200 260.0000 1.0000
42.9400 279.0000 1.0000
42.9600 280.0000 1.0000
42.9800 295.0000 1.0000
43.0000 321.0000 1.0000
43.0200 366.0000 1.0000
43.0400 449.0000 1.0000
43.0600 563.0000 1.0000
43.0800 669.0000 1.0000
43.1000 787.0000 1.0000
43.1200 981.0000 1.0000
43.1400 1259.0000 1.0000
43.1600 1459.0000 1.0000
43.1800 1596.0000 1.0000
43.2000 1635.0000 1.0000
43.2200 1615.0000 1.0000
43.2400 1546.0000 1.0000
43.2600 1435.0000 1.0000
43.2800 1353.0000 1.0000
43.3000 1163.0000 1.0000
43.3200 990.0000 1.0000
43.3400 850.0000 1.0000
43.3600 751.0000 1.0000
43.3800 592.0000 1.0000
43.4000 458.0000 1.0000
43.4200 339.0000 1.0000
43.4400 283.0000 1.0000
43.4600 261.0000 1.0000
43.4800 239.0000 1.0000
43.5000 223.0000 1.0000
43.5200 183.0000 1.0000
43.5400 186.0000 1.0000
43.5600 207.0000 1.0000
43.5800 190.0000 1.0000
43.6000 149.0000 1.0000
43.6200 175.0000 1.0000
43.6400 164.0000 1.0000
43.6600 148.0000 1.0000
43.6800 152.0000 1.0000
43.7000 150.0000 1.0000
43.7200 177.0000 1.0000
43.7400 148.0000 1.0000
43.7600 164.0000 1.0000
43.7800 148.0000 1.0000
43.8000 154.0000 1.0000
43.8200 134.0000 1.0000
43.8400 144.0000 1.0000
43.8600 161.0000 1.0000
43.8800 147.0000 1.0000
43.9000 149.0000 1.0000
43.9200 143.0000 1.0000
43.9400 175.0000 1.0000
43.9600 161.0000 1.0000
43.9800 189.0000 1.0000
44.0000 174.0000 1.0000
44.0200 158.0000 1.0000
44.0400 162.0000 1.0000
44.0600 161.0000 1.0000
44.0800 140.0000 1.0000
44.1000 165.0000 1.0000
44.1200 155.0000 1.0000
44.1400 152.0000 1.0000
44.1600 171.0000 1.0000
44.1800 160.0000 1.0000
44.2000 161.0000 1.0000
44.2200 150.0000 1.0000
44.2400 167.0000 1.0000
44.2600 157.0000 1.0000
44.2800 167.0000 1.0000
44.3000 165.0000 1.0000
44.3200 146.0000 1.0000
44.3400 142.0000 1.0000
44.3600 150.0000 1.0000
44.3800 146.0000 1.0000
44.4000 145.0000 1.0000
44.4200 131.0000 1.0000
44.4400 158.0000 1.0000
44.4600 132.0000 1.0000
44.4800 167.0000 1.0000
44.5000 153.0000 1.0000
44.5200 156.0000 1.0000
44.5400 144.0000 1.0000
44.5600 130.0000 1.0000
44.5800 167.0000 1.0000
44.6000 153.0000 1.0000
44.6200 165.0000 1.0000
44.6400 156.0000 1.0000
44.6600 164.0000 1.0000
44.6800 163.0000 1.0000
44.7000 174.0000 1.0000
44.7200 190.0000 1.0000
44.7400 189.0000 1.0000
44.7600 178.0000 1.0000
44.7800 153.0000 1.0000
44.8000 212.0000 1.0000
44.8200 182.0000 1.0000
44.8400 166.0000 1.0000
44.8600 175.0000 1.0000
44.8800 178.0000 1.0000
44.9000 181.0000 1.0000
44.9200 181.0000 1.0000
44.9400 165.0000 1.0000
44.9600 191.0000 1.0000
44.9800 203.0000 1.0000
45.0000 184.0000 1.0000
45.0200 171.0000 1.0000
45.0400 178.0000 1.0000
45.0600 205.0000 1.0000
45.0800 175.0000 1.0000
45.1000 191.0000 1.0000
45.1200 192.0000 1.0000
45.1400 180.0000 1.0000
45.1600 210.0000 1.0000
45.1800 185.0000 1.0000
45.2000 190.0000 1.0000
45.2200 179.0000 1.0000
45.2400 218.0000 1.0000
45.2600 201.0000 1.0000
45.2800 199.0000 1.0000
45.3000 209.0000 1.0000
45.3200 208.0000 1.0000
45.3400 189.0000 1.0000
45.3600 176.0000 1.0000
45.3800 213.0000 1.0000
45.4000 220.0000 1.0000
45.4200 207.0000 1.0000
45.4400 209.0000 1.0000
45.4600 211.0000 1.0000
45.4800 216.0000 1.0000
45.5000 246.0000 1.0000
45.5200 260.0000 1.0000
45.5400 291.0000 1.0000
45.5600 344.0000 1.0000
45.5800 374.0000 1.0000
45.6000 361.0000 1.0000
45.6200 398.0000 1.0000
45.6400 385.0000 1.0000
45.6600 415.0000 1.0000
45.6800 403.0000 1.0000
45.7000 412.0000 1.0000
45.7200 384.0000 1.0000
45.7400 316.0000 1.0000
45.7600 315.0000 1.0000
45.7800 290.0000 1.0000
45.8000 261.0000 1.0000
45.8200 251.0000 1.0000
45.8400 225.0000 1.0000
45.8600 190.0000 1.0000
45.8800 188.0000 1.0000
45.9000 169.0000 1.0000
45.9200 152.0000 1.0000
45.9400 169.0000 1.0000
45.9600 187.0000 1.0000
45.9800 167.0000 1.0000
46.0000 164.0000 1.0000
46.0200 166.0000 1.0000
46.0400 179.0000 1.0000
46.0600 155.0000 1.0000
46.0800 156.0000 1.0000
46.1000 151.0000 1.0000
46.1200 140.0000 1.0000
46.1400 148.0000 1.0000
46.1600 136.0000 1.0000
46.1800 115.0000 1.0000
46.2000 133.0000 1.0000
46.2200 127.0000 1.0000
46.2400 141.0000 1.0000
46.2600 128.0000 1.0000
46.2800 128.0000 1.0000
46.3000 112.0000 1.0000
46.3200 139.0000 1.0000
46.3400 136.0000 1.0000
46.3600 119.0000 1.0000
46.3800 139.0000 1.0000
46.4000 123.0000 1.0000
46.4200 126.0000 1.0000
46.4400 132.0000 1.0000
46.4600 127.0000 1.0000
46.4800 116.0000 1.0000
46.5000 112.0000 1.0000
46.5200 123.0000 1.0000
46.5400 138.0000 1.0000
46.5600 135.0000 1.0000
46.5800 127.0000 1.0000
46.6000 115.0000 1.0000
46.6200 118.0000 1.0000
46.6400 106.0000 1.0000
46.6600 105.0000 1.0000
46.6800 110.0000 1.0000
46.7000 133.0000 1.0000
46.7200 126.0000 1.0000
46.7400 130.0000 1.0000
46.7600 120.0000 1.0000
46.7800 133.0000 1.0000
46.8000 118.0000 1.0000
46.8200 116.0000 1.0000
46.8400 131.0000 1.0000
46.8600 128.0000 1.0000
46.8800 137.0000 1.0000
46.9000 128.0000 1.0000
46.9200 132.0000 1.0000
46.9400 153.0000 1.0000
46.9600 134.0000 1.0000
46.9800 121.0000 1.0000
47.0000 143.0000 1.0000
47.0200 135.0000 1.0000
47.0400 122.0000 1.0000
47.0600 116.0000 1.0000
47.0800 121.0000 1.0000
47.1000 124.0000 1.0000
47.1200 115.0000 1.0000
47.1400 106.0000 1.0000
47.1600 112.0000 1.0000
47.1800 114.0000 1.0000
47.2000 124.0000 1.0000
47.2200 117.0000 1.0000
47.2400 114.0000 1.0000
47.2600 108.0000 1.0000
47.2800 107.0000 1.0000
47.3000 112.0000 1.0000
47.3200 110.0000 1.0000
47.3400 110.0000 1.0000
47.3600 114.0000 1.0000
47.3800 111.0000 1.0000
47.4000 126.0000 1.0000
47.4200 118.0000 1.0000
47.4400 123.0000 1.0000
47.4600 127.0000 1.0000
47.4800 109.0000 1.0000
47.5000 111.0000 1.0000
47.5200 126.0000 1.0000
47.5400 124.0000 1.0000
47.5600 118.0000 1.0000
47.5800 112.0000 1.0000
47.6000 107.0000 1.0000
47.6200 112.0000 1.0000
47.6400 119.0000 1.0000
47.6600 124.0000 1.0000
47.6800 124.0000 1.0000
47.7000 116.0000 1.0000
47.7200 123.0000 1.0000
47.7400 125.0000 1.0000
47.7600 134.0000 1.0000
47.7800 135.0000 1.0000
47.8000 117.0000 1.0000
47.8200 113.0000 1.0000
47.8400 110.0000 1.0000
47.8600 127.0000 1.0000
47.8800 124.0000 1.0000
47.9000 117.0000 1.0000
47.9200 119.0000 1.0000
47.9400 136.0000 1.0000
47.9600 124.0000 1.0000
47.9800 122.0000 1.0000
48.0000 129.0000 1.0000
48.0200 123.0000 1.0000
48.0400 125.0000 1.0000
48.0600 135.0000 1.0000
48.0800 129.0000 1.0000
48.1000 136.0000 1.0000
48.1200 130.0000 1.0000
48.1400 126.0000 1.0000
48.1600 142.0000 1.0000
48.1800 148.0000 1.0000
48.2000 141.0000 1.0000
48.2200 145.0000 1.0000
48.2400 151.0000 1.0000
48.2600 141.0000 1.0000
48.2800 146.0000 1.0000
48.3000 143.0000 1.0000
48.3200 134.0000 1.0000
48.3400 137.0000 1.0000
48.3600 144.0000 1.0000
48.3800 126.0000 1.0000
48.4000 124.0000 1.0000
48.4200 137.0000 1.0000
48.4400 138.0000 1.0000
48.4600 131.0000 1.0000
48.4800 123.0000 1.0000
48.5000 121.0000 1.0000
48.5200 119.0000 1.0000
48.5400 120.0000 1.0000
48.5600 126.0000 1.0000
48.5800 121.0000 1.0000
48.6000 117.0000 1.0000
48.6200 110.0000 1.0000
48.6400 107.0000 1.0000
48.6600 114.0000 1.0000
48.6800 126.0000 1.0000
48.7000 123.0000 1.0000
48.7200 118.0000 1.0000
48.7400 121.0000 1.0000
48.7600 124.0000 1.0000
48.7800 128.0000 1.0000
48.8000 130.0000 1.0000
48.8200 130.0000 1.0000
48.8400 119.0000 1.0000
48.8600 122.0000 1.0000
48.8800 146.0000 1.0000
48.9000 145.0000 1.0000
48.9200 145.0000 1.0000
48.9400 146.0000 1.0000
48.9600 142.0000 1.0000
48.9800 144.0000 1.0000
49.0000 140.0000 1.0000
49.0200 145.0000 1.0000
49.0400 164.0000 1.0000
49.0600 174.0000 1.0000
49.0800 169.0000 1.0000
49.1000 172.0000 1.0000
49.1200 165.0000 1.0000
49.1400 168.0000 1.0000
49.1600 173.0000 1.0000
49.1800 168.0000 1.0000
49.2000 151.0000 1.0000
49.2200 140.0000 1.0000
49.2400 148.0000 1.0000
49.2600 148.0000 1.0000
49.2800 150.0000 1.0000
49.3000 147.0000 1.0000
49.3200 144.0000 1.0000
49.3400 155.0000 1.0000
49.3600 153.0000 1.0000
49.3800 160.0000 1.0000
49.4000 163.0000 1.0000
49.4200 165.0000 1.0000
49.4400 189.0000 1.0000
49.4600 193.0000 1.0000
49.4800 182.0000 1.0000
49.5000 184.0000 1.0000
49.5200 192.0000 1.0000
49.5400 199.0000 1.0000
49.5600 189.0000 1.0000
49.5800 201.0000 1.0000
49.6000 222.0000 1.0000
49.6200 215.0000 1.0000
49.6400 221.0000 1.0000
49.6600 234.0000 1.0000
49.6800 220.0000 1.0000
49.7000 220.0000 1.0000
49.7200 250.0000 1.0000
49.7400 259.0000 1.0000
49.7600 263.0000 1.0000
49.7800 310.0000 1.0000
49.8000 359.0000 1.0000
49.8200 386.0000 1.0000
49.8400 420.0000 1.0000
49.8600 476.0000 1.0000
49.8800 557.0000 1.0000
49.9000 688.0000 1.0000
49.9200 831.0000 1.0000
49.9400 981.0000 1.0000
49.9600 1122.0000 1.0000
49.9800 1153.0000 1.0000
50.0000 1212.0000 1.0000
50.0200 1144.0000 1.0000
50.0400 1058.0000 1.0000
50.0600 969.0000 1.0000
50.0800 864.0000 1.0000
50.1000 816.0000 1.0000
50.1200 750.0000 1.0000
50.1400 659.0000 1.0000
50.1600 565.0000 1.0000
50.1800 523.0000 1.0000
50.2000 425.0000 1.0000
50.2200 310.0000 1.0000
50.2400 259.0000 1.0000
50.2600 217.0000 1.0000
50.2800 211.0000 1.0000
50.3000 192.0000 1.0000
50.3200 196.0000 1.0000
50.3400 184.0000 1.0000
50.3600 197.0000 1.0000
50.3800 184.0000 1.0000
50.4000 188.0000 1.0000
50.4200 208.0000 1.0000
50.4400 227.0000 1.0000
50.4600 196.0000 1.0000
50.4800 185.0000 1.0000
50.5000 199.0000 1.0000
50.5200 222.0000 1.0000
50.5400 224.0000 1.0000
50.5600 212.0000 1.0000
50.5800 198.0000 1.0000
50.6000 200.0000 1.0000
50.6200 220.0000 1.0000
50.6400 210.0000 1.0000
50.6600 208.0000 1.0000
50.6800 201.0000 1.0000
50.7000 172.0000 1.0000
50.7200 174.0000 1.0000
50.7400 173.0000 1.0000
50.7600 168.0000 1.0000
50.7800 169.0000 1.0000
50.8000 159.0000 1.0000
50.8200 152.0000 1.0000
50.8400 145.0000 1.0000
50.8600 136.0000 1.0000
50.8800 143.0000 1.0000
50.9000 149.0000 1.0000
50.9200 149.0000 1.0000
50.9400 157.0000 1.0000
50.9600 155.0000 1.0000
50.9800 146.0000 1.0000
51.0000 158.0000 1.0000
51.0200 180.0000 1.0000
51.0400 169.0000 1.0000
51.0600 168.0000 1.0000
51.0800 136.0000 1.0000
51.1000 173.0000 1.0000
51.1200 167.0000 1.0000
51.1400 157.0000 1.0000
51.1600 167.0000 1.0000
51.1800 165.0000 1.0000
51.2000 159.0000 1.0000
51.2200 176.0000 1.0000
51.2400 161.0000 1.0000
51.2600 160.0000 1.0000
51.2800 166.0000 1.0000
51.3000 167.0000 1.0000
51.3200 157.0000 1.0000
51.3400 156.0000 1.0000
51.3600 165.0000 1.0000
51.3800 165.0000 1.0000
51.4000 158.0000 1.0000
51.4200 155.0000 1.0000
51.4400 151.0000 1.0000
51.4600 131.0000 1.0000
51.4800 134.0000 1.0000
51.5000 135.0000 1.0000
51.5200 135.0000 1.0000
51.5400 148.0000 1.0000
51.5600 135.0000 1.0000
51.5800 111.0000 1.0000
51.6000 117.0000 1.0000
51.6200 128.0000 1.0000
51.6400 116.0000 1.0000
51.6600 113.0000 1.0000
51.6800 127.0000 1.0000
51.7000 132.0000 1.0000
51.7200 137.0000 1.0000
51.7400 129.0000 1.0000
51.7600 134.0000 1.0000
51.7800 119.0000 1.0000
51.8000 130.0000 1.0000
51.8200 129.0000 1.0000
51.8400 138.0000 1.0000
51.8600 131.0000 1.0000
51.8800 158.0000 1.0000
51.9000 141.0000 1.0000
51.9200 127.0000 1.0000
51.9400 160.0000 1.0000
51.9600 171.0000 1.0000
51.9800 162.0000 1.0000
52.0000 163.0000 1.0000
52.0200 159.0000 1.0000
52.0400 166.0000 1.0000
52.0600 167.0000 1.0000
52.0800 174.0000 1.0000
52.1000 152.0000 1.0000
52.1200 166.0000 1.0000
52.1400 190.0000 1.0000
52.1600 165.0000 1.0000
52.1800 201.0000 1.0000
52.2000 210.0000 1.0000
52.2200 184.0000 1.0000
52.2400 246.0000 1.0000
52.2600 277.0000 1.0000
52.2800 288.0000 1.0000
52.3000 398.0000 1.0000
52.3200 481.0000 1.0000
52.3400 578.0000 1.0000
52.3600 639.0000 1.0000
52.3800 736.0000 1.0000
52.4000 749.0000 1.0000
52.4200 741.0000 1.0000
52.4400 738.0000 1.0000
52.4600 720.0000 1.0000
52.4800 677.0000 1.0000
52.5000 634.0000 1.0000
52.5200 570.0000 1.0000
52.5400 512.0000 1.0000
52.5600 466.0000 1.0000
52.5800 438.0000 1.0000
52.6000 394.0000 1.0000
52.6200 356.0000 1.0000
52.6400 303.0000 1.0000
52.6600 244.0000 1.0000
52.6800 217.0000 1.0000
52.7000 215.0000 1.0000
52.7200 147.0000 1.0000
52.7400 173.0000 1.0000
52.7600 156.0000 1.0000
52.7800 184.0000 1.0000
52.8000 151.0000 1.0000
52.8200 156.0000 1.0000
52.8400 151.0000 1.0000
52.8600 157.0000 1.0000
52.8800 154.0000 1.0000
52.9000 152.0000 1.0000
52.9200 177.0000 1.0000
52.9400 149.0000 1.0000
52.9600 148.0000 1.0000
52.9800 160.0000 1.0000
53.0000 150.0000 1.0000
53.0200 152.0000 1.0000
53.0400 148.0000 1.0000
53.0600 160.0000 1.0000
53.0800 162.0000 1.0000
53.1000 157.0000 1.0000
53.1200 169.0000 1.0000
53.1400 143.0000 1.0000
53.1600 145.0000 1.0000
53.1800 168.0000 1.0000
53.2000 174.0000 1.0000
53.2200 170.0000 1.0000
53.2400 140.0000 1.0000
53.2600 144.0000 1.0000
53.2800 148.0000 1.0000
53.3000 157.0000 1.0000
53.3200 141.0000 1.0000
53.3400 143.0000 1.0000
53.3600 149.0000 1.0000
53.3800 150.0000 1.0000
53.4000 133.0000 1.0000
53.4200 134.0000 1.0000
53.4400 148.0000 1.0000
53.4600 145.0000 1.0000
53.4800 155.0000 1.0000
53.5000 151.0000 1.0000
53.5200 130.0000 1.0000
53.5400 127.0000 1.0000
53.5600 149.0000 1.0000
53.5800 148.0000 1.0000
53.6000 141.0000 1.0000
53.6200 129.0000 1.0000
53.6400 144.0000 1.0000
53.6600 156.0000 1.0000
53.6800 136.0000 1.0000
53.7000 146.0000 1.0000
53.7200 149.0000 1.0000
53.7400 161.0000 1.0000
53.7600 156.0000 1.0000
53.7800 155.0000 1.0000
53.8000 150.0000 1.0000
53.8200 147.0000 1.0000
53.8400 139.0000 1.0000
53.8600 155.0000 1.0000
53.8800 142.0000 1.0000
53.9000 149.0000 1.0000
53.9200 154.0000 1.0000
53.9400 135.0000 1.0000
53.9600 146.0000 1.0000
53.9800 151.0000 1.0000
54.0000 150.0000 1.0000
54.0200 160.0000 1.0000
54.0400 148.0000 1.0000
54.0600 142.0000 1.0000
54.0800 152.0000 1.0000
54.1000 138.0000 1.0000
54.1200 122.0000 1.0000
54.1400 155.0000 1.0000
54.1600 165.0000 1.0000
54.1800 162.0000 1.0000
54.2000 157.0000 1.0000
54.2200 156.0000 1.0000
54.2400 166.0000 1.0000
54.2600 167.0000 1.0000
54.2800 172.0000 1.0000
54.3000 165.0000 1.0000
54.3200 148.0000 1.0000
54.3400 148.0000 1.0000
54.3600 164.0000 1.0000
54.3800 179.0000 1.0000
54.4000 177.0000 1.0000
54.4200 185.0000 1.0000
54.4400 169.0000 1.0000
54.4600 188.0000 1.0000
54.4800 175.0000 1.0000
54.5000 168.0000 1.0000
54.5200 195.0000 1.0000
54.5400 222.0000 1.0000
54.5600 229.0000 1.0000
54.5800 229.0000 1.0000
54.6000 234.0000 1.0000
54.6200 269.0000 1.0000
54.6400 310.0000 1.0000
54.6600 351.0000 1.0000
54.6800 392.0000 1.0000
54.7000 418.0000 1.0000
54.7200 438.0000 1.0000
54.7400 439.0000 1.0000
54.7600 425.0000 1.0000
54.7800 423.0000 1.0000
54.8000 393.0000 1.0000
54.8200 352.0000 1.0000
54.8400 339.0000 1.0000
54.8600 365.0000 1.0000
54.8800 356.0000 1.0000
54.9000 319.0000 1.0000
54.9200 294.0000 1.0000
54.9400 276.0000 1.0000
54.9600 259.0000 1.0000
54.9800 246.0000 1.0000
55.0000 235.0000 1.0000
55.0200 219.0000 1.0000
55.0400 198.0000 1.0000
55.0600 199.0000 1.0000
55.0800 241.0000 1.0000
55.1000 254.0000 1.0000
55.1200 241.0000 1.0000
55.1400 265.0000 1.0000
55.1600 286.0000 1.0000
55.1800 269.0000 1.0000
55.2000 278.0000 1.0000
55.2200 274.0000 1.0000
55.2400 252.0000 1.0000
55.2600 226.0000 1.0000
55.2800 227.0000 1.0000
55.3000 220.0000 1.0000
55.3200 222.0000 1.0000
55.3400 243.0000 1.0000
55.3600 231.0000 1.0000
55.3800 203.0000 1.0000
55.4000 188.0000 1.0000
55.4200 182.0000 1.0000
55.4400 185.0000 1.0000
55.4600 198.0000 1.0000
55.4800 204.0000 1.0000
55.5000 186.0000 1.0000
55.5200 175.0000 1.0000
55.5400 168.0000 1.0000
55.5600 180.0000 1.0000
55.5800 188.0000 1.0000
55.6000 157.0000 1.0000
55.6200 155.0000 1.0000
55.6400 170.0000 1.0000
55.6600 166.0000 1.0000
55.6800 161.0000 1.0000
55.7000 161.0000 1.0000
55.7200 155.0000 1.0000
55.7400 152.0000 1.0000
55.7600 159.0000 1.0000
55.7800 159.0000 1.0000
55.8000 161.0000 1.0000
55.8200 155.0000 1.0000
55.8400 139.0000 1.0000
55.8600 139.0000 1.0000
55.8800 145.0000 1.0000
55.9000 162.0000 1.0000
55.9200 173.0000 1.0000
55.9400 158.0000 1.0000
55.9600 151.0000 1.0000
55.9800 148.0000 1.0000
56.0000 145.0000 1.0000
56.0200 147.0000 1.0000
56.0400 156.0000 1.0000
56.0600 178.0000 1.0000
56.0800 169.0000 1.0000
56.1000 157.0000 1.0000
56.1200 180.0000 1.0000
56.1400 184.0000 1.0000
56.1600 159.0000 1.0000
56.1800 148.0000 1.0000
56.2000 156.0000 1.0000
56.2200 168.0000 1.0000
56.2400 187.0000 1.0000
56.2600 189.0000 1.0000
56.2800 181.0000 1.0000
56.3000 185.0000 1.0000
56.3200 176.0000 1.0000
56.3400 182.0000 1.0000
56.3600 195.0000 1.0000
56.3800 201.0000 1.0000
56.4000 214.0000 1.0000
56.4200 209.0000 1.0000
56.4400 203.0000 1.0000
56.4600 207.0000 1.0000
56.4800 200.0000 1.0000
56.5000 196.0000 1.0000
56.5200 210.0000 1.0000
56.5400 221.0000 1.0000
56.5600 212.0000 1.0000
56.5800 189.0000 1.0000
56.6000 176.0000 1.0000
56.6200 171.0000 1.0000
56.6400 175.0000 1.0000
56.6600 159.0000 1.0000
56.6800 165.0000 1.0000
56.7000 189.0000 1.0000
56.7200 190.0000 1.0000
56.7400 178.0000 1.0000
56.7600 157.0000 1.0000
56.7800 158.0000 1.0000
56.8000 174.0000 1.0000
56.8200 175.0000 1.0000
56.8400 168.0000 1.0000
56.8600 158.0000 1.0000
56.8800 152.0000 1.0000
56.9000 160.0000 1.0000
56.9200 169.0000 1.0000
56.9400 184.0000 1.0000
56.9600 185.0000 1.0000
56.9800 193.0000 1.0000
57.0000 196.0000 1.0000
57.0200 197.0000 1.0000
57.0400 199.0000 1.0000
57.0600 225.0000 1.0000
57.0800 231.0000 1.0000
57.1000 233.0000 1.0000
57.1200 237.0000 1.0000
57.1400 257.0000 1.0000
57.1600 285.0000 1.0000
57.1800 311.0000 1.0000
57.2000 364.0000 1.0000
57.2200 449.0000 1.0000
57.2400 504.0000 1.0000
57.2600 635.0000 1.0000
57.2800 781.0000 1.0000
57.3000 978.0000 1.0000
57.3200 1176.0000 1.0000
57.3400 1291.0000 1.0000
57.3600 1343.0000 1.0000
57.3800 1343.0000 1.0000
57.4000 1279.0000 1.0000
57.4200 1180.0000 1.0000
57.4400 1032.0000 1.0000
57.4600 931.0000 1.0000
57.4800 897.0000 1.0000
57.5000 872.0000 1.0000
57.5200 791.0000 1.0000
57.5400 731.0000 1.0000
57.5600 650.0000 1.0000
57.5800 545.0000 1.0000
57.6000 447.0000 1.0000
57.6200 350.0000 1.0000
57.6400 294.0000 1.0000
57.6600 253.0000 1.0000
57.6800 223.0000 1.0000
57.7000 193.0000 1.0000
57.7200 197.0000 1.0000
57.7400 191.0000 1.0000
57.7600 184.0000 1.0000
57.7800 172.0000 1.0000
57.8000 161.0000 1.0000
57.8200 153.0000 1.0000
57.8400 143.0000 1.0000
57.8600 135.0000 1.0000
57.8800 156.0000 1.0000
57.9000 146.0000 1.0000
57.9200 139.0000 1.0000
57.9400 135.0000 1.0000
57.9600 139.0000 1.0000
57.9800 121.0000 1.0000
58.0000 123.0000 1.0000
58.0200 128.0000 1.0000
58.0400 127.0000 1.0000
58.0600 133.0000 1.0000
58.0800 121.0000 1.0000
58.1000 127.0000 1.0000
58.1200 126.0000 1.0000
58.1400 128.0000 1.0000
58.1600 116.0000 1.0000
58.1800 148.0000 1.0000
58.2000 126.0000 1.0000
58.2200 122.0000 1.0000
58.2400 128.0000 1.0000
58.2600 121.0000 1.0000
58.2800 113.0000 1.0000
58.3000 123.0000 1.0000
58.3200 138.0000 1.0000
58.3400 132.0000 1.0000
58.3600 128.0000 1.0000
58.3800 120.0000 1.0000
58.4000 106.0000 1.0000
58.4200 118.0000 1.0000
58.4400 122.0000 1.0000
58.4600 114.0000 1.0000
58.4800 124.0000 1.0000
58.5000 127.0000 1.0000
58.5200 144.0000 1.0000
58.5400 142.0000 1.0000
58.5600 131.0000 1.0000
58.5800 140.0000 1.0000
58.6000 122.0000 1.0000
58.6200 128.0000 1.0000
58.6400 136.0000 1.0000
58.6600 134.0000 1.0000
58.6800 136.0000 1.0000
58.7000 130.0000 1.0000
58.7200 134.0000 1.0000
58.7400 143.0000 1.0000
58.7600 153.0000 1.0000
58.7800 145.0000 1.0000
58.8000 132.0000 1.0000
58.8200 130.0000 1.0000
58.8400 129.0000 1.0000
58.8600 146.0000 1.0000
58.8800 145.0000 1.0000
58.9000 141.0000 1.0000
58.9200 133.0000 1.0000
58.9400 132.0000 1.0000
58.9600 138.0000 1.0000
58.9800 145.0000 1.0000
59.0000 128.0000 1.0000
59.0200 123.0000 1.0000
59.0400 140.0000 1.0000
59.0600 129.0000 1.0000
59.0800 131.0000 1.0000
59.1000 151.0000 1.0000
59.1200 116.0000 1.0000
59.1400 128.0000 1.0000
59.1600 160.0000 1.0000
59.1800 173.0000 1.0000
59.2000 145.0000 1.0000
59.2200 145.0000 1.0000
59.2400 144.0000 1.0000
59.2600 146.0000 1.0000
59.2800 146.0000 1.0000
59.3000 163.0000 1.0000
59.3200 161.0000 1.0000
59.3400 165.0000 1.0000
59.3600 163.0000 1.0000
59.3800 168.0000 1.0000
59.4000 176.0000 1.0000
59.4200 205.0000 1.0000
59.4400 194.0000 1.0000
59.4600 198.0000 1.0000
59.4800 216.0000 1.0000
59.5000 194.0000 1.0000
59.5200 196.0000 1.0000
59.5400 224.0000 1.0000
59.5600 229.0000 1.0000
59.5800 247.0000 1.0000
59.6000 259.0000 1.0000
59.6200 279.0000 1.0000
59.6400 281.0000 1.0000
59.6600 321.0000 1.0000
59.6800 371.0000 1.0000
59.7000 404.0000 1.0000
59.7200 448.0000 1.0000
59.7400 582.0000 1.0000
59.7600 648.0000 1.0000
59.7800 734.0000 1.0000
59.8000 778.0000 1.0000
59.8200 828.0000 1.0000
59.8400 848.0000 1.0000
59.8600 782.0000 1.0000
59.8800 713.0000 1.0000
59.9000 652.0000 1.0000
59.9200 601.0000 1.0000
59.9400 562.0000 1.0000
59.9600 583.0000 1.0000
59.9800 589.0000 1.0000
60.0000 520.0000 1.0000
60.0200 476.0000 1.0000
60.0400 413.0000 1.0000
60.0600 394.0000 1.0000
60.0800 305.0000 1.0000
60.1000 257.0000 1.0000
60.1200 226.0000 1.0000
60.1400 234.0000 1.0000
60.1600 210.0000 1.0000
60.1800 191.0000 1.0000
60.2000 193.0000 1.0000
60.2200 198.0000 1.0000
60.2400 181.0000 1.0000
60.2600 194.0000 1.0000
60.2800 201.0000 1.0000
60.3000 170.0000 1.0000
60.3200 157.0000 1.0000
60.3400 178.0000 1.0000
60.3600 191.0000 1.0000
60.3800 180.0000 1.0000
60.4000 146.0000 1.0000
60.4200 159.0000 1.0000
60.4400 160.0000 1.0000
60.4600 184.0000 1.0000
60.4800 137.0000 1.0000
60.5000 163.0000 1.0000
60.5200 152.0000 1.0000
60.5400 154.0000 1.0000
60.5600 153.0000 1.0000
60.5800 173.0000 1.0000
60.6000 157.0000 1.0000
60.6200 133.0000 1.0000
60.6400 144.0000 1.0000
60.6600 161.0000 1.0000
60.6800 156.0000 1.0000
60.7000 147.0000 1.0000
60.7200 132.0000 1.0000
60.7400 162.0000 1.0000
60.7600 155.0000 1.0000
60.7800 162.0000 1.0000
60.8000 161.0000 1.0000
60.8200 166.0000 1.0000
60.8400 158.0000 1.0000
60.8600 172.0000 1.0000
60.8800 192.0000 1.0000
60.9000 150.0000 1.0000
60.9200 174.0000 1.0000
60.9400 194.0000 1.0000
60.9600 215.0000 1.0000
60.9800 206.0000 1.0000
61.0000 209.0000 1.0000
61.0200 221.0000 1.0000
61.0400 245.0000 1.0000
61.0600 216.0000 1.0000
61.0800 218.0000 1.0000
61.1000 253.0000 1.0000
61.1200 261.0000 1.0000
61.1400 266.0000 1.0000
61.1600 262.0000 1.0000
61.1800 260.0000 1.0000
61.2000 261.0000 1.0000
61.2200 252.0000 1.0000
61.2400 261.0000 1.0000
61.2600 249.0000 1.0000
61.2800 267.0000 1.0000
61.3000 224.0000 1.0000
61.3200 238.0000 1.0000
61.3400 228.0000 1.0000
61.3600 236.0000 1.0000
61.3800 232.0000 1.0000
61.4000 234.0000 1.0000
61.4200 225.0000 1.0000
61.4400 246.0000 1.0000
61.4600 213.0000 1.0000
61.4800 219.0000 1.0000
61.5000 204.0000 1.0000
61.5200 246.0000 1.0000
61.5400 204.0000 1.0000
61.5600 264.0000 1.0000
61.5800 239.0000 1.0000
61.6000 269.0000 1.0000
61.6200 242.0000 1.0000
61.6400 245.0000 1.0000
61.6600 268.0000 1.0000
61.6800 279.0000 1.0000
61.7000 251.0000 1.0000
61.7200 248.0000 1.0000
61.7400 267.0000 1.0000
61.7600 263.0000 1.0000
61.7800 254.0000 1.0000
61.8000 249.0000 1.0000
61.8200 233.0000 1.0000
61.8400 241.0000 1.0000
61.8600 255.0000 1.0000
61.8800 292.0000 1.0000
61.9000 228.0000 1.0000
61.9200 235.0000 1.0000
61.9400 213.0000 1.0000
61.9600 205.0000 1.0000
61.9800 225.0000 1.0000
62.0000 243.0000 1.0000
62.0200 237.0000 1.0000
62.0400 229.0000 1.0000
62.0600 212.0000 1.0000
62.0800 217.0000 1.0000
62.1000 173.0000 1.0000
62.1200 212.0000 1.0000
62.1400 209.0000 1.0000
62.1600 196.0000 1.0000
62.1800 206.0000 1.0000
62.2000 204.0000 1.0000
62.2200 196.0000 1.0000
62.2400 170.0000 1.0000
62.2600 181.0000 1.0000
62.2800 187.0000 1.0000
62.3000 199.0000 1.0000
62.3200 188.0000 1.0000
62.3400 180.0000 1.0000
62.3600 174.0000 1.0000
62.3800 178.0000 1.0000
62.4000 144.0000 1.0000
62.4200 154.0000 1.0000
62.4400 154.0000 1.0000
62.4600 139.0000 1.0000
62.4800 153.0000 1.0000
62.5000 164.0000 1.0000
62.5200 167.0000 1.0000
62.5400 154.0000 1.0000
62.5600 146.0000 1.0000
62.5800 173.0000 1.0000
62.6000 154.0000 1.0000
62.6200 172.0000 1.0000
62.6400 122.0000 1.0000
62.6600 150.0000 1.0000
62.6800 155.0000 1.0000
62.7000 153.0000 1.0000
62.7200 161.0000 1.0000
62.7400 127.0000 1.0000
62.7600 144.0000 1.0000
62.7800 145.0000 1.0000
62.8000 140.0000 1.0000
62.8200 136.0000 1.0000
62.8400 132.0000 1.0000
62.8600 135.0000 1.0000
62.8800 133.0000 1.0000
62.9000 118.0000 1.0000
62.9200 121.0000 1.0000
62.9400 119.0000 1.0000
62.9600 123.0000 1.0000
62.9800 139.0000 1.0000
63.0000 126.0000 1.0000
63.0200 148.0000 1.0000
63.0400 113.0000 1.0000
63.0600 119.0000 1.0000
63.0800 127.0000 1.0000
63.1000 143.0000 1.0000
63.1200 139.0000 1.0000
63.1400 123.0000 1.0000
63.1600 123.0000 1.0000
63.1800 134.0000 1.0000
63.2000 139.0000 1.0000
63.2200 134.0000 1.0000
63.2400 133.0000 1.0000
63.2600 136.0000 1.0000
63.2800 136.0000 1.0000
63.3000 148.0000 1.0000
63.3200 142.0000 1.0000
63.3400 127.0000 1.0000
63.3600 141.0000 1.0000
63.3800 153.0000 1.0000
63.4000 149.0000 1.0000
63.4200 131.0000 1.0000
63.4400 139.0000 1.0000
63.4600 148.0000 1.0000
63.4800 134.0000 1.0000
63.5000 143.0000 1.0000
63.5200 159.0000 1.0000
63.5400 149.0000 1.0000
63.5600 140.0000 1.0000
63.5800 141.0000 1.0000
63.6000 157.0000 1.0000
63.6200 151.0000 1.0000
63.6400 145.0000 1.0000
63.6600 138.0000 1.0000
63.6800 155.0000 1.0000
63.7000 153.0000 1.0000
63.7200 174.0000 1.0000
63.7400 186.0000 1.0000
63.7600 192.0000 1.0000
63.7800 178.0000 1.0000
63.8000 192.0000 1.0000
63.8200 196.0000 1.0000
63.8400 204.0000 1.0000
63.8600 224.0000 1.0000
63.8800 246.0000 1.0000
63.9000 241.0000 1.0000
63.9200 241.0000 1.0000
63.9400 248.0000 1.0000
63.9600 231.0000 1.0000
63.9800 230.0000 1.0000
64.0000 214.0000 1.0000
64.0200 183.0000 1.0000
64.0400 179.0000 1.0000
64.0600 189.0000 1.0000
64.0800 176.0000 1.0000
64.1000 173.0000 1.0000
64.1200 178.0000 1.0000
64.1400 156.0000 1.0000
64.1600 135.0000 1.0000
64.1800 149.0000 1.0000
64.2000 130.0000 1.0000
64.2200 132.0000 1.0000
64.2400 142.0000 1.0000
64.2600 142.0000 1.0000
64.2800 122.0000 1.0000
64.3000 119.0000 1.0000
64.3200 132.0000 1.0000
64.3400 127.0000 1.0000
64.3600 127.0000 1.0000
64.3800 143.0000 1.0000
64.4000 131.0000 1.0000
64.4200 118.0000 1.0000
64.4400 124.0000 1.0000
64.4600 123.0000 1.0000
64.4800 110.0000 1.0000
64.5000 98.0000 1.0000
64.5200 109.0000 1.0000
64.5400 108.0000 1.0000
64.5600 108.0000 1.0000
64.5800 122.0000 1.0000
64.6000 126.0000 1.0000
64.6200 129.0000 1.0000
64.6400 126.0000 1.0000
64.6600 135.0000 1.0000
64.6800 119.0000 1.0000
64.7000 111.0000 1.0000
64.7200 135.0000 1.0000
64.7400 126.0000 1.0000
64.7600 115.0000 1.0000
64.7800 123.0000 1.0000
64.8000 131.0000 1.0000
64.8200 150.0000 1.0000
64.8400 140.0000 1.0000
64.8600 132.0000 1.0000
64.8800 124.0000 1.0000
64.9000 124.0000 1.0000
64.9200 127.0000 1.0000
64.9400 123.0000 1.0000
64.9600 121.0000 1.0000
64.9800 121.0000 1.0000
65.0000 121.0000 1.0000
*RAS_INT_END
*RAS_DATA_END
