*RAS_DATA_START
*RAS_HEADER_START
*CORR_POS_DB_NAME "Angle Correction ASC6 SC WITH Mono_04082019"
*CORR_POS_GONIO_RADIUS ""
*CORR_POS_NODE_INDEX01 ""
*CORR_POS_NODE_INDEX02 ""
*CORR_POS_NODE_INDEX03 ""
*CORR_POS_NODE_INDEX04 ""
*CORR_POS_NODE_INDEX05 ""
*CORR_POS_NODE_INDEX06 ""
*CORR_POS_NODE_INDEX07 ""
*CORR_POS_NODE_INDEX08 ""
*CORR_POS_NODE_INDEX09 ""
*CORR_POS_NODE_INDEX10 ""
*CORR_POS_NODE_INDEX11 ""
*CORR_POS_NODE_LABEL01 "Si(111)"
*CORR_POS_NODE_LABEL02 "Si(220)"
*CORR_POS_NODE_LABEL03 "Si(311)"
*CORR_POS_NODE_LABEL04 "Si(400)"
*CORR_POS_NODE_LABEL05 "Si(331)"
*CORR_POS_NODE_LABEL06 "Si(422)"
*CORR_POS_NODE_LABEL07 "Si(511)"
*CORR_POS_NODE_LABEL08 "Si(440)"
*CORR_POS_NODE_LABEL09 "Si(531)"
*CORR_POS_NODE_LABEL10 "Si(620)"
*CORR_POS_NODE_LABEL11 "Si(533)"
*CORR_POS_NODE_POS_CALC01 "28.377"
*CORR_POS_NODE_POS_CALC02 "47.2506"
*CORR_POS_NODE_POS_CALC03 "56.0725"
*CORR_POS_NODE_POS_CALC04 "69.0822"
*CORR_POS_NODE_POS_CALC05 "76.3294"
*CORR_POS_NODE_POS_CALC06 "87.9853"
*CORR_POS_NODE_POS_CALC07 "94.9091"
*CORR_POS_NODE_POS_CALC08 "106.668"
*CORR_POS_NODE_POS_CALC09 "114.054"
*CORR_POS_NODE_POS_CALC10 "127.511"
*CORR_POS_NODE_POS_CALC11 "136.864"
*CORR_POS_NODE_POS_MEAS01 "28.5058"
*CORR_POS_NODE_POS_MEAS02 "47.345"
*CORR_POS_NODE_POS_MEAS03 "56.1421"
*CORR_POS_NODE_POS_MEAS04 "69.1304"
*CORR_POS_NODE_POS_MEAS05 "76.366"
*CORR_POS_NODE_POS_MEAS06 "88.0213"
*CORR_POS_NODE_POS_MEAS07 "94.9406"
*CORR_POS_NODE_POS_MEAS08 "106.689"
*CORR_POS_NODE_POS_MEAS09 "114.065"
*CORR_POS_NODE_POS_MEAS10 "127.518"
*CORR_POS_NODE_POS_MEAS11 "136.869"
*CORR_POS_OPT_ATTR "集中法"
*CORR_POS_PARAM_MU ""
*CORR_POS_PARAM_PL ""
*CORR_POS_SEMODEL_TYPE "0"
*CORR_POS_STANDARD_TYPE ""
*CORR_POS_VALUE_ANALYZER "None"
*CORR_POS_VALUE_CMONO "None"
*CORR_POS_VALUE_IMONO "None"
*CORR_POS_VALUE_IS "1.250deg"
*CORR_POS_VALUE_ISL "10.0mm"
*CORR_POS_VALUE_ISOLLER "5.0deg"
*CORR_POS_VALUE_RS1 "1.250deg"
*CORR_POS_VALUE_RS2 "0.3mm"
*CORR_POS_VALUE_RSOLLER "5.0deg"
*CORR_POS_XG_FOCUS_L ""
*CORR_POS_XG_WAVE_TYPE ""
*CORR_POS_XG_WAVE_VALUE ""
*DISP_FMT_X "%.2f"
*DISP_FMT_Y "%.0f"
*DISP_FULLSCALE "4163.4000000000"
*DISP_LINE_COLOR "255.0000000000"
*DISP_LINE_STYLE "0.0000000000"
*DISP_LINE_WIDTH "0.2500000000"
*DISP_NOTE "Collected Data-7"
*DISP_OFFSET_Y "0.0000000000"
*DISP_PEAKSEARCH_UNIT_Y "CPS"
*DISP_RANGE_BOTTOM "0.0000000000"
*DISP_RANGE_LEFT "5.0000000000"
*DISP_RANGE_LOGCUTOFF "0.0100000000"
*DISP_RANGE_RIGHT "65.0000000000"
*DISP_RANGE_TOP "4163.4000000000"
*DISP_SCALE_MODE_Y "0.0000000000"
*DISP_TAB_NAME "Theta/2-Theta"
*DISP_TITLE_Y "Intensity"
*DISP_UNIT_Y "CPS"
*DISP_WINDOW_NAME "MSG_MACROENGINE"
*FILE_COMMENT " "
*FILE_MD5 ""
*FILE_MEMO " "
*FILE_OPERATOR "Administrator"
*FILE_PART_ID "MEAS_PBEA_00223"
*FILE_SAMPLE " "
*FILE_TYPE "RAS_RAW"
*FILE_USERGROUP "System Manager"
*FILE_VERSION "1.0000000000"
*HW_ATTACHMENT_ID "ATT1031"
*HW_ATTACHMENT_NAME "6サンプルチェンジャ|ASC-6"
*HW_COUNTER_ID-0 "CUT0021"
*HW_COUNTER_ID-1 "CUT0020"
*HW_COUNTER_ID-2 "CUT0020"
*HW_COUNTER_ID-3 "CMC0021"
*HW_COUNTER_NAME-0 "SC-70|SC-70"
*HW_COUNTER_NAME-1 "None|None"
*HW_COUNTER_NAME-2 "None|None"
*HW_COUNTER_NAME-3 "検出器モノクロメータ|Detector monochromator"
*HW_COUNTER_SELECT_NAME "SC-70|SC-70"
*HW_ECP_HV "671.5000000000"
*HW_ECP_HV_UNIT "V"
*HW_GONIOMETER_ID "GON0070"
*HW_GONIOMETER_NAME "MiniFlex 300/600|MiniFlex 300/600"
*HW_GONIOMETER_RADIUS-0 "79.0"
*HW_GONIOMETER_RADIUS-1 "91.5"
*HW_GONIOMETER_RADIUS-2 "150.0"
*HW_GONIOMETER_RADIUS-3 "0"
*HW_GONIOMETER_RADIUS-4 "103.4"
*HW_GONIOMETER_RADIUS-5 "150.0"
*HW_GONIOMETER_RADIUS-6 "46.6"
*HW_GONIOMETER_RADIUS-7 "160.0"
*HW_I_OPT_ID-0 "ISL0021"
*HW_I_OPT_ID-1 "ISO0021"
*HW_I_OPT_NAME-0 "発散スリット|Divergence slit"
*HW_I_OPT_NAME-1 "入射平行スリット|Incident parallel slit"
*HW_R_ATTENUATER_AUTOMODE "0"
*HW_R_OPT_ID-0 "RSS0021"
*HW_R_OPT_ID-1 "RSO0021"
*HW_R_OPT_ID-2 "RRS0021"
*HW_R_OPT_NAME-0 "散乱スリット|Scattering slit"
*HW_R_OPT_NAME-1 "受光平行スリット|Receiving soller slit"
*HW_R_OPT_NAME-2 "受光スリット|Receiving slit"
*HW_SAMPLE_HOLDER_ID "SMP0000"
*HW_SAMPLE_HOLDER_NAME "無し|None"
*HW_XG_CURRENT_MAX "15"
*HW_XG_CURRENT_MIN "2"
*HW_XG_CURRENT_RESOLUTION "1"
*HW_XG_CURRENT_UNIT "mA"
*HW_XG_FOCUS "1mm x 10mm"
*HW_XG_FOCUS_TYPE "Normal"
*HW_XG_ID "1060"
*HW_XG_NAME "300W/600W 封入管-B|300W/600W Sealed tube-B"
*HW_XG_TARGET_ATOMIC_NUMBER "29.0000000000"
*HW_XG_TARGET_NAME "Cu"
*HW_XG_TYPE "Hermetic"
*HW_XG_VOLTAGE_MAX "40"
*HW_XG_VOLTAGE_MIN "20"
*HW_XG_VOLTAGE_RESOLUTION "1"
*HW_XG_VOLTAGE_UNIT "kV"
*HW_XG_WATT_MAX "0.600"
*HW_XG_WATT_UNIT "kW"
*HW_XG_WAVE_LENGTH_ALPHA1 "1.540593"
*HW_XG_WAVE_LENGTH_ALPHA2 "1.544414"
*HW_XG_WAVE_LENGTH_BETA "1.392250"
*MEAS_COND_AXIS_NAME-0 "Theta/2-Theta"
*MEAS_COND_AXIS_NAME-1 "Spin"
*MEAS_COND_AXIS_NAME-2 "Change"
*MEAS_COND_AXIS_NAME-3 "Soller(inc.)"
*MEAS_COND_AXIS_NAME-4 "IHS"
*MEAS_COND_AXIS_NAME-5 "DS"
*MEAS_COND_AXIS_NAME-6 "SS"
*MEAS_COND_AXIS_NAME-7 "Soller(rec.)"
*MEAS_COND_AXIS_NAME-8 "RS"
*MEAS_COND_AXIS_NAME-9 "Filter"
*MEAS_COND_AXIS_NAME-10 "Monochromator"
*MEAS_COND_AXIS_NAME-11 "HV"
*MEAS_COND_AXIS_NAME-12 "PHA"
*MEAS_COND_AXIS_NAME_INTERNAL-0 "TwoThetaTheta"
*MEAS_COND_AXIS_NAME_INTERNAL-1 "Spin"
*MEAS_COND_AXIS_NAME_INTERNAL-2 "Change"
*MEAS_COND_AXIS_NAME_INTERNAL-3 "IncidentSollerSlit"
*MEAS_COND_AXIS_NAME_INTERNAL-4 "IncidentAxdSlit"
*MEAS_COND_AXIS_NAME_INTERNAL-5 "IncidentSlitBox"
*MEAS_COND_AXIS_NAME_INTERNAL-6 "ReceivingSlitBox1"
*MEAS_COND_AXIS_NAME_INTERNAL-7 "ReceivingSollerSlit"
*MEAS_COND_AXIS_NAME_INTERNAL-8 "ReceivingSlitBox2"
*MEAS_COND_AXIS_NAME_INTERNAL-9 "Filter"
*MEAS_COND_AXIS_NAME_INTERNAL-10 "CounterMonochromator"
*MEAS_COND_AXIS_NAME_INTERNAL-11 "HV"
*MEAS_COND_AXIS_NAME_INTERNAL-12 "PHA"
*MEAS_COND_AXIS_NAME_MAGICNO-0 "268632064.0000000000"
*MEAS_COND_AXIS_NAME_MAGICNO-1 "16842752.0000000000"
*MEAS_COND_AXIS_NAME_MAGICNO-2 "16842752.0000000000"
*MEAS_COND_AXIS_NAME_MAGICNO-3 "20971521.0000000000"
*MEAS_COND_AXIS_NAME_MAGICNO-4 "22020097.0000000000"
*MEAS_COND_AXIS_NAME_MAGICNO-5 "22020097.0000000000"
*MEAS_COND_AXIS_NAME_MAGICNO-6 "23068673.0000000000"
*MEAS_COND_AXIS_NAME_MAGICNO-7 "20971521.0000000000"
*MEAS_COND_AXIS_NAME_MAGICNO-8 "23068673.0000000000"
*MEAS_COND_AXIS_NAME_MAGICNO-9 "20971521.0000000000"
*MEAS_COND_AXIS_NAME_MAGICNO-10 "20971521.0000000000"
*MEAS_COND_AXIS_NAME_MAGICNO-11 "0.0000000000"
*MEAS_COND_AXIS_NAME_MAGICNO-12 "0.0000000000"
*MEAS_COND_AXIS_OFFSET-0 "0.0000000000"
*MEAS_COND_AXIS_OFFSET-1 "-"
*MEAS_COND_AXIS_OFFSET-2 "-"
*MEAS_COND_AXIS_OFFSET-3 "-"
*MEAS_COND_AXIS_OFFSET-4 "-"
*MEAS_COND_AXIS_OFFSET-5 "-"
*MEAS_COND_AXIS_OFFSET-6 "-"
*MEAS_COND_AXIS_OFFSET-7 "-"
*MEAS_COND_AXIS_OFFSET-8 "-"
*MEAS_COND_AXIS_OFFSET-9 "-"
*MEAS_COND_AXIS_OFFSET-10 "-"
*MEAS_COND_AXIS_OFFSET-11 "-"
*MEAS_COND_AXIS_OFFSET-12 "-"
*MEAS_COND_AXIS_POSITION-0 "10.0000000000"
*MEAS_COND_AXIS_POSITION-1 "0.0000000000"
*MEAS_COND_AXIS_POSITION-2 "1.0000000000"
*MEAS_COND_AXIS_POSITION-3 "5.0deg"
*MEAS_COND_AXIS_POSITION-4 "10.0mm"
*MEAS_COND_AXIS_POSITION-5 "1.250deg"
*MEAS_COND_AXIS_POSITION-6 "1.250deg"
*MEAS_COND_AXIS_POSITION-7 "5.0deg"
*MEAS_COND_AXIS_POSITION-8 "0.3mm"
*MEAS_COND_AXIS_POSITION-9 "None"
*MEAS_COND_AXIS_POSITION-10 "Bent"
*MEAS_COND_AXIS_POSITION-11 "671.5000000000"
*MEAS_COND_AXIS_POSITION-12 "551.2500000000"
*MEAS_COND_AXIS_UNIT-0 "deg"
*MEAS_COND_AXIS_UNIT-1 ""
*MEAS_COND_AXIS_UNIT-2 ""
*MEAS_COND_AXIS_UNIT-3 ""
*MEAS_COND_AXIS_UNIT-4 ""
*MEAS_COND_AXIS_UNIT-5 ""
*MEAS_COND_AXIS_UNIT-6 ""
*MEAS_COND_AXIS_UNIT-7 ""
*MEAS_COND_AXIS_UNIT-8 ""
*MEAS_COND_AXIS_UNIT-9 ""
*MEAS_COND_AXIS_UNIT-10 ""
*MEAS_COND_AXIS_UNIT-11 "V"
*MEAS_COND_AXIS_UNIT-12 "mV"
*MEAS_COND_CORRECTION_SLIT_COUNTERMONO "None"
*MEAS_COND_CORRECTION_SLIT_DS "1.250deg"
*MEAS_COND_CORRECTION_SLIT_FILTER "None"
*MEAS_COND_CORRECTION_SLIT_IHS "10.0mm"
*MEAS_COND_CORRECTION_SLIT_RS "0.3mm"
*MEAS_COND_CORRECTION_SLIT_SOLLER_INC "5.0deg"
*MEAS_COND_CORRECTION_SLIT_SOLLER_REC "5.0deg"
*MEAS_COND_CORRECTION_SLIT_SS "1.250deg"
*MEAS_COND_COUNTER_CNTLOSS_CORR "0.0000000000"
*MEAS_COND_COUNTER_PHABASE "551.2500000000"
*MEAS_COND_COUNTER_PHAWINDOW "926.2500000000"
*MEAS_COND_COUNTER_PHA_UNIT "mV"
*MEAS_COND_COUNTER_TAUDIFF "0.2500000000"
*MEAS_COND_COUNTER_TAUINT "0.7500000000"
*MEAS_COND_IRRADIATION_MODE "OFF"
*MEAS_COND_IRRADIATION_WIDTH ""
*MEAS_COND_OPT_ATTR " "
*MEAS_COND_OPT_NAME ""
*MEAS_COND_UNSYMMETRIC_MODE "OFF"
*MEAS_COND_XG_CURRENT "15.0000000000"
*MEAS_COND_XG_VOLTAGE "40.0000000000"
*MEAS_COND_XG_WAVE_TYPE "Ka"
*MEAS_DATA_COUNT "3001.0000000000"
*MEAS_SCAN_AXIS_X "Theta/2-Theta"
*MEAS_SCAN_AXIS_X_INTERNAL "TwoThetaTheta"
*MEAS_SCAN_END_TIME "07/16/25 20:42:08"
*MEAS_SCAN_MODE "STEP"
*MEAS_SCAN_MONITOR "0"
*MEAS_SCAN_RESOLUTION_X "0.0025"
*MEAS_SCAN_SPEED "2.00"
*MEAS_SCAN_SPEED_UNIT "sec."
*MEAS_SCAN_SPEED_USER "2.00"
*MEAS_SCAN_START "5.0000000000"
*MEAS_SCAN_START_TIME "07/16/25 18:56:58"
*MEAS_SCAN_STEP "0.0200000000"
*MEAS_SCAN_STOP "65.0000000000"
*MEAS_SCAN_UNIT_X "deg"
*MEAS_SCAN_UNIT_Y "counts"
*SLIT_SYSTEM "0"
*RAS_HEADER_END
*RAS_INT_START
5.0000 1251.0000 1.0000
5.0200 1369.0000 1.0000
5.0400 1330.0000 1.0000
5.0600 1203.0000 1.0000
5.0800 1371.0000 1.0000
5.1000 1212.0000 1.0000
5.1200 1182.0000 1.0000
5.1400 1311.0000 1.0000
5.1600 1317.0000 1.0000
5.1800 1291.0000 1.0000
5.2000 1217.0000 1.0000
5.2200 1198.0000 1.0000
5.2400 1126.0000 1.0000
5.2600 1235.0000 1.0000
5.2800 1174.0000 1.0000
5.3000 1103.0000 1.0000
5.3200 1134.0000 1.0000
5.3400 1283.0000 1.0000
5.3600 1251.0000 1.0000
5.3800 1208.0000 1.0000
5.4000 1186.0000 1.0000
5.4200 1185.0000 1.0000
5.4400 1267.0000 1.0000
5.4600 1163.0000 1.0000
5.4800 1186.0000 1.0000
5.5000 1219.0000 1.0000
5.5200 1258.0000 1.0000
5.5400 1257.0000 1.0000
5.5600 1098.0000 1.0000
5.5800 1041.0000 1.0000
5.6000 1231.0000 1.0000
5.6200 1219.0000 1.0000
5.6400 1116.0000 1.0000
5.6600 1191.0000 1.0000
5.6800 1108.0000 1.0000
5.7000 1150.0000 1.0000
5.7200 1113.0000 1.0000
5.7400 1178.0000 1.0000
5.7600 1109.0000 1.0000
5.7800 1228.0000 1.0000
5.8000 1217.0000 1.0000
5.8200 1142.0000 1.0000
5.8400 1180.0000 1.0000
5.8600 1170.0000 1.0000
5.8800 1083.0000 1.0000
5.9000 1105.0000 1.0000
5.9200 1126.0000 1.0000
5.9400 1063.0000 1.0000
5.9600 1069.0000 1.0000
5.9800 1049.0000 1.0000
6.0000 1093.0000 1.0000
6.0200 1160.0000 1.0000
6.0400 1156.0000 1.0000
6.0600 1085.0000 1.0000
6.0800 1180.0000 1.0000
6.1000 1136.0000 1.0000
6.1200 1114.0000 1.0000
6.1400 1068.0000 1.0000
6.1600 1070.0000 1.0000
6.1800 1136.0000 1.0000
6.2000 1051.0000 1.0000
6.2200 1009.0000 1.0000
6.2400 928.0000 1.0000
6.2600 970.0000 1.0000
6.2800 984.0000 1.0000
6.3000 940.0000 1.0000
6.3200 922.0000 1.0000
6.3400 904.0000 1.0000
6.3600 937.0000 1.0000
6.3800 954.0000 1.0000
6.4000 928.0000 1.0000
6.4200 911.0000 1.0000
6.4400 890.0000 1.0000
6.4600 890.0000 1.0000
6.4800 931.0000 1.0000
6.5000 885.0000 1.0000
6.5200 865.0000 1.0000
6.5400 894.0000 1.0000
6.5600 823.0000 1.0000
6.5800 815.0000 1.0000
6.6000 857.0000 1.0000
6.6200 846.0000 1.0000
6.6400 864.0000 1.0000
6.6600 892.0000 1.0000
6.6800 870.0000 1.0000
6.7000 825.0000 1.0000
6.7200 834.0000 1.0000
6.7400 809.0000 1.0000
6.7600 779.0000 1.0000
6.7800 807.0000 1.0000
6.8000 761.0000 1.0000
6.8200 693.0000 1.0000
6.8400 718.0000 1.0000
6.8600 751.0000 1.0000
6.8800 766.0000 1.0000
6.9000 769.0000 1.0000
6.9200 772.0000 1.0000
6.9400 794.0000 1.0000
6.9600 794.0000 1.0000
6.9800 792.0000 1.0000
7.0000 771.0000 1.0000
7.0200 753.0000 1.0000
7.0400 775.0000 1.0000
7.0600 799.0000 1.0000
7.0800 781.0000 1.0000
7.1000 726.0000 1.0000
7.1200 685.0000 1.0000
7.1400 753.0000 1.0000
7.1600 806.0000 1.0000
7.1800 731.0000 1.0000
7.2000 662.0000 1.0000
7.2200 662.0000 1.0000
7.2400 691.0000 1.0000
7.2600 708.0000 1.0000
7.2800 731.0000 1.0000
7.3000 727.0000 1.0000
7.3200 694.0000 1.0000
7.3400 677.0000 1.0000
7.3600 670.0000 1.0000
7.3800 681.0000 1.0000
7.4000 712.0000 1.0000
7.4200 687.0000 1.0000
7.4400 685.0000 1.0000
7.4600 749.0000 1.0000
7.4800 744.0000 1.0000
7.5000 702.0000 1.0000
7.5200 698.0000 1.0000
7.5400 679.0000 1.0000
7.5600 704.0000 1.0000
7.5800 700.0000 1.0000
7.6000 666.0000 1.0000
7.6200 711.0000 1.0000
7.6400 682.0000 1.0000
7.6600 639.0000 1.0000
7.6800 606.0000 1.0000
7.7000 597.0000 1.0000
7.7200 658.0000 1.0000
7.7400 644.0000 1.0000
7.7600 648.0000 1.0000
7.7800 663.0000 1.0000
7.8000 678.0000 1.0000
7.8200 674.0000 1.0000
7.8400 682.0000 1.0000
7.8600 670.0000 1.0000
7.8800 683.0000 1.0000
7.9000 691.0000 1.0000
7.9200 642.0000 1.0000
7.9400 602.0000 1.0000
7.9600 641.0000 1.0000
7.9800 667.0000 1.0000
8.0000 666.0000 1.0000
8.0200 680.0000 1.0000
8.0400 658.0000 1.0000
8.0600 651.0000 1.0000
8.0800 640.0000 1.0000
8.1000 655.0000 1.0000
8.1200 670.0000 1.0000
8.1400 659.0000 1.0000
8.1600 685.0000 1.0000
8.1800 719.0000 1.0000
8.2000 656.0000 1.0000
8.2200 630.0000 1.0000
8.2400 660.0000 1.0000
8.2600 692.0000 1.0000
8.2800 706.0000 1.0000
8.3000 693.0000 1.0000
8.3200 716.0000 1.0000
8.3400 735.0000 1.0000
8.3600 713.0000 1.0000
8.3800 698.0000 1.0000
8.4000 681.0000 1.0000
8.4200 710.0000 1.0000
8.4400 722.0000 1.0000
8.4600 758.0000 1.0000
8.4800 806.0000 1.0000
8.5000 798.0000 1.0000
8.5200 805.0000 1.0000
8.5400 816.0000 1.0000
8.5600 803.0000 1.0000
8.5800 886.0000 1.0000
8.6000 930.0000 1.0000
8.6200 887.0000 1.0000
8.6400 917.0000 1.0000
8.6600 980.0000 1.0000
8.6800 1055.0000 1.0000
8.7000 1024.0000 1.0000
8.7200 1020.0000 1.0000
8.7400 1054.0000 1.0000
8.7600 1017.0000 1.0000
8.7800 958.0000 1.0000
8.8000 896.0000 1.0000
8.8200 720.0000 1.0000
8.8400 647.0000 1.0000
8.8600 607.0000 1.0000
8.8800 585.0000 1.0000
8.9000 525.0000 1.0000
8.9200 511.0000 1.0000
8.9400 562.0000 1.0000
8.9600 532.0000 1.0000
8.9800 520.0000 1.0000
9.0000 478.0000 1.0000
9.0200 489.0000 1.0000
9.0400 519.0000 1.0000
9.0600 479.0000 1.0000
9.0800 488.0000 1.0000
9.1000 563.0000 1.0000
9.1200 498.0000 1.0000
9.1400 577.0000 1.0000
9.1600 586.0000 1.0000
9.1800 611.0000 1.0000
9.2000 615.0000 1.0000
9.2200 586.0000 1.0000
9.2400 544.0000 1.0000
9.2600 505.0000 1.0000
9.2800 497.0000 1.0000
9.3000 446.0000 1.0000
9.3200 449.0000 1.0000
9.3400 366.0000 1.0000
9.3600 373.0000 1.0000
9.3800 361.0000 1.0000
9.4000 402.0000 1.0000
9.4200 331.0000 1.0000
9.4400 303.0000 1.0000
9.4600 340.0000 1.0000
9.4800 363.0000 1.0000
9.5000 390.0000 1.0000
9.5200 367.0000 1.0000
9.5400 382.0000 1.0000
9.5600 377.0000 1.0000
9.5800 367.0000 1.0000
9.6000 347.0000 1.0000
9.6200 338.0000 1.0000
9.6400 328.0000 1.0000
9.6600 335.0000 1.0000
9.6800 324.0000 1.0000
9.7000 329.0000 1.0000
9.7200 313.0000 1.0000
9.7400 311.0000 1.0000
9.7600 299.0000 1.0000
9.7800 296.0000 1.0000
9.8000 301.0000 1.0000
9.8200 305.0000 1.0000
9.8400 270.0000 1.0000
9.8600 273.0000 1.0000
9.8800 240.0000 1.0000
9.9000 270.0000 1.0000
9.9200 262.0000 1.0000
9.9400 263.0000 1.0000
9.9600 235.0000 1.0000
9.9800 249.0000 1.0000
10.0000 260.0000 1.0000
10.0200 250.0000 1.0000
10.0400 233.0000 1.0000
10.0600 260.0000 1.0000
10.0800 260.0000 1.0000
10.1000 266.0000 1.0000
10.1200 321.0000 1.0000
10.1400 278.0000 1.0000
10.1600 256.0000 1.0000
10.1800 285.0000 1.0000
10.2000 269.0000 1.0000
10.2200 236.0000 1.0000
10.2400 261.0000 1.0000
10.2600 237.0000 1.0000
10.2800 255.0000 1.0000
10.3000 267.0000 1.0000
10.3200 248.0000 1.0000
10.3400 273.0000 1.0000
10.3600 233.0000 1.0000
10.3800 245.0000 1.0000
10.4000 268.0000 1.0000
10.4200 269.0000 1.0000
10.4400 256.0000 1.0000
10.4600 250.0000 1.0000
10.4800 244.0000 1.0000
10.5000 294.0000 1.0000
10.5200 222.0000 1.0000
10.5400 277.0000 1.0000
10.5600 253.0000 1.0000
10.5800 256.0000 1.0000
10.6000 272.0000 1.0000
10.6200 195.0000 1.0000
10.6400 248.0000 1.0000
10.6600 235.0000 1.0000
10.6800 224.0000 1.0000
10.7000 227.0000 1.0000
10.7200 211.0000 1.0000
10.7400 232.0000 1.0000
10.7600 252.0000 1.0000
10.7800 258.0000 1.0000
10.8000 220.0000 1.0000
10.8200 213.0000 1.0000
10.8400 233.0000 1.0000
10.8600 246.0000 1.0000
10.8800 235.0000 1.0000
10.9000 250.0000 1.0000
10.9200 243.0000 1.0000
10.9400 232.0000 1.0000
10.9600 210.0000 1.0000
10.9800 257.0000 1.0000
11.0000 246.0000 1.0000
11.0200 236.0000 1.0000
11.0400 234.0000 1.0000
11.0600 257.0000 1.0000
11.0800 240.0000 1.0000
11.1000 204.0000 1.0000
11.1200 229.0000 1.0000
11.1400 245.0000 1.0000
11.1600 213.0000 1.0000
11.1800 227.0000 1.0000
11.2000 227.0000 1.0000
11.2200 217.0000 1.0000
11.2400 216.0000 1.0000
11.2600 209.0000 1.0000
11.2800 224.0000 1.0000
11.3000 271.0000 1.0000
11.3200 236.0000 1.0000
11.3400 232.0000 1.0000
11.3600 179.0000 1.0000
11.3800 179.0000 1.0000
11.4000 218.0000 1.0000
11.4200 239.0000 1.0000
11.4400 237.0000 1.0000
11.4600 207.0000 1.0000
11.4800 220.0000 1.0000
11.5000 184.0000 1.0000
11.5200 203.0000 1.0000
11.5400 243.0000 1.0000
11.5600 236.0000 1.0000
11.5800 220.0000 1.0000
11.6000 172.0000 1.0000
11.6200 216.0000 1.0000
11.6400 201.0000 1.0000
11.6600 207.0000 1.0000
11.6800 218.0000 1.0000
11.7000 222.0000 1.0000
11.7200 222.0000 1.0000
11.7400 213.0000 1.0000
11.7600 207.0000 1.0000
11.7800 217.0000 1.0000
11.8000 231.0000 1.0000
11.8200 233.0000 1.0000
11.8400 205.0000 1.0000
11.8600 216.0000 1.0000
11.8800 258.0000 1.0000
11.9000 231.0000 1.0000
11.9200 229.0000 1.0000
11.9400 240.0000 1.0000
11.9600 238.0000 1.0000
11.9800 233.0000 1.0000
12.0000 235.0000 1.0000
12.0200 212.0000 1.0000
12.0400 259.0000 1.0000
12.0600 231.0000 1.0000
12.0800 257.0000 1.0000
12.1000 260.0000 1.0000
12.1200 293.0000 1.0000
12.1400 273.0000 1.0000
12.1600 300.0000 1.0000
12.1800 275.0000 1.0000
12.2000 287.0000 1.0000
12.2200 292.0000 1.0000
12.2400 261.0000 1.0000
12.2600 296.0000 1.0000
12.2800 334.0000 1.0000
12.3000 345.0000 1.0000
12.3200 345.0000 1.0000
12.3400 341.0000 1.0000
12.3600 356.0000 1.0000
12.3800 334.0000 1.0000
12.4000 323.0000 1.0000
12.4200 306.0000 1.0000
12.4400 326.0000 1.0000
12.4600 270.0000 1.0000
12.4800 271.0000 1.0000
12.5000 256.0000 1.0000
12.5200 252.0000 1.0000
12.5400 224.0000 1.0000
12.5600 219.0000 1.0000
12.5800 213.0000 1.0000
12.6000 214.0000 1.0000
12.6200 196.0000 1.0000
12.6400 225.0000 1.0000
12.6600 232.0000 1.0000
12.6800 224.0000 1.0000
12.7000 218.0000 1.0000
12.7200 225.0000 1.0000
12.7400 233.0000 1.0000
12.7600 276.0000 1.0000
12.7800 275.0000 1.0000
12.8000 272.0000 1.0000
12.8200 260.0000 1.0000
12.8400 223.0000 1.0000
12.8600 212.0000 1.0000
12.8800 245.0000 1.0000
12.9000 222.0000 1.0000
12.9200 214.0000 1.0000
12.9400 188.0000 1.0000
12.9600 165.0000 1.0000
12.9800 166.0000 1.0000
13.0000 170.0000 1.0000
13.0200 170.0000 1.0000
13.0400 162.0000 1.0000
13.0600 148.0000 1.0000
13.0800 166.0000 1.0000
13.1000 194.0000 1.0000
13.1200 191.0000 1.0000
13.1400 196.0000 1.0000
13.1600 188.0000 1.0000
13.1800 180.0000 1.0000
13.2000 179.0000 1.0000
13.2200 163.0000 1.0000
13.2400 181.0000 1.0000
13.2600 195.0000 1.0000
13.2800 170.0000 1.0000
13.3000 177.0000 1.0000
13.3200 191.0000 1.0000
13.3400 185.0000 1.0000
13.3600 206.0000 1.0000
13.3800 161.0000 1.0000
13.4000 182.0000 1.0000
13.4200 223.0000 1.0000
13.4400 213.0000 1.0000
13.4600 211.0000 1.0000
13.4800 222.0000 1.0000
13.5000 208.0000 1.0000
13.5200 220.0000 1.0000
13.5400 245.0000 1.0000
13.5600 236.0000 1.0000
13.5800 231.0000 1.0000
13.6000 239.0000 1.0000
13.6200 223.0000 1.0000
13.6400 228.0000 1.0000
13.6600 241.0000 1.0000
13.6800 263.0000 1.0000
13.7000 279.0000 1.0000
13.7200 269.0000 1.0000
13.7400 293.0000 1.0000
13.7600 311.0000 1.0000
13.7800 297.0000 1.0000
13.8000 264.0000 1.0000
13.8200 244.0000 1.0000
13.8400 222.0000 1.0000
13.8600 213.0000 1.0000
13.8800 206.0000 1.0000
13.9000 202.0000 1.0000
13.9200 194.0000 1.0000
13.9400 173.0000 1.0000
13.9600 158.0000 1.0000
13.9800 141.0000 1.0000
14.0000 150.0000 1.0000
14.0200 137.0000 1.0000
14.0400 144.0000 1.0000
14.0600 164.0000 1.0000
14.0800 160.0000 1.0000
14.1000 154.0000 1.0000
14.1200 163.0000 1.0000
14.1400 164.0000 1.0000
14.1600 168.0000 1.0000
14.1800 169.0000 1.0000
14.2000 173.0000 1.0000
14.2200 171.0000 1.0000
14.2400 170.0000 1.0000
14.2600 163.0000 1.0000
14.2800 155.0000 1.0000
14.3000 161.0000 1.0000
14.3200 144.0000 1.0000
14.3400 141.0000 1.0000
14.3600 155.0000 1.0000
14.3800 148.0000 1.0000
14.4000 136.0000 1.0000
14.4200 162.0000 1.0000
14.4400 158.0000 1.0000
14.4600 131.0000 1.0000
14.4800 141.0000 1.0000
14.5000 142.0000 1.0000
14.5200 146.0000 1.0000
14.5400 152.0000 1.0000
14.5600 145.0000 1.0000
14.5800 141.0000 1.0000
14.6000 133.0000 1.0000
14.6200 134.0000 1.0000
14.6400 130.0000 1.0000
14.6600 132.0000 1.0000
14.6800 162.0000 1.0000
14.7000 166.0000 1.0000
14.7200 151.0000 1.0000
14.7400 151.0000 1.0000
14.7600 159.0000 1.0000
14.7800 167.0000 1.0000
14.8000 181.0000 1.0000
14.8200 195.0000 1.0000
14.8400 182.0000 1.0000
14.8600 181.0000 1.0000
14.8800 184.0000 1.0000
14.9000 173.0000 1.0000
14.9200 169.0000 1.0000
14.9400 172.0000 1.0000
14.9600 166.0000 1.0000
14.9800 172.0000 1.0000
15.0000 168.0000 1.0000
15.0200 170.0000 1.0000
15.0400 164.0000 1.0000
15.0600 154.0000 1.0000
15.0800 150.0000 1.0000
15.1000 139.0000 1.0000
15.1200 142.0000 1.0000
15.1400 151.0000 1.0000
15.1600 138.0000 1.0000
15.1800 138.0000 1.0000
15.2000 135.0000 1.0000
15.2200 125.0000 1.0000
15.2400 128.0000 1.0000
15.2600 119.0000 1.0000
15.2800 126.0000 1.0000
15.3000 128.0000 1.0000
15.3200 120.0000 1.0000
15.3400 126.0000 1.0000
15.3600 118.0000 1.0000
15.3800 122.0000 1.0000
15.4000 139.0000 1.0000
15.4200 140.0000 1.0000
15.4400 146.0000 1.0000
15.4600 137.0000 1.0000
15.4800 122.0000 1.0000
15.5000 133.0000 1.0000
15.5200 151.0000 1.0000
15.5400 147.0000 1.0000
15.5600 141.0000 1.0000
15.5800 151.0000 1.0000
15.6000 155.0000 1.0000
15.6200 149.0000 1.0000
15.6400 142.0000 1.0000
15.6600 145.0000 1.0000
15.6800 141.0000 1.0000
15.7000 150.0000 1.0000
15.7200 163.0000 1.0000
15.7400 150.0000 1.0000
15.7600 141.0000 1.0000
15.7800 145.0000 1.0000
15.8000 145.0000 1.0000
15.8200 149.0000 1.0000
15.8400 150.0000 1.0000
15.8600 130.0000 1.0000
15.8800 126.0000 1.0000
15.9000 131.0000 1.0000
15.9200 124.0000 1.0000
15.9400 120.0000 1.0000
15.9600 124.0000 1.0000
15.9800 110.0000 1.0000
16.0000 121.0000 1.0000
16.0200 148.0000 1.0000
16.0400 148.0000 1.0000
16.0600 132.0000 1.0000
16.0800 130.0000 1.0000
16.1000 137.0000 1.0000
16.1200 128.0000 1.0000
16.1400 135.0000 1.0000
16.1600 144.0000 1.0000
16.1800 138.0000 1.0000
16.2000 120.0000 1.0000
16.2200 137.0000 1.0000
16.2400 141.0000 1.0000
16.2600 136.0000 1.0000
16.2800 128.0000 1.0000
16.3000 125.0000 1.0000
16.3200 132.0000 1.0000
16.3400 140.0000 1.0000
16.3600 143.0000 1.0000
16.3800 132.0000 1.0000
16.4000 126.0000 1.0000
16.4200 124.0000 1.0000
16.4400 133.0000 1.0000
16.4600 135.0000 1.0000
16.4800 134.0000 1.0000
16.5000 142.0000 1.0000
16.5200 147.0000 1.0000
16.5400 142.0000 1.0000
16.5600 131.0000 1.0000
16.5800 131.0000 1.0000
16.6000 131.0000 1.0000
16.6200 129.0000 1.0000
16.6400 131.0000 1.0000
16.6600 163.0000 1.0000
16.6800 152.0000 1.0000
16.7000 132.0000 1.0000
16.7200 139.0000 1.0000
16.7400 142.0000 1.0000
16.7600 139.0000 1.0000
16.7800 121.0000 1.0000
16.8000 135.0000 1.0000
16.8200 134.0000 1.0000
16.8400 122.0000 1.0000
16.8600 129.0000 1.0000
16.8800 142.0000 1.0000
16.9000 156.0000 1.0000
16.9200 151.0000 1.0000
16.9400 139.0000 1.0000
16.9600 141.0000 1.0000
16.9800 130.0000 1.0000
17.0000 133.0000 1.0000
17.0200 144.0000 1.0000
17.0400 133.0000 1.0000
17.0600 131.0000 1.0000
17.0800 145.0000 1.0000
17.1000 155.0000 1.0000
17.1200 140.0000 1.0000
17.1400 140.0000 1.0000
17.1600 139.0000 1.0000
17.1800 140.0000 1.0000
17.2000 141.0000 1.0000
17.2200 145.0000 1.0000
17.2400 163.0000 1.0000
17.2600 149.0000 1.0000
17.2800 159.0000 1.0000
17.3000 157.0000 1.0000
17.3200 161.0000 1.0000
17.3400 172.0000 1.0000
17.3600 180.0000 1.0000
17.3800 173.0000 1.0000
17.4000 177.0000 1.0000
17.4200 182.0000 1.0000
17.4400 163.0000 1.0000
17.4600 184.0000 1.0000
17.4800 192.0000 1.0000
17.5000 196.0000 1.0000
17.5200 194.0000 1.0000
17.5400 199.0000 1.0000
17.5600 190.0000 1.0000
17.5800 215.0000 1.0000
17.6000 203.0000 1.0000
17.6200 240.0000 1.0000
17.6400 229.0000 1.0000
17.6600 208.0000 1.0000
17.6800 229.0000 1.0000
17.7000 211.0000 1.0000
17.7200 204.0000 1.0000
17.7400 200.0000 1.0000
17.7600 184.0000 1.0000
17.7800 194.0000 1.0000
17.8000 176.0000 1.0000
17.8200 165.0000 1.0000
17.8400 162.0000 1.0000
17.8600 163.0000 1.0000
17.8800 150.0000 1.0000
17.9000 158.0000 1.0000
17.9200 155.0000 1.0000
17.9400 165.0000 1.0000
17.9600 153.0000 1.0000
17.9800 142.0000 1.0000
18.0000 154.0000 1.0000
18.0200 157.0000 1.0000
18.0400 150.0000 1.0000
18.0600 140.0000 1.0000
18.0800 130.0000 1.0000
18.1000 154.0000 1.0000
18.1200 152.0000 1.0000
18.1400 140.0000 1.0000
18.1600 133.0000 1.0000
18.1800 137.0000 1.0000
18.2000 150.0000 1.0000
18.2200 138.0000 1.0000
18.2400 137.0000 1.0000
18.2600 143.0000 1.0000
18.2800 156.0000 1.0000
18.3000 149.0000 1.0000
18.3200 152.0000 1.0000
18.3400 140.0000 1.0000
18.3600 147.0000 1.0000
18.3800 164.0000 1.0000
18.4000 155.0000 1.0000
18.4200 148.0000 1.0000
18.4400 147.0000 1.0000
18.4600 146.0000 1.0000
18.4800 146.0000 1.0000
18.5000 154.0000 1.0000
18.5200 158.0000 1.0000
18.5400 156.0000 1.0000
18.5600 153.0000 1.0000
18.5800 172.0000 1.0000
18.6000 162.0000 1.0000
18.6200 172.0000 1.0000
18.6400 169.0000 1.0000
18.6600 191.0000 1.0000
18.6800 184.0000 1.0000
18.7000 184.0000 1.0000
18.7200 175.0000 1.0000
18.7400 191.0000 1.0000
18.7600 183.0000 1.0000
18.7800 189.0000 1.0000
18.8000 181.0000 1.0000
18.8200 186.0000 1.0000
18.8400 205.0000 1.0000
18.8600 203.0000 1.0000
18.8800 158.0000 1.0000
18.9000 185.0000 1.0000
18.9200 188.0000 1.0000
18.9400 176.0000 1.0000
18.9600 157.0000 1.0000
18.9800 183.0000 1.0000
19.0000 164.0000 1.0000
19.0200 196.0000 1.0000
19.0400 191.0000 1.0000
19.0600 199.0000 1.0000
19.0800 189.0000 1.0000
19.1000 220.0000 1.0000
19.1200 212.0000 1.0000
19.1400 224.0000 1.0000
19.1600 209.0000 1.0000
19.1800 237.0000 1.0000
19.2000 209.0000 1.0000
19.2200 252.0000 1.0000
19.2400 233.0000 1.0000
19.2600 246.0000 1.0000
19.2800 246.0000 1.0000
19.3000 254.0000 1.0000
19.3200 258.0000 1.0000
19.3400 282.0000 1.0000
19.3600 266.0000 1.0000
19.3800 280.0000 1.0000
19.4000 287.0000 1.0000
19.4200 293.0000 1.0000
19.4400 315.0000 1.0000
19.4600 342.0000 1.0000
19.4800 380.0000 1.0000
19.5000 374.0000 1.0000
19.5200 437.0000 1.0000
19.5400 437.0000 1.0000
19.5600 472.0000 1.0000
19.5800 539.0000 1.0000
19.6000 531.0000 1.0000
19.6200 535.0000 1.0000
19.6400 547.0000 1.0000
19.6600 545.0000 1.0000
19.6800 592.0000 1.0000
19.7000 545.0000 1.0000
19.7200 568.0000 1.0000
19.7400 492.0000 1.0000
19.7600 495.0000 1.0000
19.7800 503.0000 1.0000
19.8000 505.0000 1.0000
19.8200 445.0000 1.0000
19.8400 419.0000 1.0000
19.8600 411.0000 1.0000
19.8800 411.0000 1.0000
19.9000 398.0000 1.0000
19.9200 375.0000 1.0000
19.9400 389.0000 1.0000
19.9600 359.0000 1.0000
19.9800 341.0000 1.0000
20.0000 313.0000 1.0000
20.0200 299.0000 1.0000
20.0400 309.0000 1.0000
20.0600 326.0000 1.0000
20.0800 307.0000 1.0000
20.1000 300.0000 1.0000
20.1200 277.0000 1.0000
20.1400 298.0000 1.0000
20.1600 267.0000 1.0000
20.1800 286.0000 1.0000
20.2000 313.0000 1.0000
20.2200 292.0000 1.0000
20.2400 277.0000 1.0000
20.2600 289.0000 1.0000
20.2800 304.0000 1.0000
20.3000 263.0000 1.0000
20.3200 314.0000 1.0000
20.3400 321.0000 1.0000
20.3600 298.0000 1.0000
20.3800 329.0000 1.0000
20.4000 346.0000 1.0000
20.4200 340.0000 1.0000
20.4400 355.0000 1.0000
20.4600 364.0000 1.0000
20.4800 376.0000 1.0000
20.5000 412.0000 1.0000
20.5200 408.0000 1.0000
20.5400 431.0000 1.0000
20.5600 508.0000 1.0000
20.5800 528.0000 1.0000
20.6000 601.0000 1.0000
20.6200 704.0000 1.0000
20.6400 781.0000 1.0000
20.6600 877.0000 1.0000
20.6800 1070.0000 1.0000
20.7000 1269.0000 1.0000
20.7200 1404.0000 1.0000
20.7400 1565.0000 1.0000
20.7600 1546.0000 1.0000
20.7800 1495.0000 1.0000
20.8000 1278.0000 1.0000
20.8200 1175.0000 1.0000
20.8400 876.0000 1.0000
20.8600 719.0000 1.0000
20.8800 558.0000 1.0000
20.9000 484.0000 1.0000
20.9200 429.0000 1.0000
20.9400 374.0000 1.0000
20.9600 379.0000 1.0000
20.9800 318.0000 1.0000
21.0000 362.0000 1.0000
21.0200 354.0000 1.0000
21.0400 285.0000 1.0000
21.0600 345.0000 1.0000
21.0800 316.0000 1.0000
21.1000 285.0000 1.0000
21.1200 305.0000 1.0000
21.1400 298.0000 1.0000
21.1600 320.0000 1.0000
21.1800 296.0000 1.0000
21.2000 312.0000 1.0000
21.2200 303.0000 1.0000
21.2400 314.0000 1.0000
21.2600 289.0000 1.0000
21.2800 316.0000 1.0000
21.3000 295.0000 1.0000
21.3200 273.0000 1.0000
21.3400 279.0000 1.0000
21.3600 271.0000 1.0000
21.3800 256.0000 1.0000
21.4000 290.0000 1.0000
21.4200 243.0000 1.0000
21.4400 238.0000 1.0000
21.4600 211.0000 1.0000
21.4800 235.0000 1.0000
21.5000 246.0000 1.0000
21.5200 221.0000 1.0000
21.5400 242.0000 1.0000
21.5600 245.0000 1.0000
21.5800 249.0000 1.0000
21.6000 230.0000 1.0000
21.6200 282.0000 1.0000
21.6400 255.0000 1.0000
21.6600 284.0000 1.0000
21.6800 273.0000 1.0000
21.7000 307.0000 1.0000
21.7200 326.0000 1.0000
21.7400 365.0000 1.0000
21.7600 407.0000 1.0000
21.7800 435.0000 1.0000
21.8000 462.0000 1.0000
21.8200 576.0000 1.0000
21.8400 579.0000 1.0000
21.8600 658.0000 1.0000
21.8800 709.0000 1.0000
21.9000 681.0000 1.0000
21.9200 747.0000 1.0000
21.9400 674.0000 1.0000
21.9600 629.0000 1.0000
21.9800 542.0000 1.0000
22.0000 529.0000 1.0000
22.0200 415.0000 1.0000
22.0400 376.0000 1.0000
22.0600 308.0000 1.0000
22.0800 260.0000 1.0000
22.1000 241.0000 1.0000
22.1200 244.0000 1.0000
22.1400 234.0000 1.0000
22.1600 231.0000 1.0000
22.1800 242.0000 1.0000
22.2000 230.0000 1.0000
22.2200 230.0000 1.0000
22.2400 246.0000 1.0000
22.2600 239.0000 1.0000
22.2800 230.0000 1.0000
22.3000 244.0000 1.0000
22.3200 234.0000 1.0000
22.3400 236.0000 1.0000
22.3600 267.0000 1.0000
22.3800 229.0000 1.0000
22.4000 234.0000 1.0000
22.4200 231.0000 1.0000
22.4400 225.0000 1.0000
22.4600 234.0000 1.0000
22.4800 250.0000 1.0000
22.5000 249.0000 1.0000
22.5200 237.0000 1.0000
22.5400 268.0000 1.0000
22.5600 253.0000 1.0000
22.5800 279.0000 1.0000
22.6000 251.0000 1.0000
22.6200 231.0000 1.0000
22.6400 230.0000 1.0000
22.6600 231.0000 1.0000
22.6800 244.0000 1.0000
22.7000 263.0000 1.0000
22.7200 289.0000 1.0000
22.7400 287.0000 1.0000
22.7600 290.0000 1.0000
22.7800 294.0000 1.0000
22.8000 291.0000 1.0000
22.8200 293.0000 1.0000
22.8400 327.0000 1.0000
22.8600 315.0000 1.0000
22.8800 311.0000 1.0000
22.9000 344.0000 1.0000
22.9200 331.0000 1.0000
22.9400 339.0000 1.0000
22.9600 330.0000 1.0000
22.9800 330.0000 1.0000
23.0000 313.0000 1.0000
23.0200 286.0000 1.0000
23.0400 274.0000 1.0000
23.0600 263.0000 1.0000
23.0800 257.0000 1.0000
23.1000 253.0000 1.0000
23.1200 270.0000 1.0000
23.1400 255.0000 1.0000
23.1600 252.0000 1.0000
23.1800 277.0000 1.0000
23.2000 277.0000 1.0000
23.2200 288.0000 1.0000
23.2400 253.0000 1.0000
23.2600 281.0000 1.0000
23.2800 302.0000 1.0000
23.3000 340.0000 1.0000
23.3200 353.0000 1.0000
23.3400 357.0000 1.0000
23.3600 409.0000 1.0000
23.3800 463.0000 1.0000
23.4000 512.0000 1.0000
23.4200 562.0000 1.0000
23.4400 586.0000 1.0000
23.4600 578.0000 1.0000
23.4800 554.0000 1.0000
23.5000 606.0000 1.0000
23.5200 553.0000 1.0000
23.5400 490.0000 1.0000
23.5600 460.0000 1.0000
23.5800 432.0000 1.0000
23.6000 414.0000 1.0000
23.6200 386.0000 1.0000
23.6400 386.0000 1.0000
23.6600 358.0000 1.0000
23.6800 334.0000 1.0000
23.7000 296.0000 1.0000
23.7200 294.0000 1.0000
23.7400 289.0000 1.0000
23.7600 298.0000 1.0000
23.7800 280.0000 1.0000
23.8000 305.0000 1.0000
23.8200 282.0000 1.0000
23.8400 290.0000 1.0000
23.8600 307.0000 1.0000
23.8800 323.0000 1.0000
23.9000 332.0000 1.0000
23.9200 332.0000 1.0000
23.9400 357.0000 1.0000
23.9600 383.0000 1.0000
23.9800 390.0000 1.0000
24.0000 415.0000 1.0000
24.0200 438.0000 1.0000
24.0400 471.0000 1.0000
24.0600 512.0000 1.0000
24.0800 564.0000 1.0000
24.1000 569.0000 1.0000
24.1200 588.0000 1.0000
24.1400 612.0000 1.0000
24.1600 597.0000 1.0000
24.1800 604.0000 1.0000
24.2000 562.0000 1.0000
24.2200 545.0000 1.0000
24.2400 525.0000 1.0000
24.2600 453.0000 1.0000
24.2800 417.0000 1.0000
24.3000 417.0000 1.0000
24.3200 383.0000 1.0000
24.3400 378.0000 1.0000
24.3600 366.0000 1.0000
24.3800 360.0000 1.0000
24.4000 332.0000 1.0000
24.4200 308.0000 1.0000
24.4400 327.0000 1.0000
24.4600 318.0000 1.0000
24.4800 287.0000 1.0000
24.5000 299.0000 1.0000
24.5200 285.0000 1.0000
24.5400 255.0000 1.0000
24.5600 277.0000 1.0000
24.5800 266.0000 1.0000
24.6000 234.0000 1.0000
24.6200 243.0000 1.0000
24.6400 239.0000 1.0000
24.6600 256.0000 1.0000
24.6800 251.0000 1.0000
24.7000 257.0000 1.0000
24.7200 247.0000 1.0000
24.7400 239.0000 1.0000
24.7600 259.0000 1.0000
24.7800 279.0000 1.0000
24.8000 274.0000 1.0000
24.8200 270.0000 1.0000
24.8400 251.0000 1.0000
24.8600 276.0000 1.0000
24.8800 273.0000 1.0000
24.9000 276.0000 1.0000
24.9200 295.0000 1.0000
24.9400 305.0000 1.0000
24.9600 293.0000 1.0000
24.9800 316.0000 1.0000
25.0000 313.0000 1.0000
25.0200 337.0000 1.0000
25.0400 363.0000 1.0000
25.0600 354.0000 1.0000
25.0800 342.0000 1.0000
25.1000 371.0000 1.0000
25.1200 386.0000 1.0000
25.1400 407.0000 1.0000
25.1600 393.0000 1.0000
25.1800 451.0000 1.0000
25.2000 475.0000 1.0000
25.2200 509.0000 1.0000
25.2400 530.0000 1.0000
25.2600 544.0000 1.0000
25.2800 589.0000 1.0000
25.3000 634.0000 1.0000
25.3200 704.0000 1.0000
25.3400 748.0000 1.0000
25.3600 823.0000 1.0000
25.3800 953.0000 1.0000
25.4000 1079.0000 1.0000
25.4200 1195.0000 1.0000
25.4400 1313.0000 1.0000
25.4600 1439.0000 1.0000
25.4800 1455.0000 1.0000
25.5000 1365.0000 1.0000
25.5200 1238.0000 1.0000
25.5400 1071.0000 1.0000
25.5600 879.0000 1.0000
25.5800 747.0000 1.0000
25.6000 627.0000 1.0000
25.6200 545.0000 1.0000
25.6400 489.0000 1.0000
25.6600 413.0000 1.0000
25.6800 387.0000 1.0000
25.7000 372.0000 1.0000
25.7200 328.0000 1.0000
25.7400 330.0000 1.0000
25.7600 339.0000 1.0000
25.7800 319.0000 1.0000
25.8000 314.0000 1.0000
25.8200 307.0000 1.0000
25.8400 313.0000 1.0000
25.8600 308.0000 1.0000
25.8800 302.0000 1.0000
25.9000 318.0000 1.0000
25.9200 337.0000 1.0000
25.9400 338.0000 1.0000
25.9600 336.0000 1.0000
25.9800 353.0000 1.0000
26.0000 377.0000 1.0000
26.0200 379.0000 1.0000
26.0400 397.0000 1.0000
26.0600 413.0000 1.0000
26.0800 410.0000 1.0000
26.1000 451.0000 1.0000
26.1200 461.0000 1.0000
26.1400 486.0000 1.0000
26.1600 546.0000 1.0000
26.1800 582.0000 1.0000
26.2000 613.0000 1.0000
26.2200 670.0000 1.0000
26.2400 718.0000 1.0000
26.2600 808.0000 1.0000
26.2800 893.0000 1.0000
26.3000 1015.0000 1.0000
26.3200 1198.0000 1.0000
26.3400 1392.0000 1.0000
26.3600 1626.0000 1.0000
26.3800 1959.0000 1.0000
26.4000 2378.0000 1.0000
26.4200 3001.0000 1.0000
26.4400 3714.0000 1.0000
26.4600 4472.0000 1.0000
26.4800 5397.0000 1.0000
26.5000 6308.0000 1.0000
26.5200 6751.0000 1.0000
26.5400 6939.0000 1.0000
26.5600 6712.0000 1.0000
26.5800 6013.0000 1.0000
26.6000 4992.0000 1.0000
26.6200 3911.0000 1.0000
26.6400 2995.0000 1.0000
26.6600 2229.0000 1.0000
26.6800 1662.0000 1.0000
26.7000 1237.0000 1.0000
26.7200 1020.0000 1.0000
26.7400 919.0000 1.0000
26.7600 819.0000 1.0000
26.7800 750.0000 1.0000
26.8000 735.0000 1.0000
26.8200 715.0000 1.0000
26.8400 648.0000 1.0000
26.8600 580.0000 1.0000
26.8800 563.0000 1.0000
26.9000 569.0000 1.0000
26.9200 576.0000 1.0000
26.9400 601.0000 1.0000
26.9600 552.0000 1.0000
26.9800 528.0000 1.0000
27.0000 546.0000 1.0000
27.0200 515.0000 1.0000
27.0400 499.0000 1.0000
27.0600 508.0000 1.0000
27.0800 475.0000 1.0000
27.1000 444.0000 1.0000
27.1200 436.0000 1.0000
27.1400 423.0000 1.0000
27.1600 434.0000 1.0000
27.1800 449.0000 1.0000
27.2000 434.0000 1.0000
27.2200 449.0000 1.0000
27.2400 467.0000 1.0000
27.2600 478.0000 1.0000
27.2800 496.0000 1.0000
27.3000 509.0000 1.0000
27.3200 551.0000 1.0000
27.3400 573.0000 1.0000
27.3600 618.0000 1.0000
27.3800 667.0000 1.0000
27.4000 661.0000 1.0000
27.4200 693.0000 1.0000
27.4400 715.0000 1.0000
27.4600 699.0000 1.0000
27.4800 711.0000 1.0000
27.5000 751.0000 1.0000
27.5200 764.0000 1.0000
27.5400 785.0000 1.0000
27.5600 818.0000 1.0000
27.5800 856.0000 1.0000
27.6000 931.0000 1.0000
27.6200 978.0000 1.0000
27.6400 1054.0000 1.0000
27.6600 1112.0000 1.0000
27.6800 1170.0000 1.0000
27.7000 1229.0000 1.0000
27.7200 1217.0000 1.0000
27.7400 1267.0000 1.0000
27.7600 1375.0000 1.0000
27.7800 1459.0000 1.0000
27.8000 1516.0000 1.0000
27.8200 1560.0000 1.0000
27.8400 1554.0000 1.0000
27.8600 1488.0000 1.0000
27.8800 1402.0000 1.0000
27.9000 1341.0000 1.0000
27.9200 1237.0000 1.0000
27.9400 1060.0000 1.0000
27.9600 926.0000 1.0000
27.9800 813.0000 1.0000
28.0000 736.0000 1.0000
28.0200 685.0000 1.0000
28.0400 624.0000 1.0000
28.0600 573.0000 1.0000
28.0800 576.0000 1.0000
28.1000 621.0000 1.0000
28.1200 589.0000 1.0000
28.1400 542.0000 1.0000
28.1600 531.0000 1.0000
28.1800 518.0000 1.0000
28.2000 489.0000 1.0000
28.2200 449.0000 1.0000
28.2400 422.0000 1.0000
28.2600 379.0000 1.0000
28.2800 338.0000 1.0000
28.3000 345.0000 1.0000
28.3200 336.0000 1.0000
28.3400 316.0000 1.0000
28.3600 323.0000 1.0000
28.3800 320.0000 1.0000
28.4000 293.0000 1.0000
28.4200 263.0000 1.0000
28.4400 243.0000 1.0000
28.4600 245.0000 1.0000
28.4800 250.0000 1.0000
28.5000 235.0000 1.0000
28.5200 231.0000 1.0000
28.5400 215.0000 1.0000
28.5600 202.0000 1.0000
28.5800 211.0000 1.0000
28.6000 238.0000 1.0000
28.6200 246.0000 1.0000
28.6400 219.0000 1.0000
28.6600 209.0000 1.0000
28.6800 220.0000 1.0000
28.7000 215.0000 1.0000
28.7200 223.0000 1.0000
28.7400 224.0000 1.0000
28.7600 216.0000 1.0000
28.7800 225.0000 1.0000
28.8000 234.0000 1.0000
28.8200 246.0000 1.0000
28.8400 237.0000 1.0000
28.8600 235.0000 1.0000
28.8800 241.0000 1.0000
28.9000 256.0000 1.0000
28.9200 259.0000 1.0000
28.9400 258.0000 1.0000
28.9600 250.0000 1.0000
28.9800 260.0000 1.0000
29.0000 260.0000 1.0000
29.0200 258.0000 1.0000
29.0400 263.0000 1.0000
29.0600 279.0000 1.0000
29.0800 300.0000 1.0000
29.1000 292.0000 1.0000
29.1200 288.0000 1.0000
29.1400 323.0000 1.0000
29.1600 385.0000 1.0000
29.1800 412.0000 1.0000
29.2000 456.0000 1.0000
29.2200 491.0000 1.0000
29.2400 542.0000 1.0000
29.2600 582.0000 1.0000
29.2800 596.0000 1.0000
29.3000 615.0000 1.0000
29.3200 604.0000 1.0000
29.3400 580.0000 1.0000
29.3600 551.0000 1.0000
29.3800 516.0000 1.0000
29.4000 479.0000 1.0000
29.4200 437.0000 1.0000
29.4400 421.0000 1.0000
29.4600 398.0000 1.0000
29.4800 392.0000 1.0000
29.5000 378.0000 1.0000
29.5200 371.0000 1.0000
29.5400 379.0000 1.0000
29.5600 396.0000 1.0000
29.5800 418.0000 1.0000
29.6000 421.0000 1.0000
29.6200 427.0000 1.0000
29.6400 453.0000 1.0000
29.6600 461.0000 1.0000
29.6800 474.0000 1.0000
29.7000 507.0000 1.0000
29.7200 506.0000 1.0000
29.7400 469.0000 1.0000
29.7600 448.0000 1.0000
29.7800 446.0000 1.0000
29.8000 432.0000 1.0000
29.8200 418.0000 1.0000
29.8400 415.0000 1.0000
29.8600 412.0000 1.0000
29.8800 398.0000 1.0000
29.9000 394.0000 1.0000
29.9200 382.0000 1.0000
29.9400 377.0000 1.0000
29.9600 398.0000 1.0000
29.9800 405.0000 1.0000
30.0000 422.0000 1.0000
30.0200 415.0000 1.0000
30.0400 358.0000 1.0000
30.0600 395.0000 1.0000
30.0800 433.0000 1.0000
30.1000 434.0000 1.0000
30.1200 410.0000 1.0000
30.1400 408.0000 1.0000
30.1600 402.0000 1.0000
30.1800 403.0000 1.0000
30.2000 411.0000 1.0000
30.2200 396.0000 1.0000
30.2400 360.0000 1.0000
30.2600 385.0000 1.0000
30.2800 387.0000 1.0000
30.3000 393.0000 1.0000
30.3200 428.0000 1.0000
30.3400 448.0000 1.0000
30.3600 446.0000 1.0000
30.3800 431.0000 1.0000
30.4000 399.0000 1.0000
30.4200 406.0000 1.0000
30.4400 418.0000 1.0000
30.4600 372.0000 1.0000
30.4800 361.0000 1.0000
30.5000 318.0000 1.0000
30.5200 339.0000 1.0000
30.5400 323.0000 1.0000
30.5600 303.0000 1.0000
30.5800 299.0000 1.0000
30.6000 306.0000 1.0000
30.6200 308.0000 1.0000
30.6400 312.0000 1.0000
30.6600 315.0000 1.0000
30.6800 315.0000 1.0000
30.7000 321.0000 1.0000
30.7200 305.0000 1.0000
30.7400 301.0000 1.0000
30.7600 310.0000 1.0000
30.7800 294.0000 1.0000
30.8000 294.0000 1.0000
30.8200 286.0000 1.0000
30.8400 286.0000 1.0000
30.8600 275.0000 1.0000
30.8800 282.0000 1.0000
30.9000 275.0000 1.0000
30.9200 287.0000 1.0000
30.9400 267.0000 1.0000
30.9600 263.0000 1.0000
30.9800 269.0000 1.0000
31.0000 261.0000 1.0000
31.0200 260.0000 1.0000
31.0400 275.0000 1.0000
31.0600 262.0000 1.0000
31.0800 259.0000 1.0000
31.1000 274.0000 1.0000
31.1200 287.0000 1.0000
31.1400 296.0000 1.0000
31.1600 295.0000 1.0000
31.1800 271.0000 1.0000
31.2000 271.0000 1.0000
31.2200 270.0000 1.0000
31.2400 264.0000 1.0000
31.2600 270.0000 1.0000
31.2800 259.0000 1.0000
31.3000 266.0000 1.0000
31.3200 251.0000 1.0000
31.3400 233.0000 1.0000
31.3600 245.0000 1.0000
31.3800 243.0000 1.0000
31.4000 245.0000 1.0000
31.4200 232.0000 1.0000
31.4400 244.0000 1.0000
31.4600 228.0000 1.0000
31.4800 218.0000 1.0000
31.5000 219.0000 1.0000
31.5200 184.0000 1.0000
31.5400 192.0000 1.0000
31.5600 208.0000 1.0000
31.5800 191.0000 1.0000
31.6000 184.0000 1.0000
31.6200 175.0000 1.0000
31.6400 166.0000 1.0000
31.6600 179.0000 1.0000
31.6800 182.0000 1.0000
31.7000 186.0000 1.0000
31.7200 190.0000 1.0000
31.7400 210.0000 1.0000
31.7600 192.0000 1.0000
31.7800 199.0000 1.0000
31.8000 190.0000 1.0000
31.8200 187.0000 1.0000
31.8400 192.0000 1.0000
31.8600 187.0000 1.0000
31.8800 215.0000 1.0000
31.9000 206.0000 1.0000
31.9200 198.0000 1.0000
31.9400 189.0000 1.0000
31.9600 195.0000 1.0000
31.9800 178.0000 1.0000
32.0000 186.0000 1.0000
32.0200 202.0000 1.0000
32.0400 169.0000 1.0000
32.0600 184.0000 1.0000
32.0800 205.0000 1.0000
32.1000 185.0000 1.0000
32.1200 177.0000 1.0000
32.1400 202.0000 1.0000
32.1600 189.0000 1.0000
32.1800 193.0000 1.0000
32.2000 189.0000 1.0000
32.2200 195.0000 1.0000
32.2400 190.0000 1.0000
32.2600 183.0000 1.0000
32.2800 171.0000 1.0000
32.3000 181.0000 1.0000
32.3200 179.0000 1.0000
32.3400 178.0000 1.0000
32.3600 174.0000 1.0000
32.3800 179.0000 1.0000
32.4000 165.0000 1.0000
32.4200 166.0000 1.0000
32.4400 158.0000 1.0000
32.4600 148.0000 1.0000
32.4800 142.0000 1.0000
32.5000 167.0000 1.0000
32.5200 156.0000 1.0000
32.5400 158.0000 1.0000
32.5600 169.0000 1.0000
32.5800 152.0000 1.0000
32.6000 136.0000 1.0000
32.6200 155.0000 1.0000
32.6400 147.0000 1.0000
32.6600 158.0000 1.0000
32.6800 154.0000 1.0000
32.7000 147.0000 1.0000
32.7200 146.0000 1.0000
32.7400 168.0000 1.0000
32.7600 174.0000 1.0000
32.7800 174.0000 1.0000
32.8000 148.0000 1.0000
32.8200 143.0000 1.0000
32.8400 188.0000 1.0000
32.8600 159.0000 1.0000
32.8800 176.0000 1.0000
32.9000 185.0000 1.0000
32.9200 180.0000 1.0000
32.9400 200.0000 1.0000
32.9600 175.0000 1.0000
32.9800 201.0000 1.0000
33.0000 195.0000 1.0000
33.0200 184.0000 1.0000
33.0400 203.0000 1.0000
33.0600 202.0000 1.0000
33.0800 179.0000 1.0000
33.1000 179.0000 1.0000
33.1200 193.0000 1.0000
33.1400 179.0000 1.0000
33.1600 162.0000 1.0000
33.1800 173.0000 1.0000
33.2000 158.0000 1.0000
33.2200 164.0000 1.0000
33.2400 175.0000 1.0000
33.2600 159.0000 1.0000
33.2800 161.0000 1.0000
33.3000 172.0000 1.0000
33.3200 171.0000 1.0000
33.3400 162.0000 1.0000
33.3600 160.0000 1.0000
33.3800 164.0000 1.0000
33.4000 159.0000 1.0000
33.4200 168.0000 1.0000
33.4400 185.0000 1.0000
33.4600 191.0000 1.0000
33.4800 162.0000 1.0000
33.5000 178.0000 1.0000
33.5200 167.0000 1.0000
33.5400 165.0000 1.0000
33.5600 194.0000 1.0000
33.5800 188.0000 1.0000
33.6000 207.0000 1.0000
33.6200 202.0000 1.0000
33.6400 207.0000 1.0000
33.6600 180.0000 1.0000
33.6800 184.0000 1.0000
33.7000 209.0000 1.0000
33.7200 214.0000 1.0000
33.7400 200.0000 1.0000
33.7600 201.0000 1.0000
33.7800 224.0000 1.0000
33.8000 214.0000 1.0000
33.8200 215.0000 1.0000
33.8400 228.0000 1.0000
33.8600 250.0000 1.0000
33.8800 220.0000 1.0000
33.9000 235.0000 1.0000
33.9200 213.0000 1.0000
33.9400 197.0000 1.0000
33.9600 198.0000 1.0000
33.9800 242.0000 1.0000
34.0000 206.0000 1.0000
34.0200 208.0000 1.0000
34.0400 207.0000 1.0000
34.0600 196.0000 1.0000
34.0800 220.0000 1.0000
34.1000 222.0000 1.0000
34.1200 243.0000 1.0000
34.1400 224.0000 1.0000
34.1600 267.0000 1.0000
34.1800 268.0000 1.0000
34.2000 265.0000 1.0000
34.2200 303.0000 1.0000
34.2400 307.0000 1.0000
34.2600 323.0000 1.0000
34.2800 341.0000 1.0000
34.3000 355.0000 1.0000
34.3200 348.0000 1.0000
34.3400 351.0000 1.0000
34.3600 338.0000 1.0000
34.3800 365.0000 1.0000
34.4000 372.0000 1.0000
34.4200 385.0000 1.0000
34.4400 384.0000 1.0000
34.4600 391.0000 1.0000
34.4800 418.0000 1.0000
34.5000 404.0000 1.0000
34.5200 400.0000 1.0000
34.5400 410.0000 1.0000
34.5600 473.0000 1.0000
34.5800 449.0000 1.0000
34.6000 510.0000 1.0000
34.6200 481.0000 1.0000
34.6400 521.0000 1.0000
34.6600 538.0000 1.0000
34.6800 533.0000 1.0000
34.7000 632.0000 1.0000
34.7200 568.0000 1.0000
34.7400 603.0000 1.0000
34.7600 652.0000 1.0000
34.7800 644.0000 1.0000
34.8000 709.0000 1.0000
34.8200 664.0000 1.0000
34.8400 736.0000 1.0000
34.8600 720.0000 1.0000
34.8800 778.0000 1.0000
34.9000 890.0000 1.0000
34.9200 989.0000 1.0000
34.9400 1076.0000 1.0000
34.9600 1269.0000 1.0000
34.9800 1387.0000 1.0000
35.0000 1586.0000 1.0000
35.0200 1762.0000 1.0000
35.0400 1844.0000 1.0000
35.0600 1883.0000 1.0000
35.0800 1870.0000 1.0000
35.1000 1664.0000 1.0000
35.1200 1513.0000 1.0000
35.1400 1300.0000 1.0000
35.1600 1110.0000 1.0000
35.1800 917.0000 1.0000
35.2000 793.0000 1.0000
35.2200 623.0000 1.0000
35.2400 570.0000 1.0000
35.2600 495.0000 1.0000
35.2800 469.0000 1.0000
35.3000 456.0000 1.0000
35.3200 476.0000 1.0000
35.3400 439.0000 1.0000
35.3600 444.0000 1.0000
35.3800 467.0000 1.0000
35.4000 448.0000 1.0000
35.4200 419.0000 1.0000
35.4400 452.0000 1.0000
35.4600 454.0000 1.0000
35.4800 447.0000 1.0000
35.5000 456.0000 1.0000
35.5200 438.0000 1.0000
35.5400 425.0000 1.0000
35.5600 396.0000 1.0000
35.5800 415.0000 1.0000
35.6000 418.0000 1.0000
35.6200 367.0000 1.0000
35.6400 366.0000 1.0000
35.6600 356.0000 1.0000
35.6800 367.0000 1.0000
35.7000 325.0000 1.0000
35.7200 322.0000 1.0000
35.7400 302.0000 1.0000
35.7600 335.0000 1.0000
35.7800 333.0000 1.0000
35.8000 331.0000 1.0000
35.8200 326.0000 1.0000
35.8400 317.0000 1.0000
35.8600 333.0000 1.0000
35.8800 320.0000 1.0000
35.9000 314.0000 1.0000
35.9200 300.0000 1.0000
35.9400 285.0000 1.0000
35.9600 279.0000 1.0000
35.9800 291.0000 1.0000
36.0000 268.0000 1.0000
36.0200 291.0000 1.0000
36.0400 270.0000 1.0000
36.0600 270.0000 1.0000
36.0800 271.0000 1.0000
36.1000 298.0000 1.0000
36.1200 291.0000 1.0000
36.1400 258.0000 1.0000
36.1600 288.0000 1.0000
36.1800 279.0000 1.0000
36.2000 285.0000 1.0000
36.2200 298.0000 1.0000
36.2400 287.0000 1.0000
36.2600 359.0000 1.0000
36.2800 341.0000 1.0000
36.3000 392.0000 1.0000
36.3200 383.0000 1.0000
36.3400 432.0000 1.0000
36.3600 538.0000 1.0000
36.3800 537.0000 1.0000
36.4000 617.0000 1.0000
36.4200 636.0000 1.0000
36.4400 669.0000 1.0000
36.4600 698.0000 1.0000
36.4800 688.0000 1.0000
36.5000 673.0000 1.0000
36.5200 649.0000 1.0000
36.5400 552.0000 1.0000
36.5600 505.0000 1.0000
36.5800 481.0000 1.0000
36.6000 427.0000 1.0000
36.6200 382.0000 1.0000
36.6400 372.0000 1.0000
36.6600 366.0000 1.0000
36.6800 345.0000 1.0000
36.7000 344.0000 1.0000
36.7200 333.0000 1.0000
36.7400 331.0000 1.0000
36.7600 305.0000 1.0000
36.7800 312.0000 1.0000
36.8000 292.0000 1.0000
36.8200 302.0000 1.0000
36.8400 284.0000 1.0000
36.8600 279.0000 1.0000
36.8800 277.0000 1.0000
36.9000 274.0000 1.0000
36.9200 265.0000 1.0000
36.9400 257.0000 1.0000
36.9600 242.0000 1.0000
36.9800 241.0000 1.0000
37.0000 261.0000 1.0000
37.0200 253.0000 1.0000
37.0400 226.0000 1.0000
37.0600 252.0000 1.0000
37.0800 254.0000 1.0000
37.1000 259.0000 1.0000
37.1200 260.0000 1.0000
37.1400 259.0000 1.0000
37.1600 266.0000 1.0000
37.1800 244.0000 1.0000
37.2000 270.0000 1.0000
37.2200 272.0000 1.0000
37.2400 262.0000 1.0000
37.2600 287.0000 1.0000
37.2800 284.0000 1.0000
37.3000 290.0000 1.0000
37.3200 284.0000 1.0000
37.3400 310.0000 1.0000
37.3600 297.0000 1.0000
37.3800 303.0000 1.0000
37.4000 305.0000 1.0000
37.4200 322.0000 1.0000
37.4400 321.0000 1.0000
37.4600 311.0000 1.0000
37.4800 345.0000 1.0000
37.5000 369.0000 1.0000
37.5200 394.0000 1.0000
37.5400 440.0000 1.0000
37.5600 514.0000 1.0000
37.5800 562.0000 1.0000
37.6000 621.0000 1.0000
37.6200 688.0000 1.0000
37.6400 778.0000 1.0000
37.6600 860.0000 1.0000
37.6800 829.0000 1.0000
37.7000 833.0000 1.0000
37.7200 773.0000 1.0000
37.7400 730.0000 1.0000
37.7600 623.0000 1.0000
37.7800 549.0000 1.0000
37.8000 488.0000 1.0000
37.8200 411.0000 1.0000
37.8400 333.0000 1.0000
37.8600 275.0000 1.0000
37.8800 242.0000 1.0000
37.9000 227.0000 1.0000
37.9200 220.0000 1.0000
37.9400 233.0000 1.0000
37.9600 230.0000 1.0000
37.9800 199.0000 1.0000
38.0000 187.0000 1.0000
38.0200 176.0000 1.0000
38.0400 186.0000 1.0000
38.0600 166.0000 1.0000
38.0800 160.0000 1.0000
38.1000 171.0000 1.0000
38.1200 175.0000 1.0000
38.1400 171.0000 1.0000
38.1600 166.0000 1.0000
38.1800 169.0000 1.0000
38.2000 162.0000 1.0000
38.2200 164.0000 1.0000
38.2400 160.0000 1.0000
38.2600 159.0000 1.0000
38.2800 150.0000 1.0000
38.3000 148.0000 1.0000
38.3200 166.0000 1.0000
38.3400 151.0000 1.0000
38.3600 156.0000 1.0000
38.3800 168.0000 1.0000
38.4000 146.0000 1.0000
38.4200 158.0000 1.0000
38.4400 144.0000 1.0000
38.4600 158.0000 1.0000
38.4800 160.0000 1.0000
38.5000 157.0000 1.0000
38.5200 161.0000 1.0000
38.5400 157.0000 1.0000
38.5600 158.0000 1.0000
38.5800 162.0000 1.0000
38.6000 169.0000 1.0000
38.6200 162.0000 1.0000
38.6400 161.0000 1.0000
38.6600 171.0000 1.0000
38.6800 176.0000 1.0000
38.7000 180.0000 1.0000
38.7200 176.0000 1.0000
38.7400 180.0000 1.0000
38.7600 179.0000 1.0000
38.7800 179.0000 1.0000
38.8000 198.0000 1.0000
38.8200 193.0000 1.0000
38.8400 182.0000 1.0000
38.8600 188.0000 1.0000
38.8800 184.0000 1.0000
38.9000 174.0000 1.0000
38.9200 159.0000 1.0000
38.9400 162.0000 1.0000
38.9600 172.0000 1.0000
38.9800 168.0000 1.0000
39.0000 168.0000 1.0000
39.0200 176.0000 1.0000
39.0400 174.0000 1.0000
39.0600 177.0000 1.0000
39.0800 181.0000 1.0000
39.1000 191.0000 1.0000
39.1200 198.0000 1.0000
39.1400 198.0000 1.0000
39.1600 206.0000 1.0000
39.1800 233.0000 1.0000
39.2000 237.0000 1.0000
39.2200 261.0000 1.0000
39.2400 309.0000 1.0000
39.2600 334.0000 1.0000
39.2800 391.0000 1.0000
39.3000 463.0000 1.0000
39.3200 541.0000 1.0000
39.3400 565.0000 1.0000
39.3600 625.0000 1.0000
39.3800 641.0000 1.0000
39.4000 612.0000 1.0000
39.4200 563.0000 1.0000
39.4400 513.0000 1.0000
39.4600 458.0000 1.0000
39.4800 382.0000 1.0000
39.5000 355.0000 1.0000
39.5200 329.0000 1.0000
39.5400 291.0000 1.0000
39.5600 260.0000 1.0000
39.5800 225.0000 1.0000
39.6000 210.0000 1.0000
39.6200 189.0000 1.0000
39.6400 184.0000 1.0000
39.6600 193.0000 1.0000
39.6800 197.0000 1.0000
39.7000 183.0000 1.0000
39.7200 184.0000 1.0000
39.7400 176.0000 1.0000
39.7600 165.0000 1.0000
39.7800 191.0000 1.0000
39.8000 193.0000 1.0000
39.8200 181.0000 1.0000
39.8400 191.0000 1.0000
39.8600 189.0000 1.0000
39.8800 201.0000 1.0000
39.9000 218.0000 1.0000
39.9200 209.0000 1.0000
39.9400 193.0000 1.0000
39.9600 203.0000 1.0000
39.9800 214.0000 1.0000
40.0000 198.0000 1.0000
40.0200 189.0000 1.0000
40.0400 203.0000 1.0000
40.0600 222.0000 1.0000
40.0800 248.0000 1.0000
40.1000 267.0000 1.0000
40.1200 283.0000 1.0000
40.1400 302.0000 1.0000
40.1600 335.0000 1.0000
40.1800 345.0000 1.0000
40.2000 361.0000 1.0000
40.2200 359.0000 1.0000
40.2400 323.0000 1.0000
40.2600 302.0000 1.0000
40.2800 292.0000 1.0000
40.3000 299.0000 1.0000
40.3200 288.0000 1.0000
40.3400 253.0000 1.0000
40.3600 224.0000 1.0000
40.3800 206.0000 1.0000
40.4000 203.0000 1.0000
40.4200 194.0000 1.0000
40.4400 179.0000 1.0000
40.4600 187.0000 1.0000
40.4800 183.0000 1.0000
40.5000 177.0000 1.0000
40.5200 193.0000 1.0000
40.5400 183.0000 1.0000
40.5600 174.0000 1.0000
40.5800 180.0000 1.0000
40.6000 178.0000 1.0000
40.6200 178.0000 1.0000
40.6400 180.0000 1.0000
40.6600 194.0000 1.0000
40.6800 186.0000 1.0000
40.7000 186.0000 1.0000
40.7200 194.0000 1.0000
40.7400 187.0000 1.0000
40.7600 198.0000 1.0000
40.7800 215.0000 1.0000
40.8000 203.0000 1.0000
40.8200 185.0000 1.0000
40.8400 189.0000 1.0000
40.8600 188.0000 1.0000
40.8800 191.0000 1.0000
40.9000 196.0000 1.0000
40.9200 192.0000 1.0000
40.9400 183.0000 1.0000
40.9600 188.0000 1.0000
40.9800 181.0000 1.0000
41.0000 178.0000 1.0000
41.0200 180.0000 1.0000
41.0400 182.0000 1.0000
41.0600 192.0000 1.0000
41.0800 187.0000 1.0000
41.1000 193.0000 1.0000
41.1200 210.0000 1.0000
41.1400 200.0000 1.0000
41.1600 185.0000 1.0000
41.1800 186.0000 1.0000
41.2000 190.0000 1.0000
41.2200 179.0000 1.0000
41.2400 170.0000 1.0000
41.2600 173.0000 1.0000
41.2800 179.0000 1.0000
41.3000 191.0000 1.0000
41.3200 189.0000 1.0000
41.3400 178.0000 1.0000
41.3600 177.0000 1.0000
41.3800 181.0000 1.0000
41.4000 191.0000 1.0000
41.4200 168.0000 1.0000
41.4400 163.0000 1.0000
41.4600 192.0000 1.0000
41.4800 192.0000 1.0000
41.5000 193.0000 1.0000
41.5200 212.0000 1.0000
41.5400 212.0000 1.0000
41.5600 223.0000 1.0000
41.5800 231.0000 1.0000
41.6000 229.0000 1.0000
41.6200 228.0000 1.0000
41.6400 237.0000 1.0000
41.6600 243.0000 1.0000
41.6800 232.0000 1.0000
41.7000 224.0000 1.0000
41.7200 243.0000 1.0000
41.7400 227.0000 1.0000
41.7600 223.0000 1.0000
41.7800 232.0000 1.0000
41.8000 215.0000 1.0000
41.8200 224.0000 1.0000
41.8400 232.0000 1.0000
41.8600 241.0000 1.0000
41.8800 232.0000 1.0000
41.9000 226.0000 1.0000
41.9200 232.0000 1.0000
41.9400 219.0000 1.0000
41.9600 223.0000 1.0000
41.9800 249.0000 1.0000
42.0000 259.0000 1.0000
42.0200 242.0000 1.0000
42.0400 239.0000 1.0000
42.0600 249.0000 1.0000
42.0800 234.0000 1.0000
42.1000 269.0000 1.0000
42.1200 272.0000 1.0000
42.1400 267.0000 1.0000
42.1600 278.0000 1.0000
42.1800 301.0000 1.0000
42.2000 317.0000 1.0000
42.2200 331.0000 1.0000
42.2400 365.0000 1.0000
42.2600 416.0000 1.0000
42.2800 454.0000 1.0000
42.3000 478.0000 1.0000
42.3200 519.0000 1.0000
42.3400 553.0000 1.0000
42.3600 535.0000 1.0000
42.3800 543.0000 1.0000
42.4000 525.0000 1.0000
42.4200 470.0000 1.0000
42.4400 465.0000 1.0000
42.4600 442.0000 1.0000
42.4800 402.0000 1.0000
42.5000 373.0000 1.0000
42.5200 345.0000 1.0000
42.5400 282.0000 1.0000
42.5600 264.0000 1.0000
42.5800 241.0000 1.0000
42.6000 226.0000 1.0000
42.6200 245.0000 1.0000
42.6400 227.0000 1.0000
42.6600 244.0000 1.0000
42.6800 237.0000 1.0000
42.7000 230.0000 1.0000
42.7200 229.0000 1.0000
42.7400 240.0000 1.0000
42.7600 227.0000 1.0000
42.7800 225.0000 1.0000
42.8000 241.0000 1.0000
42.8200 228.0000 1.0000
42.8400 232.0000 1.0000
42.8600 229.0000 1.0000
42.8800 240.0000 1.0000
42.9000 236.0000 1.0000
42.9200 249.0000 1.0000
42.9400 261.0000 1.0000
42.9600 237.0000 1.0000
42.9800 250.0000 1.0000
43.0000 305.0000 1.0000
43.0200 326.0000 1.0000
43.0400 340.0000 1.0000
43.0600 377.0000 1.0000
43.0800 452.0000 1.0000
43.1000 495.0000 1.0000
43.1200 570.0000 1.0000
43.1400 706.0000 1.0000
43.1600 872.0000 1.0000
43.1800 1095.0000 1.0000
43.2000 1290.0000 1.0000
43.2200 1460.0000 1.0000
43.2400 1656.0000 1.0000
43.2600 1592.0000 1.0000
43.2800 1658.0000 1.0000
43.3000 1635.0000 1.0000
43.3200 1438.0000 1.0000
43.3400 1248.0000 1.0000
43.3600 1117.0000 1.0000
43.3800 1016.0000 1.0000
43.4000 830.0000 1.0000
43.4200 645.0000 1.0000
43.4400 606.0000 1.0000
43.4600 484.0000 1.0000
43.4800 391.0000 1.0000
43.5000 320.0000 1.0000
43.5200 263.0000 1.0000
43.5400 250.0000 1.0000
43.5600 228.0000 1.0000
43.5800 205.0000 1.0000
43.6000 205.0000 1.0000
43.6200 196.0000 1.0000
43.6400 193.0000 1.0000
43.6600 202.0000 1.0000
43.6800 186.0000 1.0000
43.7000 173.0000 1.0000
43.7200 173.0000 1.0000
43.7400 191.0000 1.0000
43.7600 188.0000 1.0000
43.7800 188.0000 1.0000
43.8000 194.0000 1.0000
43.8200 185.0000 1.0000
43.8400 185.0000 1.0000
43.8600 172.0000 1.0000
43.8800 169.0000 1.0000
43.9000 157.0000 1.0000
43.9200 168.0000 1.0000
43.9400 182.0000 1.0000
43.9600 167.0000 1.0000
43.9800 201.0000 1.0000
44.0000 170.0000 1.0000
44.0200 164.0000 1.0000
44.0400 166.0000 1.0000
44.0600 155.0000 1.0000
44.0800 152.0000 1.0000
44.1000 159.0000 1.0000
44.1200 144.0000 1.0000
44.1400 154.0000 1.0000
44.1600 156.0000 1.0000
44.1800 140.0000 1.0000
44.2000 161.0000 1.0000
44.2200 164.0000 1.0000
44.2400 138.0000 1.0000
44.2600 143.0000 1.0000
44.2800 167.0000 1.0000
44.3000 175.0000 1.0000
44.3200 160.0000 1.0000
44.3400 164.0000 1.0000
44.3600 153.0000 1.0000
44.3800 167.0000 1.0000
44.4000 153.0000 1.0000
44.4200 164.0000 1.0000
44.4400 149.0000 1.0000
44.4600 149.0000 1.0000
44.4800 154.0000 1.0000
44.5000 144.0000 1.0000
44.5200 173.0000 1.0000
44.5400 140.0000 1.0000
44.5600 168.0000 1.0000
44.5800 146.0000 1.0000
44.6000 159.0000 1.0000
44.6200 169.0000 1.0000
44.6400 162.0000 1.0000
44.6600 171.0000 1.0000
44.6800 180.0000 1.0000
44.7000 153.0000 1.0000
44.7200 175.0000 1.0000
44.7400 197.0000 1.0000
44.7600 158.0000 1.0000
44.7800 190.0000 1.0000
44.8000 199.0000 1.0000
44.8200 155.0000 1.0000
44.8400 181.0000 1.0000
44.8600 181.0000 1.0000
44.8800 180.0000 1.0000
44.9000 201.0000 1.0000
44.9200 188.0000 1.0000
44.9400 167.0000 1.0000
44.9600 174.0000 1.0000
44.9800 172.0000 1.0000
45.0000 176.0000 1.0000
45.0200 196.0000 1.0000
45.0400 202.0000 1.0000
45.0600 215.0000 1.0000
45.0800 178.0000 1.0000
45.1000 194.0000 1.0000
45.1200 193.0000 1.0000
45.1400 222.0000 1.0000
45.1600 192.0000 1.0000
45.1800 180.0000 1.0000
45.2000 207.0000 1.0000
45.2200 217.0000 1.0000
45.2400 205.0000 1.0000
45.2600 219.0000 1.0000
45.2800 229.0000 1.0000
45.3000 188.0000 1.0000
45.3200 224.0000 1.0000
45.3400 219.0000 1.0000
45.3600 214.0000 1.0000
45.3800 227.0000 1.0000
45.4000 228.0000 1.0000
45.4200 224.0000 1.0000
45.4400 213.0000 1.0000
45.4600 198.0000 1.0000
45.4800 214.0000 1.0000
45.5000 224.0000 1.0000
45.5200 215.0000 1.0000
45.5400 221.0000 1.0000
45.5600 228.0000 1.0000
45.5800 251.0000 1.0000
45.6000 260.0000 1.0000
45.6200 284.0000 1.0000
45.6400 334.0000 1.0000
45.6600 346.0000 1.0000
45.6800 337.0000 1.0000
45.7000 374.0000 1.0000
45.7200 344.0000 1.0000
45.7400 328.0000 1.0000
45.7600 322.0000 1.0000
45.7800 316.0000 1.0000
45.8000 292.0000 1.0000
45.8200 264.0000 1.0000
45.8400 259.0000 1.0000
45.8600 244.0000 1.0000
45.8800 219.0000 1.0000
45.9000 216.0000 1.0000
45.9200 212.0000 1.0000
45.9400 191.0000 1.0000
45.9600 166.0000 1.0000
45.9800 171.0000 1.0000
46.0000 191.0000 1.0000
46.0200 186.0000 1.0000
46.0400 178.0000 1.0000
46.0600 181.0000 1.0000
46.0800 184.0000 1.0000
46.1000 185.0000 1.0000
46.1200 188.0000 1.0000
46.1400 183.0000 1.0000
46.1600 166.0000 1.0000
46.1800 163.0000 1.0000
46.2000 174.0000 1.0000
46.2200 159.0000 1.0000
46.2400 165.0000 1.0000
46.2600 168.0000 1.0000
46.2800 165.0000 1.0000
46.3000 139.0000 1.0000
46.3200 150.0000 1.0000
46.3400 146.0000 1.0000
46.3600 147.0000 1.0000
46.3800 157.0000 1.0000
46.4000 161.0000 1.0000
46.4200 137.0000 1.0000
46.4400 139.0000 1.0000
46.4600 147.0000 1.0000
46.4800 173.0000 1.0000
46.5000 160.0000 1.0000
46.5200 140.0000 1.0000
46.5400 148.0000 1.0000
46.5600 153.0000 1.0000
46.5800 147.0000 1.0000
46.6000 126.0000 1.0000
46.6200 120.0000 1.0000
46.6400 132.0000 1.0000
46.6600 129.0000 1.0000
46.6800 117.0000 1.0000
46.7000 128.0000 1.0000
46.7200 144.0000 1.0000
46.7400 133.0000 1.0000
46.7600 138.0000 1.0000
46.7800 125.0000 1.0000
46.8000 140.0000 1.0000
46.8200 136.0000 1.0000
46.8400 153.0000 1.0000
46.8600 164.0000 1.0000
46.8800 150.0000 1.0000
46.9000 170.0000 1.0000
46.9200 158.0000 1.0000
46.9400 128.0000 1.0000
46.9600 158.0000 1.0000
46.9800 172.0000 1.0000
47.0000 158.0000 1.0000
47.0200 174.0000 1.0000
47.0400 159.0000 1.0000
47.0600 162.0000 1.0000
47.0800 171.0000 1.0000
47.1000 172.0000 1.0000
47.1200 161.0000 1.0000
47.1400 160.0000 1.0000
47.1600 141.0000 1.0000
47.1800 149.0000 1.0000
47.2000 152.0000 1.0000
47.2200 154.0000 1.0000
47.2400 158.0000 1.0000
47.2600 147.0000 1.0000
47.2800 156.0000 1.0000
47.3000 166.0000 1.0000
47.3200 173.0000 1.0000
47.3400 189.0000 1.0000
47.3600 179.0000 1.0000
47.3800 162.0000 1.0000
47.4000 152.0000 1.0000
47.4200 161.0000 1.0000
47.4400 150.0000 1.0000
47.4600 160.0000 1.0000
47.4800 169.0000 1.0000
47.5000 152.0000 1.0000
47.5200 149.0000 1.0000
47.5400 152.0000 1.0000
47.5600 150.0000 1.0000
47.5800 139.0000 1.0000
47.6000 152.0000 1.0000
47.6200 132.0000 1.0000
47.6400 131.0000 1.0000
47.6600 140.0000 1.0000
47.6800 125.0000 1.0000
47.7000 137.0000 1.0000
47.7200 141.0000 1.0000
47.7400 135.0000 1.0000
47.7600 145.0000 1.0000
47.7800 152.0000 1.0000
47.8000 150.0000 1.0000
47.8200 152.0000 1.0000
47.8400 140.0000 1.0000
47.8600 135.0000 1.0000
47.8800 153.0000 1.0000
47.9000 145.0000 1.0000
47.9200 138.0000 1.0000
47.9400 151.0000 1.0000
47.9600 157.0000 1.0000
47.9800 154.0000 1.0000
48.0000 149.0000 1.0000
48.0200 157.0000 1.0000
48.0400 176.0000 1.0000
48.0600 168.0000 1.0000
48.0800 155.0000 1.0000
48.1000 144.0000 1.0000
48.1200 152.0000 1.0000
48.1400 175.0000 1.0000
48.1600 175.0000 1.0000
48.1800 167.0000 1.0000
48.2000 180.0000 1.0000
48.2200 169.0000 1.0000
48.2400 167.0000 1.0000
48.2600 171.0000 1.0000
48.2800 171.0000 1.0000
48.3000 176.0000 1.0000
48.3200 180.0000 1.0000
48.3400 186.0000 1.0000
48.3600 187.0000 1.0000
48.3800 173.0000 1.0000
48.4000 170.0000 1.0000
48.4200 167.0000 1.0000
48.4400 172.0000 1.0000
48.4600 164.0000 1.0000
48.4800 158.0000 1.0000
48.5000 157.0000 1.0000
48.5200 167.0000 1.0000
48.5400 170.0000 1.0000
48.5600 158.0000 1.0000
48.5800 153.0000 1.0000
48.6000 149.0000 1.0000
48.6200 152.0000 1.0000
48.6400 155.0000 1.0000
48.6600 159.0000 1.0000
48.6800 151.0000 1.0000
48.7000 144.0000 1.0000
48.7200 152.0000 1.0000
48.7400 145.0000 1.0000
48.7600 132.0000 1.0000
48.7800 142.0000 1.0000
48.8000 155.0000 1.0000
48.8200 145.0000 1.0000
48.8400 131.0000 1.0000
48.8600 134.0000 1.0000
48.8800 134.0000 1.0000
48.9000 142.0000 1.0000
48.9200 155.0000 1.0000
48.9400 144.0000 1.0000
48.9600 144.0000 1.0000
48.9800 149.0000 1.0000
49.0000 160.0000 1.0000
49.0200 171.0000 1.0000
49.0400 167.0000 1.0000
49.0600 177.0000 1.0000
49.0800 185.0000 1.0000
49.1000 187.0000 1.0000
49.1200 192.0000 1.0000
49.1400 181.0000 1.0000
49.1600 177.0000 1.0000
49.1800 185.0000 1.0000
49.2000 186.0000 1.0000
49.2200 175.0000 1.0000
49.2400 166.0000 1.0000
49.2600 166.0000 1.0000
49.2800 166.0000 1.0000
49.3000 170.0000 1.0000
49.3200 183.0000 1.0000
49.3400 185.0000 1.0000
49.3600 188.0000 1.0000
49.3800 176.0000 1.0000
49.4000 173.0000 1.0000
49.4200 183.0000 1.0000
49.4400 176.0000 1.0000
49.4600 173.0000 1.0000
49.4800 173.0000 1.0000
49.5000 179.0000 1.0000
49.5200 193.0000 1.0000
49.5400 197.0000 1.0000
49.5600 198.0000 1.0000
49.5800 196.0000 1.0000
49.6000 182.0000 1.0000
49.6200 193.0000 1.0000
49.6400 189.0000 1.0000
49.6600 206.0000 1.0000
49.6800 230.0000 1.0000
49.7000 239.0000 1.0000
49.7200 228.0000 1.0000
49.7400 230.0000 1.0000
49.7600 230.0000 1.0000
49.7800 230.0000 1.0000
49.8000 253.0000 1.0000
49.8200 257.0000 1.0000
49.8400 301.0000 1.0000
49.8600 325.0000 1.0000
49.8800 334.0000 1.0000
49.9000 374.0000 1.0000
49.9200 405.0000 1.0000
49.9400 435.0000 1.0000
49.9600 534.0000 1.0000
49.9800 644.0000 1.0000
50.0000 714.0000 1.0000
50.0200 773.0000 1.0000
50.0400 822.0000 1.0000
50.0600 827.0000 1.0000
50.0800 778.0000 1.0000
50.1000 743.0000 1.0000
50.1200 699.0000 1.0000
50.1400 646.0000 1.0000
50.1600 564.0000 1.0000
50.1800 525.0000 1.0000
50.2000 478.0000 1.0000
50.2200 426.0000 1.0000
50.2400 353.0000 1.0000
50.2600 300.0000 1.0000
50.2800 264.0000 1.0000
50.3000 220.0000 1.0000
50.3200 228.0000 1.0000
50.3400 208.0000 1.0000
50.3600 184.0000 1.0000
50.3800 179.0000 1.0000
50.4000 183.0000 1.0000
50.4200 173.0000 1.0000
50.4400 215.0000 1.0000
50.4600 212.0000 1.0000
50.4800 211.0000 1.0000
50.5000 201.0000 1.0000
50.5200 201.0000 1.0000
50.5400 217.0000 1.0000
50.5600 200.0000 1.0000
50.5800 204.0000 1.0000
50.6000 213.0000 1.0000
50.6200 228.0000 1.0000
50.6400 228.0000 1.0000
50.6600 222.0000 1.0000
50.6800 195.0000 1.0000
50.7000 192.0000 1.0000
50.7200 202.0000 1.0000
50.7400 192.0000 1.0000
50.7600 175.0000 1.0000
50.7800 175.0000 1.0000
50.8000 188.0000 1.0000
50.8200 175.0000 1.0000
50.8400 164.0000 1.0000
50.8600 171.0000 1.0000
50.8800 160.0000 1.0000
50.9000 156.0000 1.0000
50.9200 147.0000 1.0000
50.9400 149.0000 1.0000
50.9600 154.0000 1.0000
50.9800 191.0000 1.0000
51.0000 167.0000 1.0000
51.0200 171.0000 1.0000
51.0400 171.0000 1.0000
51.0600 189.0000 1.0000
51.0800 198.0000 1.0000
51.1000 174.0000 1.0000
51.1200 181.0000 1.0000
51.1400 179.0000 1.0000
51.1600 183.0000 1.0000
51.1800 184.0000 1.0000
51.2000 168.0000 1.0000
51.2200 192.0000 1.0000
51.2400 183.0000 1.0000
51.2600 168.0000 1.0000
51.2800 157.0000 1.0000
51.3000 154.0000 1.0000
51.3200 153.0000 1.0000
51.3400 157.0000 1.0000
51.3600 164.0000 1.0000
51.3800 155.0000 1.0000
51.4000 160.0000 1.0000
51.4200 139.0000 1.0000
51.4400 156.0000 1.0000
51.4600 136.0000 1.0000
51.4800 133.0000 1.0000
51.5000 145.0000 1.0000
51.5200 152.0000 1.0000
51.5400 143.0000 1.0000
51.5600 148.0000 1.0000
51.5800 150.0000 1.0000
51.6000 122.0000 1.0000
51.6200 119.0000 1.0000
51.6400 138.0000 1.0000
51.6600 133.0000 1.0000
51.6800 134.0000 1.0000
51.7000 138.0000 1.0000
51.7200 117.0000 1.0000
51.7400 126.0000 1.0000
51.7600 147.0000 1.0000
51.7800 140.0000 1.0000
51.8000 133.0000 1.0000
51.8200 123.0000 1.0000
51.8400 129.0000 1.0000
51.8600 125.0000 1.0000
51.8800 124.0000 1.0000
51.9000 129.0000 1.0000
51.9200 136.0000 1.0000
51.9400 133.0000 1.0000
51.9600 141.0000 1.0000
51.9800 130.0000 1.0000
52.0000 151.0000 1.0000
52.0200 153.0000 1.0000
52.0400 174.0000 1.0000
52.0600 137.0000 1.0000
52.0800 167.0000 1.0000
52.1000 172.0000 1.0000
52.1200 162.0000 1.0000
52.1400 178.0000 1.0000
52.1600 166.0000 1.0000
52.1800 197.0000 1.0000
52.2000 198.0000 1.0000
52.2200 172.0000 1.0000
52.2400 211.0000 1.0000
52.2600 233.0000 1.0000
52.2800 235.0000 1.0000
52.3000 250.0000 1.0000
52.3200 290.0000 1.0000
52.3400 324.0000 1.0000
52.3600 383.0000 1.0000
52.3800 447.0000 1.0000
52.4000 527.0000 1.0000
52.4200 622.0000 1.0000
52.4400 705.0000 1.0000
52.4600 771.0000 1.0000
52.4800 761.0000 1.0000
52.5000 767.0000 1.0000
52.5200 715.0000 1.0000
52.5400 684.0000 1.0000
52.5600 616.0000 1.0000
52.5800 549.0000 1.0000
52.6000 503.0000 1.0000
52.6200 465.0000 1.0000
52.6400 485.0000 1.0000
52.6600 385.0000 1.0000
52.6800 332.0000 1.0000
52.7000 301.0000 1.0000
52.7200 244.0000 1.0000
52.7400 219.0000 1.0000
52.7600 183.0000 1.0000
52.7800 197.0000 1.0000
52.8000 187.0000 1.0000
52.8200 176.0000 1.0000
52.8400 174.0000 1.0000
52.8600 170.0000 1.0000
52.8800 164.0000 1.0000
52.9000 200.0000 1.0000
52.9200 171.0000 1.0000
52.9400 163.0000 1.0000
52.9600 160.0000 1.0000
52.9800 168.0000 1.0000
53.0000 175.0000 1.0000
53.0200 161.0000 1.0000
53.0400 166.0000 1.0000
53.0600 194.0000 1.0000
53.0800 183.0000 1.0000
53.1000 187.0000 1.0000
53.1200 170.0000 1.0000
53.1400 188.0000 1.0000
53.1600 201.0000 1.0000
53.1800 198.0000 1.0000
53.2000 179.0000 1.0000
53.2200 177.0000 1.0000
53.2400 215.0000 1.0000
53.2600 166.0000 1.0000
53.2800 177.0000 1.0000
53.3000 178.0000 1.0000
53.3200 174.0000 1.0000
53.3400 171.0000 1.0000
53.3600 190.0000 1.0000
53.3800 149.0000 1.0000
53.4000 159.0000 1.0000
53.4200 165.0000 1.0000
53.4400 160.0000 1.0000
53.4600 160.0000 1.0000
53.4800 162.0000 1.0000
53.5000 155.0000 1.0000
53.5200 144.0000 1.0000
53.5400 157.0000 1.0000
53.5600 161.0000 1.0000
53.5800 161.0000 1.0000
53.6000 163.0000 1.0000
53.6200 172.0000 1.0000
53.6400 152.0000 1.0000
53.6600 157.0000 1.0000
53.6800 158.0000 1.0000
53.7000 168.0000 1.0000
53.7200 204.0000 1.0000
53.7400 166.0000 1.0000
53.7600 183.0000 1.0000
53.7800 176.0000 1.0000
53.8000 186.0000 1.0000
53.8200 192.0000 1.0000
53.8400 187.0000 1.0000
53.8600 171.0000 1.0000
53.8800 180.0000 1.0000
53.9000 186.0000 1.0000
53.9200 182.0000 1.0000
53.9400 177.0000 1.0000
53.9600 180.0000 1.0000
53.9800 188.0000 1.0000
54.0000 190.0000 1.0000
54.0200 203.0000 1.0000
54.0400 190.0000 1.0000
54.0600 171.0000 1.0000
54.0800 163.0000 1.0000
54.1000 172.0000 1.0000
54.1200 169.0000 1.0000
54.1400 182.0000 1.0000
54.1600 166.0000 1.0000
54.1800 161.0000 1.0000
54.2000 174.0000 1.0000
54.2200 160.0000 1.0000
54.2400 158.0000 1.0000
54.2600 174.0000 1.0000
54.2800 181.0000 1.0000
54.3000 181.0000 1.0000
54.3200 166.0000 1.0000
54.3400 173.0000 1.0000
54.3600 161.0000 1.0000
54.3800 172.0000 1.0000
54.4000 182.0000 1.0000
54.4200 166.0000 1.0000
54.4400 149.0000 1.0000
54.4600 151.0000 1.0000
54.4800 165.0000 1.0000
54.5000 177.0000 1.0000
54.5200 184.0000 1.0000
54.5400 180.0000 1.0000
54.5600 199.0000 1.0000
54.5800 184.0000 1.0000
54.6000 194.0000 1.0000
54.6200 209.0000 1.0000
54.6400 218.0000 1.0000
54.6600 218.0000 1.0000
54.6800 243.0000 1.0000
54.7000 251.0000 1.0000
54.7200 298.0000 1.0000
54.7400 339.0000 1.0000
54.7600 359.0000 1.0000
54.7800 353.0000 1.0000
54.8000 356.0000 1.0000
54.8200 356.0000 1.0000
54.8400 331.0000 1.0000
54.8600 299.0000 1.0000
54.8800 303.0000 1.0000
54.9000 317.0000 1.0000
54.9200 312.0000 1.0000
54.9400 305.0000 1.0000
54.9600 296.0000 1.0000
54.9800 268.0000 1.0000
55.0000 234.0000 1.0000
55.0200 217.0000 1.0000
55.0400 203.0000 1.0000
55.0600 203.0000 1.0000
55.0800 203.0000 1.0000
55.1000 185.0000 1.0000
55.1200 224.0000 1.0000
55.1400 251.0000 1.0000
55.1600 239.0000 1.0000
55.1800 254.0000 1.0000
55.2000 249.0000 1.0000
55.2200 247.0000 1.0000
55.2400 231.0000 1.0000
55.2600 225.0000 1.0000
55.2800 231.0000 1.0000
55.3000 257.0000 1.0000
55.3200 255.0000 1.0000
55.3400 230.0000 1.0000
55.3600 220.0000 1.0000
55.3800 203.0000 1.0000
55.4000 197.0000 1.0000
55.4200 198.0000 1.0000
55.4400 190.0000 1.0000
55.4600 174.0000 1.0000
55.4800 171.0000 1.0000
55.5000 181.0000 1.0000
55.5200 178.0000 1.0000
55.5400 181.0000 1.0000
55.5600 180.0000 1.0000
55.5800 178.0000 1.0000
55.6000 177.0000 1.0000
55.6200 179.0000 1.0000
55.6400 179.0000 1.0000
55.6600 187.0000 1.0000
55.6800 185.0000 1.0000
55.7000 171.0000 1.0000
55.7200 168.0000 1.0000
55.7400 178.0000 1.0000
55.7600 192.0000 1.0000
55.7800 180.0000 1.0000
55.8000 163.0000 1.0000
55.8200 165.0000 1.0000
55.8400 178.0000 1.0000
55.8600 178.0000 1.0000
55.8800 167.0000 1.0000
55.9000 173.0000 1.0000
55.9200 172.0000 1.0000
55.9400 169.0000 1.0000
55.9600 181.0000 1.0000
55.9800 188.0000 1.0000
56.0000 173.0000 1.0000
56.0200 175.0000 1.0000
56.0400 183.0000 1.0000
56.0600 168.0000 1.0000
56.0800 168.0000 1.0000
56.1000 189.0000 1.0000
56.1200 187.0000 1.0000
56.1400 163.0000 1.0000
56.1600 168.0000 1.0000
56.1800 181.0000 1.0000
56.2000 173.0000 1.0000
56.2200 166.0000 1.0000
56.2400 174.0000 1.0000
56.2600 177.0000 1.0000
56.2800 175.0000 1.0000
56.3000 187.0000 1.0000
56.3200 185.0000 1.0000
56.3400 187.0000 1.0000
56.3600 195.0000 1.0000
56.3800 186.0000 1.0000
56.4000 175.0000 1.0000
56.4200 183.0000 1.0000
56.4400 196.0000 1.0000
56.4600 192.0000 1.0000
56.4800 205.0000 1.0000
56.5000 201.0000 1.0000
56.5200 186.0000 1.0000
56.5400 206.0000 1.0000
56.5600 202.0000 1.0000
56.5800 191.0000 1.0000
56.6000 181.0000 1.0000
56.6200 184.0000 1.0000
56.6400 192.0000 1.0000
56.6600 198.0000 1.0000
56.6800 188.0000 1.0000
56.7000 176.0000 1.0000
56.7200 183.0000 1.0000
56.7400 181.0000 1.0000
56.7600 177.0000 1.0000
56.7800 175.0000 1.0000
56.8000 171.0000 1.0000
56.8200 170.0000 1.0000
56.8400 159.0000 1.0000
56.8600 158.0000 1.0000
56.8800 181.0000 1.0000
56.9000 194.0000 1.0000
56.9200 176.0000 1.0000
56.9400 174.0000 1.0000
56.9600 184.0000 1.0000
56.9800 183.0000 1.0000
57.0000 176.0000 1.0000
57.0200 197.0000 1.0000
57.0400 202.0000 1.0000
57.0600 214.0000 1.0000
57.0800 227.0000 1.0000
57.1000 225.0000 1.0000
57.1200 240.0000 1.0000
57.1400 260.0000 1.0000
57.1600 252.0000 1.0000
57.1800 274.0000 1.0000
57.2000 300.0000 1.0000
57.2200 321.0000 1.0000
57.2400 358.0000 1.0000
57.2600 378.0000 1.0000
57.2800 440.0000 1.0000
57.3000 538.0000 1.0000
57.3200 675.0000 1.0000
57.3400 843.0000 1.0000
57.3600 1030.0000 1.0000
57.3800 1194.0000 1.0000
57.4000 1343.0000 1.0000
57.4200 1386.0000 1.0000
57.4400 1333.0000 1.0000
57.4600 1266.0000 1.0000
57.4800 1128.0000 1.0000
57.5000 1008.0000 1.0000
57.5200 921.0000 1.0000
57.5400 895.0000 1.0000
57.5600 857.0000 1.0000
57.5800 828.0000 1.0000
57.6000 755.0000 1.0000
57.6200 673.0000 1.0000
57.6400 548.0000 1.0000
57.6600 417.0000 1.0000
57.6800 360.0000 1.0000
57.7000 292.0000 1.0000
57.7200 278.0000 1.0000
57.7400 230.0000 1.0000
57.7600 210.0000 1.0000
57.7800 198.0000 1.0000
57.8000 205.0000 1.0000
57.8200 203.0000 1.0000
57.8400 198.0000 1.0000
57.8600 186.0000 1.0000
57.8800 176.0000 1.0000
57.9000 173.0000 1.0000
57.9200 182.0000 1.0000
57.9400 179.0000 1.0000
57.9600 164.0000 1.0000
57.9800 161.0000 1.0000
58.0000 165.0000 1.0000
58.0200 149.0000 1.0000
58.0400 156.0000 1.0000
58.0600 153.0000 1.0000
58.0800 153.0000 1.0000
58.1000 150.0000 1.0000
58.1200 149.0000 1.0000
58.1400 156.0000 1.0000
58.1600 172.0000 1.0000
58.1800 162.0000 1.0000
58.2000 141.0000 1.0000
58.2200 158.0000 1.0000
58.2400 168.0000 1.0000
58.2600 127.0000 1.0000
58.2800 116.0000 1.0000
58.3000 133.0000 1.0000
58.3200 133.0000 1.0000
58.3400 143.0000 1.0000
58.3600 153.0000 1.0000
58.3800 151.0000 1.0000
58.4000 130.0000 1.0000
58.4200 143.0000 1.0000
58.4400 145.0000 1.0000
58.4600 142.0000 1.0000
58.4800 133.0000 1.0000
58.5000 146.0000 1.0000
58.5200 157.0000 1.0000
58.5400 149.0000 1.0000
58.5600 127.0000 1.0000
58.5800 160.0000 1.0000
58.6000 157.0000 1.0000
58.6200 154.0000 1.0000
58.6400 161.0000 1.0000
58.6600 161.0000 1.0000
58.6800 144.0000 1.0000
58.7000 168.0000 1.0000
58.7200 146.0000 1.0000
58.7400 131.0000 1.0000
58.7600 165.0000 1.0000
58.7800 141.0000 1.0000
58.8000 139.0000 1.0000
58.8200 136.0000 1.0000
58.8400 149.0000 1.0000
58.8600 164.0000 1.0000
58.8800 163.0000 1.0000
58.9000 151.0000 1.0000
58.9200 153.0000 1.0000
58.9400 140.0000 1.0000
58.9600 146.0000 1.0000
58.9800 137.0000 1.0000
59.0000 142.0000 1.0000
59.0200 124.0000 1.0000
59.0400 136.0000 1.0000
59.0600 141.0000 1.0000
59.0800 152.0000 1.0000
59.1000 159.0000 1.0000
59.1200 177.0000 1.0000
59.1400 165.0000 1.0000
59.1600 154.0000 1.0000
59.1800 145.0000 1.0000
59.2000 139.0000 1.0000
59.2200 174.0000 1.0000
59.2400 147.0000 1.0000
59.2600 162.0000 1.0000
59.2800 146.0000 1.0000
59.3000 155.0000 1.0000
59.3200 160.0000 1.0000
59.3400 156.0000 1.0000
59.3600 183.0000 1.0000
59.3800 169.0000 1.0000
59.4000 159.0000 1.0000
59.4200 178.0000 1.0000
59.4400 174.0000 1.0000
59.4600 166.0000 1.0000
59.4800 168.0000 1.0000
59.5000 162.0000 1.0000
59.5200 197.0000 1.0000
59.5400 187.0000 1.0000
59.5600 198.0000 1.0000
59.5800 210.0000 1.0000
59.6000 219.0000 1.0000
59.6200 201.0000 1.0000
59.6400 254.0000 1.0000
59.6600 231.0000 1.0000
59.6800 255.0000 1.0000
59.7000 275.0000 1.0000
59.7200 255.0000 1.0000
59.7400 306.0000 1.0000
59.7600 334.0000 1.0000
59.7800 384.0000 1.0000
59.8000 439.0000 1.0000
59.8200 494.0000 1.0000
59.8400 574.0000 1.0000
59.8600 603.0000 1.0000
59.8800 587.0000 1.0000
59.9000 548.0000 1.0000
59.9200 527.0000 1.0000
59.9400 529.0000 1.0000
59.9600 491.0000 1.0000
59.9800 402.0000 1.0000
60.0000 405.0000 1.0000
60.0200 425.0000 1.0000
60.0400 429.0000 1.0000
60.0600 405.0000 1.0000
60.0800 366.0000 1.0000
60.1000 290.0000 1.0000
60.1200 285.0000 1.0000
60.1400 245.0000 1.0000
60.1600 243.0000 1.0000
60.1800 229.0000 1.0000
60.2000 220.0000 1.0000
60.2200 226.0000 1.0000
60.2400 207.0000 1.0000
60.2600 212.0000 1.0000
60.2800 202.0000 1.0000
60.3000 192.0000 1.0000
60.3200 194.0000 1.0000
60.3400 212.0000 1.0000
60.3600 172.0000 1.0000
60.3800 188.0000 1.0000
60.4000 196.0000 1.0000
60.4200 206.0000 1.0000
60.4400 184.0000 1.0000
60.4600 181.0000 1.0000
60.4800 203.0000 1.0000
60.5000 171.0000 1.0000
60.5200 203.0000 1.0000
60.5400 198.0000 1.0000
60.5600 195.0000 1.0000
60.5800 201.0000 1.0000
60.6000 189.0000 1.0000
60.6200 203.0000 1.0000
60.6400 175.0000 1.0000
60.6600 178.0000 1.0000
60.6800 193.0000 1.0000
60.7000 181.0000 1.0000
60.7200 187.0000 1.0000
60.7400 170.0000 1.0000
60.7600 187.0000 1.0000
60.7800 186.0000 1.0000
60.8000 169.0000 1.0000
60.8200 183.0000 1.0000
60.8400 164.0000 1.0000
60.8600 193.0000 1.0000
60.8800 185.0000 1.0000
60.9000 174.0000 1.0000
60.9200 180.0000 1.0000
60.9400 189.0000 1.0000
60.9600 205.0000 1.0000
60.9800 232.0000 1.0000
61.0000 215.0000 1.0000
61.0200 210.0000 1.0000
61.0400 218.0000 1.0000
61.0600 229.0000 1.0000
61.0800 230.0000 1.0000
61.1000 220.0000 1.0000
61.1200 267.0000 1.0000
61.1400 263.0000 1.0000
61.1600 251.0000 1.0000
61.1800 311.0000 1.0000
61.2000 325.0000 1.0000
61.2200 318.0000 1.0000
61.2400 323.0000 1.0000
61.2600 287.0000 1.0000
61.2800 324.0000 1.0000
61.3000 290.0000 1.0000
61.3200 286.0000 1.0000
61.3400 292.0000 1.0000
61.3600 288.0000 1.0000
61.3800 287.0000 1.0000
61.4000 276.0000 1.0000
61.4200 287.0000 1.0000
61.4400 302.0000 1.0000
61.4600 308.0000 1.0000
61.4800 278.0000 1.0000
61.5000 281.0000 1.0000
61.5200 273.0000 1.0000
61.5400 262.0000 1.0000
61.5600 268.0000 1.0000
61.5800 254.0000 1.0000
61.6000 294.0000 1.0000
61.6200 266.0000 1.0000
61.6400 269.0000 1.0000
61.6600 248.0000 1.0000
61.6800 274.0000 1.0000
61.7000 285.0000 1.0000
61.7200 288.0000 1.0000
61.7400 257.0000 1.0000
61.7600 270.0000 1.0000
61.7800 275.0000 1.0000
61.8000 283.0000 1.0000
61.8200 262.0000 1.0000
61.8400 272.0000 1.0000
61.8600 260.0000 1.0000
61.8800 236.0000 1.0000
61.9000 236.0000 1.0000
61.9200 249.0000 1.0000
61.9400 245.0000 1.0000
61.9600 256.0000 1.0000
61.9800 216.0000 1.0000
62.0000 238.0000 1.0000
62.0200 239.0000 1.0000
62.0400 239.0000 1.0000
62.0600 228.0000 1.0000
62.0800 215.0000 1.0000
62.1000 223.0000 1.0000
62.1200 232.0000 1.0000
62.1400 215.0000 1.0000
62.1600 192.0000 1.0000
62.1800 195.0000 1.0000
62.2000 189.0000 1.0000
62.2200 210.0000 1.0000
62.2400 169.0000 1.0000
62.2600 211.0000 1.0000
62.2800 195.0000 1.0000
62.3000 180.0000 1.0000
62.3200 177.0000 1.0000
62.3400 178.0000 1.0000
62.3600 176.0000 1.0000
62.3800 203.0000 1.0000
62.4000 183.0000 1.0000
62.4200 176.0000 1.0000
62.4400 184.0000 1.0000
62.4600 171.0000 1.0000
62.4800 167.0000 1.0000
62.5000 166.0000 1.0000
62.5200 142.0000 1.0000
62.5400 171.0000 1.0000
62.5600 174.0000 1.0000
62.5800 153.0000 1.0000
62.6000 167.0000 1.0000
62.6200 174.0000 1.0000
62.6400 156.0000 1.0000
62.6600 142.0000 1.0000
62.6800 162.0000 1.0000
62.7000 162.0000 1.0000
62.7200 137.0000 1.0000
62.7400 150.0000 1.0000
62.7600 168.0000 1.0000
62.7800 152.0000 1.0000
62.8000 160.0000 1.0000
62.8200 151.0000 1.0000
62.8400 156.0000 1.0000
62.8600 153.0000 1.0000
62.8800 166.0000 1.0000
62.9000 152.0000 1.0000
62.9200 140.0000 1.0000
62.9400 141.0000 1.0000
62.9600 146.0000 1.0000
62.9800 156.0000 1.0000
63.0000 158.0000 1.0000
63.0200 150.0000 1.0000
63.0400 146.0000 1.0000
63.0600 147.0000 1.0000
63.0800 137.0000 1.0000
63.1000 146.0000 1.0000
63.1200 139.0000 1.0000
63.1400 154.0000 1.0000
63.1600 154.0000 1.0000
63.1800 141.0000 1.0000
63.2000 152.0000 1.0000
63.2200 136.0000 1.0000
63.2400 146.0000 1.0000
63.2600 141.0000 1.0000
63.2800 137.0000 1.0000
63.3000 135.0000 1.0000
63.3200 153.0000 1.0000
63.3400 151.0000 1.0000
63.3600 144.0000 1.0000
63.3800 155.0000 1.0000
63.4000 147.0000 1.0000
63.4200 158.0000 1.0000
63.4400 135.0000 1.0000
63.4600 176.0000 1.0000
63.4800 156.0000 1.0000
63.5000 153.0000 1.0000
63.5200 178.0000 1.0000
63.5400 158.0000 1.0000
63.5600 154.0000 1.0000
63.5800 151.0000 1.0000
63.6000 157.0000 1.0000
63.6200 170.0000 1.0000
63.6400 165.0000 1.0000
63.6600 179.0000 1.0000
63.6800 159.0000 1.0000
63.7000 166.0000 1.0000
63.7200 180.0000 1.0000
63.7400 166.0000 1.0000
63.7600 188.0000 1.0000
63.7800 184.0000 1.0000
63.8000 199.0000 1.0000
63.8200 213.0000 1.0000
63.8400 199.0000 1.0000
63.8600 213.0000 1.0000
63.8800 209.0000 1.0000
63.9000 215.0000 1.0000
63.9200 228.0000 1.0000
63.9400 245.0000 1.0000
63.9600 246.0000 1.0000
63.9800 209.0000 1.0000
64.0000 219.0000 1.0000
64.0200 203.0000 1.0000
64.0400 199.0000 1.0000
64.0600 205.0000 1.0000
64.0800 188.0000 1.0000
64.1000 215.0000 1.0000
64.1200 178.0000 1.0000
64.1400 185.0000 1.0000
64.1600 170.0000 1.0000
64.1800 163.0000 1.0000
64.2000 166.0000 1.0000
64.2200 145.0000 1.0000
64.2400 150.0000 1.0000
64.2600 146.0000 1.0000
64.2800 146.0000 1.0000
64.3000 135.0000 1.0000
64.3200 135.0000 1.0000
64.3400 129.0000 1.0000
64.3600 125.0000 1.0000
64.3800 132.0000 1.0000
64.4000 129.0000 1.0000
64.4200 116.0000 1.0000
64.4400 120.0000 1.0000
64.4600 128.0000 1.0000
64.4800 130.0000 1.0000
64.5000 125.0000 1.0000
64.5200 140.0000 1.0000
64.5400 157.0000 1.0000
64.5600 142.0000 1.0000
64.5800 138.0000 1.0000
64.6000 139.0000 1.0000
64.6200 149.0000 1.0000
64.6400 131.0000 1.0000
64.6600 138.0000 1.0000
64.6800 150.0000 1.0000
64.7000 142.0000 1.0000
64.7200 142.0000 1.0000
64.7400 148.0000 1.0000
64.7600 154.0000 1.0000
64.7800 148.0000 1.0000
64.8000 144.0000 1.0000
64.8200 135.0000 1.0000
64.8400 142.0000 1.0000
64.8600 149.0000 1.0000
64.8800 165.0000 1.0000
64.9000 157.0000 1.0000
64.9200 145.0000 1.0000
64.9400 144.0000 1.0000
64.9600 145.0000 1.0000
64.9800 145.0000 1.0000
65.0000 145.0000 1.0000
*RAS_INT_END
*RAS_DATA_END
